Name;ESR_BC_1_359s_Y_gon_20dg_3

Recipe
Accumulations;5;Number of accumulations
RetryCount;0;Number of retries on error
AbortOnError;True;Abort on error
EnableQFactorMeasurement;False;Enable/Disable q-Factor measurement
Bfrom;313;B from
Bto;363;B to
SweepTime;60;Sweep time
Modulation;0.2;Modulation
ModulationFreq;100;Modulation
BHoldEnabled;False;B hold enabled
BHold;0;B hold
MicrowavePower;2;Microwave power
MarkerEnabled;False;
MarkerStartField;0;
MarkerEndField;0;
Mode;;
KineticGFact;0;
KineticTotalTransientTime;0;
KineticTimeResolution;0;
TempFrom;5;
TempUseSlope;False;
TempTo;5;
TempdT;1;
TempSetupTime;0;
GonFrom;0;
GonTo;180;
GonSteps;20;
XRayEnabled;False;
XRayTime;3;
XRayVoltage;40;
XRayCurrent;0.5;
UVEnabled;False;
UVIntensity;0;
UVTime;0;
UVLeadTime;0;
UVWavelength;0;
PowSweepFrom;1;
PowSweepTo;5;
PowSweepSteps;5;
AmpModSweepFrom;0;
AmpModSweepTo;1;
AmpModSweepSteps;10;
ExtTriggerEnabled;False;
ExtTrigLeadTime;0;
ExtTrigOnTime;5;

Meas
BField [mT];MW_Absorption []
313.018702850342;153.198434214787
313.040327299341;152.994862279354
313.06195174834;152.692527043545
313.083576197339;152.251903489379
313.105200646339;151.667616623889
313.126825095338;150.96959724113
313.148449544337;150.159848409051
313.170073993336;149.245350706764
313.191698442335;148.287594512498
313.213322891334;147.344378830958
313.234947340334;146.408412936603
313.256571789333;145.440489910781
313.278196238332;144.452916999262
313.299820687331;143.54436868856
313.32144513633;142.752758495594
313.34306958533;142.080975201154
313.364694034329;141.521046763414
313.386318483328;141.048638400616
313.407942932327;140.658753335177
313.429567381326;140.353115137455
313.451191830325;140.122049319219
313.472816279325;139.948560643681
313.494440728324;139.819466309588
313.516065177323;139.726100009971
313.537689626322;139.672525606964
313.559314075321;139.654591834795
313.580938524321;139.666039617784
313.60256297332;139.687309321512
313.624187422319;139.704107682218
313.645811871318;139.708232716041
313.667436320317;139.682852033642
313.689060769316;139.62128600284
313.710685218316;139.532549164567
313.732309667315;139.414395682445
313.753934116314;139.256788500263
313.775558565313;139.05968473056
313.797183014312;138.834339522301
313.818807463312;138.603686572199
313.840431912311;138.403520570741
313.86205636131;138.244707921767
313.883680810309;138.121739773572
313.905305259308;138.025801215071
313.926929708307;137.959642127708
313.948554157307;137.930463040521
313.970178606306;137.931247428165
313.991803055305;137.955997547463
314.013427504304;138.001030485438
314.035051953303;138.066026060219
314.056676402303;138.147211462647
314.078300851302;138.242272958712
314.099925300301;138.358010389565
314.1215497493;138.495593518053
314.143174198299;138.62013612757
314.164798647298;138.714022732409
314.186423096298;138.779450476276
314.208047545297;138.807938828793
314.229671994296;138.773274702158
314.251296443295;138.651910311018
314.272920892294;138.449918365252
314.294545341294;138.181295682364
314.316169790293;137.84926447294
314.337794239292;137.443489644802
314.359418688291;136.961853565214
314.38104313729;136.451071327158
314.402667586289;135.916554556725
314.424292035289;135.336506941747
314.445916484288;134.703441641477
314.467540933287;134.05237827688
314.489165382286;133.450016165326
314.510789831285;132.973014445792
314.532414280285;132.619328419721
314.554038729284;132.358120991537
314.575663178283;132.169912670542
314.597287627282;132.064238579597
314.618912076281;132.044889017068
314.64053652528;132.092832571782
314.66216097428;132.180524748377
314.683785423279;132.295479837511
314.705409872278;132.420552471225
314.727034321277;132.549022492406
314.748658770276;132.682896479744
314.770283219276;132.784708161178
314.791907668275;132.837736451595
314.813532117274;132.85183064573
314.835156566273;132.83167051809
314.856781015272;132.783846652243
314.878405464271;132.716111446321
314.900029913271;132.630256933537
314.92165436227;132.529792148062
314.943278811269;132.427077499557
314.964903260268;132.329213887572
314.986527709267;132.234232587925
315.008152158267;132.138363033562
315.029776607266;132.047453150462
315.051401056265;131.968303864242
315.073025505264;131.901342148231
315.094649954263;131.842724504121
315.116274403262;131.793883052949
315.137898852262;131.752844311018
315.159523301261;131.715218174446
315.18114775026;131.679895540594
315.202772199259;131.649466465994
315.224396648258;131.629907234797
315.246021097258;131.624814414518
315.267645546257;131.634635271765
315.289269995256;131.66344256844
315.310894444255;131.709319509858
315.332518893254;131.767668580961
315.354143342253;131.831356839198
315.375767791253;131.880307602478
315.397392240252;131.9013202736
315.419016689251;131.894242408494
315.44064113825;131.851400514206
315.462265587249;131.757232705231
315.483890036249;131.600617302659
315.505514485248;131.389712181442
315.527138934247;131.132922695476
315.548763383246;130.820631661151
315.570387832245;130.46195963684
315.592012281244;130.105369145274
315.613636730244;129.769749413306
315.635261179243;129.430832814768
315.656885628242;129.085105555746
315.678510077241;128.76505797309
315.70013452624;128.478986101636
315.72175897524;128.209100526365
315.743383424239;127.927858863847
315.765007873238;127.641808978289
315.786632322237;127.37480795133
315.808256771236;127.127345006461
315.829881220235;126.888720069672
315.851505669235;126.6587766959
315.873130118234;126.422980387283
315.894754567233;126.154779115161
315.916379016232;125.83865492912
315.938003465231;125.511795455314
315.959627914231;125.195874191588
315.98125236323;124.889773792374
316.002876812229;124.609130375676
316.024501261228;124.363011412156
316.046125710227;124.154038569343
316.067750159226;123.980552115887
316.089374608226;123.843790261979
316.110999057225;123.757644630403
316.132623506224;123.726331752853
316.154247955223;123.743084219289
316.175872404222;123.801483194353
316.197496853222;123.889681945785
316.219121302221;123.993483428137
316.24074575122;124.113508525982
316.262370200219;124.254455091162
316.283994649218;124.409334156568
316.305619098217;124.558847374692
316.327243547217;124.70268301425
316.348867996216;124.831765077304
316.370492445215;124.93800430247
316.392116894214;125.013502328458
316.413741343213;125.039706903328
316.435365792213;125.008644890393
316.456990241212;124.924299912678
316.478614690211;124.787984932651
316.50023913921;124.614338192798
316.521863588209;124.418101351937
316.543488037208;124.210361018045
316.565112486208;124.000300876909
316.586736935207;123.789413758057
316.608361384206;123.582062740227
316.629985833205;123.407081991341
316.651610282204;123.28702392206
316.673234731204;123.207405319381
316.694859180203;123.148043819718
316.716483629202;123.096730826236
316.738108078201;123.041224138076
316.7597325272;122.970168397656
316.781356976199;122.877794164392
316.802981425199;122.755776813663
316.824605874198;122.602356364158
316.846230323197;122.421977942184
316.867854772196;122.216816479878
316.889479221195;121.995213384782
316.911103670195;121.791608511727
316.932728119194;121.6509698429
316.954352568193;121.589813066699
316.975977017192;121.607720152265
316.997601466191;121.703237721183
317.01922591519;121.887582856586
317.04085036419;122.149319852689
317.062474813189;122.44490590655
317.084099262188;122.738854870446
317.105723711187;123.023791143352
317.127348160186;123.284254601449
317.148972609186;123.494141714833
317.170597058185;123.62360549829
317.192221507184;123.637361415143
317.213845956183;123.520781917395
317.235470405182;123.281191470921
317.257094854181;122.928371815894
317.278719303181;122.461358909911
317.30034375218;121.885310563535
317.321968201179;121.238041654915
317.343592650178;120.555076875302
317.365217099177;119.862081468882
317.386841548177;119.199372594995
317.408465997176;118.629422845235
317.430090446175;118.219833992346
317.451714895174;117.959667559309
317.473339344173;117.817470546601
317.494963793172;117.784885547349
317.516588242172;117.857537226343
317.538212691171;118.018707064849
317.55983714017;118.248661114009
317.581461589169;118.545110934798
317.603086038168;118.905054892374
317.624710487168;119.300294916219
317.646334936167;119.692056922009
317.667959385166;120.076613018452
317.689583834165;120.467736675404
317.711208283164;120.875448195872
317.732832732164;121.29129178477
317.754457181163;121.692503335173
317.776081630162;122.088286213362
317.797706079161;122.465234295464
317.81933052816;122.785293520346
317.840954977159;123.031903744607
317.862579426159;123.215384069904
317.884203875158;123.351017128251
317.905828324157;123.436264706034
317.927452773156;123.448426390976
317.949077222155;123.377836269804
317.970701671154;123.236500225796
317.992326120154;123.03805846732
318.013950569153;122.786025794457
318.035575018152;122.473643586163
318.057199467151;122.128118851562
318.07882391615;121.800933025795
318.10044836515;121.498030889837
318.122072814149;121.200387982664
318.143697263148;120.89314313801
318.165321712147;120.600298326826
318.186946161146;120.327292090812
318.208570610146;120.056374478897
318.230195059145;119.801988839066
318.251819508144;119.573486527277
318.273443957143;119.333427139603
318.295068406142;119.042712811764
318.316692855141;118.710765285884
318.338317304141;118.35924080732
318.35994175314;117.970012590616
318.381566202139;117.523572625277
318.403190651138;117.039317558687
318.424815100137;116.536176683087
318.446439549136;116.003408104245
318.468063998136;115.463489119026
318.489688447135;114.962163357902
318.511312896134;114.503078504337
318.532937345133;114.063648418876
318.554561794132;113.643796784916
318.576186243132;113.280807699977
318.597810692131;113.000293369618
318.61943514113;112.786541863191
318.641059590129;112.620558319903
318.662684039128;112.494864538871
318.684308488128;112.407686376828
318.705932937127;112.363020036989
318.727557386126;112.365585702694
318.749181835125;112.405674528554
318.770806284124;112.479270934571
318.792430733123;112.58517255647
318.814055182123;112.711594516547
318.835679631122;112.846544350337
318.857304080121;112.9867701703
318.87892852912;113.130771717456
318.900552978119;113.26889269451
318.922177427118;113.374110970751
318.943801876118;113.421763293055
318.965426325117;113.408481603579
318.987050774116;113.325246058645
319.008675223115;113.167618054268
319.030299672114;112.934082581357
319.051924121114;112.615987678903
319.073548570113;112.225658401311
319.095173019112;111.791379355738
319.116797468111;111.312491896639
319.13842191711;110.770883404054
319.16004636611;110.179661789649
319.181670815109;109.580967013088
319.203295264108;108.98802528394
319.224919713107;108.386388962321
319.246544162106;107.770215683635
319.268168611105;107.158137944881
319.289793060105;106.577436534242
319.311417509104;106.060306498583
319.333041958103;105.63918749564
319.354666407102;105.297372764064
319.376290856101;105.00841219105
319.3979153051;104.776278228736
319.4195397541;104.602327088609
319.441164203099;104.472542509697
319.462788652098;104.3778050194
319.484413101097;104.319148928834
319.506037550096;104.298589531413
319.527661999096;104.322792462033
319.549286448095;104.389404349462
319.570910897094;104.482613830496
319.592535346093;104.602299991687
319.614159795092;104.759482453857
319.635784244092;104.956410678556
319.657408693091;105.177869531418
319.67903314209;105.424245844842
319.700657591089;105.680183360446
319.722282040088;105.90776734348
319.743906489087;106.10293452492
319.765530938087;106.266002719064
319.787155387086;106.391949594672
319.808779836085;106.477697541743
319.830404285084;106.522043984687
319.852028734083;106.523505508143
319.873653183082;106.485408934285
319.895277632082;106.424111598439
319.916902081081;106.351704947719
319.93852653008;106.277058196764
319.960150979079;106.222738064791
319.981775428078;106.210173295329
320.003399877078;106.229377888779
320.025024326077;106.27927168487
320.046648775076;106.350820120576
320.068273224075;106.433581956577
320.089897673074;106.503490428141
320.111522122074;106.528015733794
320.133146571073;106.483915779585
320.154771020072;106.359487009707
320.176395469071;106.140295817676
320.19801991807;105.823378338728
320.219644367069;105.433721231613
320.241268816069;104.984988691247
320.262893265068;104.465619717805
320.284517714067;103.875049228494
320.306142163066;103.269770976832
320.327766612065;102.713884294363
320.349391061064;102.207591615985
320.371015510064;101.725018605948
320.392639959063;101.262340346361
320.414264408062;100.877461730347
320.435888857061;100.616580470998
320.45751330606;100.45149535475
320.47913775506;100.355538604848
320.500762204059;100.327915504385
320.522386653058;100.379039673266
320.544011102057;100.495473201147
320.565635551056;100.651948230839
320.587260000055;100.834455973681
320.608884449055;101.037906998535
320.630508898054;101.255505189398
320.652133347053;101.480185798493
320.673757796052;101.720383656842
320.695382245051;101.974500122146
320.717006694051;102.227059205526
320.73863114305;102.462293581893
320.760255592049;102.685936559078
320.781880041048;102.905295816858
320.803504490047;103.122961437015
320.825128939047;103.326769926168
320.846753388046;103.502285609986
320.868377837045;103.645403823458
320.890002286044;103.754355684095
320.911626735043;103.818835276544
320.933251184042;103.827321941178
320.954875633042;103.774909630327
320.976500082041;103.670177447375
320.99812453104;103.524522457873
321.019748980039;103.357370717237
321.041373429038;103.181895477368
321.062997878037;103.012072385835
321.084622327037;102.856370219877
321.106246776036;102.715231986131
321.127871225035;102.58577685
321.149495674034;102.468984335244
321.171120123033;102.363222751455
321.192744572033;102.254979539357
321.214369021032;102.130845779033
321.235993470031;101.969624977895
321.25761791903;101.760907888644
321.279242368029;101.515615545395
321.300866817029;101.232859002442
321.322491266028;100.919296233233
321.344115715027;100.604054186185
321.365740164026;100.298457663238
321.387364613025;99.9932175926655
321.408989062024;99.6755058549968
321.430613511024;99.3445797227347
321.452237960023;99.0430041620558
321.473862409022;98.7888120617021
321.495486858021;98.5571886708245
321.51711130702;98.3208739204477
321.538735756019;98.0512683956209
321.560360205019;97.7296924428323
321.581984654018;97.3624338726918
321.603609103017;96.951760273507
321.625233552016;96.4963687942003
321.646858001015;96.0098307484077
321.668482450015;95.4955714723289
321.690106899014;94.9458020509473
321.711731348013;94.356001655695
321.733355797012;93.7340949478532
321.754980246011;93.1060378054651
321.776604695011;92.5084720362014
321.79822914401;91.9783236356479
321.819853593009;91.5265921457573
321.841478042008;91.1430998717933
321.863102491007;90.8159982941645
321.884726940006;90.5344332028969
321.906351389006;90.2914775635817
321.927975838005;90.0834776683064
321.949600287004;89.8981335492204
321.971224736003;89.7182891953005
321.992849185002;89.5334025074942
322.014473634001;89.3573706303854
322.036098083001;89.1898329577738
322.057722532;89.0173032035364
322.079346980999;88.842178079601
322.100971429998;88.669634046579
322.122595878997;88.493295732776
322.144220327997;88.311731844957
322.165844776996;88.1239017200555
322.187469225995;87.9275320948438
322.209093674994;87.721675019191
322.230718123993;87.4959048813337
322.252342572993;87.2343785448318
322.273967021992;86.9416857354617
322.295591470991;86.6460673439508
322.31721591999;86.362085165139
322.338840368989;86.0961153819751
322.360464817988;85.8399694515346
322.382089266988;85.5988805132891
322.403713715987;85.4019261880681
322.425338164986;85.276330205312
322.446962613985;85.2118941689238
322.468587062984;85.1981572405376
322.490211511983;85.2357661395137
322.511835960983;85.3320848269312
322.533460409982;85.4921472767336
322.555084858981;85.7027624728393
322.57670930798;85.9451108268713
322.598333756979;86.2001348664862
322.619958205979;86.4607641333351
322.641582654978;86.7225690459837
322.663207103977;86.9890563405952
322.684831552976;87.2729480693525
322.706456001975;87.5820610323607
322.728080450975;87.9206669780031
322.749704899974;88.2536358186268
322.771329348973;88.5327514740907
322.792953797972;88.7554599452196
322.814578246971;88.9341461331077
322.83620269597;89.0767543997817
322.85782714497;89.1697304656322
322.879451593969;89.1947159217454
322.901076042968;89.140628484705
322.922700491967;89.0101230218588
322.944324940966;88.8161408996063
322.965949389965;88.5647119866569
322.987573838965;88.2520999487924
323.009198287964;87.8935151128957
323.030822736963;87.5286125076903
323.052447185962;87.1780570799115
323.074071634961;86.8384355670919
323.095696083961;86.4979688886604
323.11732053296;86.1416576702232
323.138944981959;85.7621059942963
323.160569430958;85.3671949096881
323.182193879957;84.9540754692157
323.203818328957;84.522555002039
323.225442777956;84.0874108560369
323.247067226955;83.6566041534306
323.268691675954;83.2345386761788
323.290316124953;82.8194433132225
323.311940573952;82.39267920843
323.333565022952;81.9274957698099
323.355189471951;81.4476564953459
323.37681392095;81.0580476880487
323.398438369949;80.7494506673412
323.420062818948;80.4839108203523
323.441687267947;80.2563278082879
323.463311716947;80.0788978628805
323.484936165946;79.9676937063905
323.506560614945;79.9365549979682
323.528185063944;79.9766191048104
323.549809512943;80.0808120764687
323.571433961943;80.2657164693708
323.593058410942;80.5398757996223
323.614682859941;80.8944273082884
323.63630730894;81.325979103797
323.657931757939;81.8149604689753
323.679556206939;82.3026756228503
323.701180655938;82.785342028564
323.722805104937;83.280695216764
323.744429553936;83.7648413236419
323.766054002935;84.1876442971513
323.787678451934;84.5362191749402
323.809302900934;84.7993477458513
323.830927349933;84.9770019711257
323.852551798932;85.0681189564664
323.874176247931;85.0828463078195
323.89580069693;85.0192424331017
323.91742514593;84.8729972417867
323.939049594929;84.6275910642123
323.960674043928;84.2846117350173
323.982298492927;83.8760560516374
324.003922941926;83.4058508796608
324.025547390925;82.8839149879905
324.047171839925;82.3352457830531
324.068796288924;81.7615808637675
324.090420737923;81.1513579759393
324.112045186922;80.4805951907598
324.133669635921;79.7487705117887
324.155294084921;79.0030226580121
324.17691853392;78.313547143571
324.198542982919;77.680009866935
324.220167431918;77.0681155538999
324.241791880917;76.4572026939848
324.263416329916;75.8880474356367
324.285040778916;75.3778794257014
324.306665227915;74.9262403531389
324.328289676914;74.5274053544674
324.349914125913;74.1655963885132
324.371538574912;73.8299268116743
324.393163023912;73.5282699556857
324.414787472911;73.2883837334939
324.43641192191;73.1218796054248
324.458036370909;73.0314723450873
324.479660819908;73.0372233375424
324.501285268907;73.1292696039419
324.522909717907;73.2816401100164
324.544534166906;73.4899942229574
324.566158615905;73.7354189872683
324.587783064904;74.0068306032555
324.609407513903;74.3049502349961
324.631031962903;74.6135001478178
324.652656411902;74.8956133594325
324.674280860901;75.1363814589932
324.6959053099;75.3390398745943
324.717529758899;75.5133291835475
324.739154207898;75.6629692303529
324.760778656898;75.7886041329153
324.782403105897;75.8874648625836
