Name;ESR_BC_1_359s_Y_gon_20dg_4

Recipe
Accumulations;5;Number of accumulations
RetryCount;0;Number of retries on error
AbortOnError;True;Abort on error
EnableQFactorMeasurement;False;Enable/Disable q-Factor measurement
Bfrom;313;B from
Bto;363;B to
SweepTime;60;Sweep time
Modulation;0.2;Modulation
ModulationFreq;100;Modulation
BHoldEnabled;False;B hold enabled
BHold;0;B hold
MicrowavePower;2;Microwave power
MarkerEnabled;False;
MarkerStartField;0;
MarkerEndField;0;
Mode;;
KineticGFact;0;
KineticTotalTransientTime;0;
KineticTimeResolution;0;
TempFrom;5;
TempUseSlope;False;
TempTo;5;
TempdT;1;
TempSetupTime;0;
GonFrom;0;
GonTo;180;
GonSteps;20;
XRayEnabled;False;
XRayTime;3;
XRayVoltage;40;
XRayCurrent;0.5;
UVEnabled;False;
UVIntensity;0;
UVTime;0;
UVLeadTime;0;
UVWavelength;0;
PowSweepFrom;1;
PowSweepTo;5;
PowSweepSteps;5;
AmpModSweepFrom;0;
AmpModSweepTo;1;
AmpModSweepSteps;10;
ExtTriggerEnabled;False;
ExtTrigLeadTime;0;
ExtTrigOnTime;5;

Meas
BField [mT];MW_Absorption []
313.014261169434;153.54697587621
313.035883374315;153.377358313217
313.057505579197;153.222282223833
313.079127784079;153.03253337368
313.10074998896;152.777725648151
313.122372193842;152.432519915947
313.143994398724;151.97290839678
313.165616603605;151.354783621385
313.187238808487;150.56144575062
313.208861013369;149.624233318917
313.23048321825;148.569312298941
313.252105423132;147.418588283395
313.273727628014;146.181925539024
313.295349832895;144.814779996934
313.316972037777;143.30156657577
313.338594242659;141.853244544283
313.360216447541;140.710498559924
313.381838652422;139.842604084751
313.403460857304;139.144756422018
313.425083062186;138.549838792106
313.446705267067;138.0188141905
313.468327471949;137.56704835234
313.489949676831;137.24901903123
313.511571881712;137.05891669133
313.533194086594;136.9543976471
313.554816291476;136.90730914765
313.576438496357;136.897980219151
313.598060701239;136.918220215466
313.619682906121;136.975012441796
313.641305111002;137.069098826265
313.662927315884;137.187369331877
313.684549520766;137.325348690581
313.706171725647;137.491522194448
313.727793930529;137.686008947586
313.749416135411;137.883823270876
313.771038340292;138.071343968156
313.792660545174;138.222262784383
313.814282750056;138.314589648865
313.835904954938;138.349920593318
313.857527159819;138.340708184027
313.879149364701;138.292976277633
313.900771569583;138.210615133837
313.922393774464;138.107319757874
313.944015979346;138.000946962973
313.965638184228;137.911575775063
313.987260389109;137.870492701778
314.008882593991;137.896988658856
314.030504798873;137.995698969755
314.052127003754;138.161999112774
314.073749208636;138.392323251687
314.095371413518;138.678785231869
314.116993618399;139.008216906899
314.138615823281;139.376380915657
314.160238028163;139.780923174283
314.181860233044;140.189283089695
314.203482437926;140.561559014417
314.225104642808;140.89411317632
314.24672684769;141.194017890332
314.268349052571;141.465896785121
314.289971257453;141.706185705821
314.311593462335;141.898182743484
314.333215667216;142.032593458769
314.354837872098;142.122366559274
314.37646007698;142.182896985387
314.398082281861;142.222425233745
314.419704486743;142.246967939396
314.441326691625;142.265907986465
314.462948896506;142.284453490174
314.484571101388;142.306657573209
314.50619330627;142.327985711272
314.527815511151;142.344471117597
314.549437716033;142.347955108673
314.571059920915;142.316343875258
314.592682125796;142.226703540738
314.614304330678;142.093617178274
314.63592653556;141.926756949522
314.657548740441;141.721801860571
314.679170945323;141.473813411784
314.700793150205;141.187627166385
314.722415355087;140.868892844007
314.744037559968;140.504508107577
314.76565976485;140.090396246987
314.787281969732;139.665595999511
314.808904174613;139.25784242383
314.830526379495;138.908911895028
314.852148584377;138.622423688757
314.873770789258;138.378511896905
314.89539299414;138.167397260065
314.917015199022;137.99800536796
314.938637403903;137.883526826077
314.960259608785;137.832701399317
314.981881813667;137.843519347363
315.003504018548;137.905397655416
315.02512622343;138.018479417383
315.046748428312;138.197256338466
315.068370633193;138.433370175764
315.089992838075;138.683272370157
315.111615042957;138.928964837771
315.133237247838;139.161792861054
315.15485945272;139.356842648098
315.176481657602;139.489045957201
315.198103862483;139.546552917606
315.219726067365;139.510871998351
315.241348272247;139.350886810448
315.262970477129;139.064543629324
315.28459268201;138.671585262781
315.306214886892;138.164189410907
315.327837091774;137.527104976122
315.349459296655;136.782166073373
315.371081501537;135.965404340186
315.392703706419;135.058309427897
315.4143259113;134.018809936129
315.435948116182;132.930225135788
315.457570321064;131.940269471976
315.479192525945;131.089685375541
315.500814730827;130.35645867611
315.522436935709;129.711873754432
315.54405914059;129.142456586472
315.565681345472;128.640338347138
315.587303550354;128.189734863862
315.608925755235;127.775600795913
315.630547960117;127.386100448903
315.652170164999;127.017660482264
315.673792369881;126.661170038326
315.695414574762;126.295730552033
315.717036779644;125.902326700504
315.738658984526;125.500309264827
315.760281189407;125.134750370413
315.781903394289;124.814302665399
315.803525599171;124.52292234288
315.825147804052;124.255516984727
315.846770008934;124.018044241571
315.868392213816;123.817515079677
315.890014418697;123.658298641223
315.911636623579;123.552408474814
315.933258828461;123.496923174993
315.954881033342;123.492530717406
315.976503238224;123.544656083844
315.998125443106;123.655678599626
316.019747647987;123.829007676544
316.041369852869;124.080040780143
316.062992057751;124.399334676816
316.084614262633;124.750354796335
316.106236467514;125.127997342067
316.127858672396;125.536812115432
316.149480877278;125.950726043642
316.171103082159;126.345781861431
316.192725287041;126.720515136006
316.214347491923;127.070924338938
316.235969696804;127.370796786213
316.257591901686;127.593803652103
316.279214106568;127.735496750729
316.300836311449;127.794055235574
316.322458516331;127.749164275144
316.344080721213;127.585151913245
316.365702926094;127.323990885303
316.387325130976;126.983002369811
316.408947335858;126.558662670268
316.430569540739;126.046406482008
316.452191745621;125.461569114312
316.473813950503;124.827760180397
316.495436155384;124.145442390884
316.517058360266;123.420742993252
316.538680565148;122.729567683843
316.560302770029;122.131506125114
316.581924974911;121.612690408144
316.603547179793;121.189246267347
316.625169384675;120.927322353031
316.646791589556;120.839964659046
316.668413794438;120.905901877416
316.69003599932;121.108750671725
316.711658204201;121.427990235571
316.733280409083;121.827966031216
316.754902613965;122.295425516783
316.776524818846;122.809709814463
316.798147023728;123.31763930133
316.81976922861;123.806960629079
316.841391433491;124.288124783272
316.863013638373;124.717709839874
316.884635843255;125.009521693288
316.906258048136;125.154101281904
316.927880253018;125.182031457715
316.9495024579;125.117406918692
316.971124662781;124.973629170181
316.992746867663;124.750545177719
317.014369072545;124.452117433913
317.035991277426;124.14636893372
317.057613482308;123.904086362071
317.07923568719;123.738425169974
317.100857892072;123.647382451431
317.122480096953;123.64869134417
317.144102301835;123.759499588846
317.165724506717;123.997240884161
317.187346711598;124.362631019781
317.20896891648;124.814804853754
317.230591121362;125.318019401305
317.252213326243;125.826315456054
317.273835531125;126.292039196717
317.295457736007;126.733898236282
317.317079940888;127.188165665226
317.33870214577;127.607090059477
317.360324350652;127.910437862271
317.381946555533;128.113586059878
317.403568760415;128.254434397985
317.425190965297;128.339753392292
317.446813170178;128.365733861902
317.46843537506;128.326439483591
317.490057579942;128.231836812753
317.511679784824;128.089559649047
317.533301989705;127.8857265985
317.554924194587;127.610788711573
317.576546399469;127.287001954586
317.59816860435;126.954592094421
317.619790809232;126.61883173893
317.641413014114;126.269897491062
317.663035218995;125.898596240445
317.684657423877;125.498223847636
317.706279628759;125.09467716379
317.72790183364;124.751610418696
317.749524038522;124.478939039285
317.771146243404;124.2403651358
317.792768448285;124.012311477998
317.814390653167;123.782692781477
317.836012858049;123.537229199801
317.85763506293;123.240281825723
317.879257267812;122.859486621643
317.900879472694;122.411919399606
317.922501677575;121.909150245676
317.944123882457;121.366128410397
317.965746087339;120.823759090777
317.98736829222;120.292119889622
318.008990497102;119.751955850288
318.030612701984;119.17618073402
318.052234906866;118.550834043838
318.073857111747;117.926424754274
318.095479316629;117.401686310914
318.117101521511;117.004147643825
318.138723726392;116.729675994861
318.160345931274;116.603191894027
318.181968136156;116.603603214328
318.203590341037;116.693643261154
318.225212545919;116.857995570084
318.246834750801;117.08344245328
318.268456955682;117.345562902265
318.290079160564;117.632053310742
318.311701365446;117.946692335473
318.333323570327;118.292935055756
318.354945775209;118.650232753713
318.376567980091;118.985834044517
318.398190184972;119.282022456248
318.419812389854;119.543838448304
318.441434594736;119.78405766749
318.463056799618;119.985890422268
318.484679004499;120.142779483005
318.506301209381;120.262803509195
318.527923414263;120.338098236201
318.549545619144;120.359485977354
318.571167824026;120.333177788214
318.592790028908;120.270422723006
318.614412233789;120.173655288049
318.636034438671;120.04613047999
318.657656643553;119.884318563842
318.679278848434;119.699293281248
318.700901053316;119.506035104749
318.722523258198;119.305315590012
318.744145463079;119.088692879251
318.765767667961;118.842461562235
318.787389872843;118.541066856414
318.809012077724;118.145793605704
318.830634282606;117.685538695705
318.852256487488;117.217921704812
318.873878692369;116.753678031143
318.895500897251;116.298276398316
318.917123102133;115.853371987501
318.938745307015;115.421186770838
318.960367511896;115.033898518862
318.981989716778;114.723118871843
319.00361192166;114.51094365143
319.025234126541;114.404410817008
319.046856331423;114.387362232515
319.068478536305;114.448801276035
319.090100741186;114.587101801357
319.111722946068;114.77587211827
319.13334515095;114.952489351108
319.154967355831;115.071856774504
319.176589560713;115.097125355522
319.198211765595;115.004191790395
319.219833970476;114.763760389758
319.241456175358;114.337854007712
319.26307838024;113.795432789672
319.284700585121;113.199625015268
319.306322790003;112.539310223764
319.327944994885;111.786349040696
319.349567199766;110.940164055359
319.371189404648;110.044319886766
319.39281160953;109.202881067572
319.414433814412;108.455687069957
319.436056019293;107.815381363842
319.457678224175;107.29898655419
319.479300429057;106.897170911592
319.500922633938;106.581738228766
319.52254483882;106.356014922939
319.544167043702;106.259351865038
319.565789248583;106.2653228935
319.587411453465;106.348337484257
319.609033658347;106.489267702962
319.630655863228;106.694735427805
319.65227806811;106.959932712388
319.673900272992;107.250921006587
319.695522477873;107.553031235584
319.717144682755;107.850660183327
319.738766887637;108.12569622485
319.760389092518;108.385728334849
319.7820112974;108.642788176456
319.803633502282;108.858183067941
319.825255707163;108.988319530348
319.846877912045;109.039420274724
319.868500116927;109.022946936259
319.890122321809;108.939662028793
319.91174452669;108.782681912813
319.933366731572;108.547791238934
319.954988936454;108.255360508345
319.976611141335;107.926396174695
319.998233346217;107.570052902003
320.019855551099;107.213350298111
320.04147775598;106.875730480381
320.063099960862;106.550729111308
320.084722165744;106.229603883136
320.106344370625;105.921266021975
320.127966575507;105.624434515955
320.149588780389;105.335155726007
320.17121098527;105.04354208337
320.192833190152;104.719221938279
320.214455395034;104.358826088358
320.236077599915;103.994134279289
320.257699804797;103.619061110523
320.279322009679;103.206742948934
320.300944214561;102.782806764397
320.322566419442;102.406238597028
320.344188624324;102.080773687246
320.365810829206;101.785200935694
320.387433034087;101.508942887407
320.409055238969;101.248470880132
320.430677443851;101.0086429743
320.452299648732;100.798763975776
320.473921853614;100.616338274016
320.495544058496;100.442541452512
320.517166263377;100.265407725498
320.538788468259;100.089055582084
320.560410673141;99.9236789817325
320.582032878022;99.7756803221803
320.603655082904;99.6594604058062
320.625277287786;99.5908728339186
320.646899492667;99.5744467914757
320.668521697549;99.6155082517249
320.690143902431;99.7152914182398
320.711766107312;99.8691941691648
320.733388312194;100.075691319578
320.755010517076;100.327809434985
320.776632721958;100.58776266286
320.798254926839;100.821294453432
320.819877131721;101.016625187077
320.841499336603;101.177242762796
320.863121541484;101.307619080571
320.884743746366;101.408217886877
320.906365951248;101.48062879602
320.927988156129;101.534763146405
320.949610361011;101.575519079303
320.971232565893;101.612513153638
320.992854770774;101.648855255027
321.014476975656;101.685127283486
321.036099180538;101.718817616175
321.057721385419;101.749689414055
321.079343590301;101.77637260098
321.100965795183;101.800516749426
321.122588000064;101.829894246753
321.144210204946;101.870501027536
321.165832409828;101.929262614781
321.187454614709;102.015575380061
321.209076819591;102.138320975981
321.230699024473;102.303740884907
321.252321229354;102.510761250323
321.273943434236;102.747575911082
321.295565639118;102.99128995783
321.317187844;103.218499588241
321.338810048881;103.415945310323
321.360432253763;103.569540506319
321.382054458645;103.640846337299
321.403676663526;103.604330342655
321.425298868408;103.46728722276
321.44692107329;103.229480988808
321.468543278171;102.858407458677
321.490165483053;102.352469149126
321.511787687935;101.820115328926
321.533409892816;101.303151435868
321.555032097698;100.780002070041
321.57665430258;100.233799495213
321.598276507461;99.670745332074
321.619898712343;99.1323537990419
321.641520917225;98.6521457420612
321.663143122106;98.2390262818209
321.684765326988;97.8903393632652
321.70638753187;97.5964254133874
321.728009736752;97.3492336727465
321.749631941633;97.1420751382657
321.771254146515;96.9692795973916
321.792876351397;96.8179696804719
321.814498556278;96.6663431341953
321.83612076116;96.5008257253225
321.857742966042;96.3123535953995
321.879365170923;96.0945487726859
321.900987375805;95.8447900096194
321.922609580687;95.5541752438228
321.944231785568;95.2279621502522
321.96585399045;94.8941562846289
321.987476195332;94.5626688522976
322.009098400213;94.2247060237955
322.030720605095;93.8827576513723
322.052342809977;93.5542721064885
322.073965014858;93.2589609305235
322.09558721974;93.0063316014024
322.117209424622;92.7854712418421
322.138831629504;92.5873871304123
322.160453834385;92.4119956191199
322.182076039267;92.2561015983484
322.203698244149;92.1092266731015
322.22532044903;91.9646958501444
322.246942653912;91.817707584304
322.268564858794;91.6717195465251
322.290187063675;91.534399154239
322.311809268557;91.4169092858255
322.333431473439;91.3228556823279
322.35505367832;91.2542521788103
322.376675883202;91.2050387900589
322.398298088084;91.1754340511974
322.419920292965;91.1655204617044
322.441542497847;91.1730942283702
322.463164702729;91.1874822797368
322.48478690761;91.1985261039137
322.506409112492;91.1999979393856
322.528031317374;91.1835766921346
322.549653522255;91.1451093466306
322.571275727137;91.0809877568448
322.592897932019;90.9923990643936
322.6145201369;90.8878879602285
322.636142341782;90.7698533309685
322.657764546664;90.6448612324184
322.679386751546;90.5306068025476
322.701008956427;90.4297967678385
322.722631161309;90.3504429434237
322.744253366191;90.302437892954
322.765875571072;90.2834063958405
322.787497775954;90.2957732317896
322.809119980836;90.3395044588865
322.830742185717;90.414113974104
322.852364390599;90.5064425503423
322.873986595481;90.6162342992533
322.895608800362;90.7535539706695
322.917231005244;90.924749393638
322.938853210126;91.1166436435234
322.960475415007;91.318914837411
322.982097619889;91.5369238168617
323.003719824771;91.7692641154313
323.025342029652;91.994158880491
323.046964234534;92.1687553946131
323.068586439416;92.2684513695807
323.090208644297;92.2916965055369
323.111830849179;92.2267046954786
323.133453054061;92.0647809475252
323.155075258943;91.7861331772728
323.176697463824;91.3819561853529
323.198319668706;90.8633665225639
323.219941873588;90.2827653847378
323.241564078469;89.6837947441766
323.263186283351;89.0407579211175
323.284808488233;88.3101022531797
323.306430693114;87.4960847128427
323.328052897996;86.7276244920082
323.349675102878;86.0654434121304
323.371297307759;85.4674390619033
323.392919512641;84.9212000399357
323.414541717523;84.4241609707234
323.436163922404;83.9478534210993
323.457786127286;83.4520614193388
323.479408332168;82.8993957246575
323.501030537049;82.2868258601297
323.522652741931;81.638799460529
323.544274946813;81.0080922644552
323.565897151695;80.4166516309292
323.587519356576;79.8264597772489
323.609141561458;79.1949148507978
323.63076376634;78.5662452834737
323.652385971221;78.0112977591796
323.674008176103;77.5259267587802
323.695630380985;77.0999029888869
323.717252585866;76.7418580986321
323.738874790748;76.4436979180472
323.76049699563;76.2107114364314
323.782119200511;76.0490764881745
323.803741405393;75.9401153320667
323.825363610275;75.869365418373
323.846985815156;75.8241824235202
323.868608020038;75.7940810247069
323.89023022492;75.7713303536098
323.911852429801;75.7503175122101
323.933474634683;75.7351405714495
323.955096839565;75.7246079137711
323.976719044446;75.7218298218928
323.998341249328;75.7280854682341
324.01996345421;75.745039534091
324.041585659091;75.778190604427
324.063207863973;75.8323058401995
324.084830068855;75.9124012012234
324.106452273737;76.0130031629613
324.128074478618;76.113739902648
324.1496966835;76.1897923414857
324.171318888382;76.2332065100764
324.192941093263;76.2393778961604
324.214563298145;76.2039724615431
324.236185503027;76.1148637845713
324.257807707908;75.957542911729
324.27942991279;75.7093283527065
324.301052117672;75.3572991269569
324.322674322553;74.9136744998611
324.344296527435;74.3823099468509
324.365918732317;73.7698221390982
324.387540937198;73.1240169136344
324.40916314208;72.4789419800381
324.430785346962;71.8476256574468
324.452407551843;71.2451322120525
324.474029756725;70.6948494940778
324.495651961607;70.2322612535227
324.517274166489;69.850545155081
324.53889637137;69.5246868013744
324.560518576252;69.2685360747188
324.582140781134;69.1251034430873
324.603762986015;69.0703399920895
324.625385190897;69.0852537086822
324.647007395779;69.155845761369
324.66862960066;69.2758965247186
324.690251805542;69.4422613610373
324.711874010424;69.6709973528621
324.733496215305;69.9941015113926
324.755118420187;70.4193511771737
324.776740625069;70.9285124279626
