Name;ESR_BC_1_359s_Y_gon_20dg_5

Recipe
Accumulations;5;Number of accumulations
RetryCount;0;Number of retries on error
AbortOnError;True;Abort on error
EnableQFactorMeasurement;False;Enable/Disable q-Factor measurement
Bfrom;313;B from
Bto;363;B to
SweepTime;60;Sweep time
Modulation;0.2;Modulation
ModulationFreq;100;Modulation
BHoldEnabled;False;B hold enabled
BHold;0;B hold
MicrowavePower;2;Microwave power
MarkerEnabled;False;
MarkerStartField;0;
MarkerEndField;0;
Mode;;
KineticGFact;0;
KineticTotalTransientTime;0;
KineticTimeResolution;0;
TempFrom;5;
TempUseSlope;False;
TempTo;5;
TempdT;1;
TempSetupTime;0;
GonFrom;0;
GonTo;180;
GonSteps;20;
XRayEnabled;False;
XRayTime;3;
XRayVoltage;40;
XRayCurrent;0.5;
UVEnabled;False;
UVIntensity;0;
UVTime;0;
UVLeadTime;0;
UVWavelength;0;
PowSweepFrom;1;
PowSweepTo;5;
PowSweepSteps;5;
AmpModSweepFrom;0;
AmpModSweepTo;1;
AmpModSweepSteps;10;
ExtTriggerEnabled;False;
ExtTrigLeadTime;0;
ExtTrigOnTime;5;

Meas
BField [mT];MW_Absorption []
313.028466796875;154.374406527047
313.050085963096;153.578650452737
313.071705129318;152.768427513471
313.093324295539;151.950057283789
313.114943461761;151.147240883145
313.136562627982;150.37981383018
313.158181794204;149.616758476561
313.179800960425;148.882754846343
313.201420126647;148.198528498214
313.223039292868;147.523101439637
313.24465845909;146.8525510392
313.266277625311;146.221794088229
313.287896791532;145.629097401336
313.309515957754;145.036645309168
313.331135123975;144.398603238284
313.352754290197;143.745521530844
313.374373456418;143.179101656918
313.39599262264;142.68137758356
313.417611788861;142.214025377836
313.439230955083;141.759514170555
313.460850121304;141.304389578543
313.482469287526;140.86891592129
313.504088453747;140.485055139201
313.525707619968;140.149723979543
313.54732678619;139.850953202323
313.568945952411;139.584009623834
313.590565118633;139.354801634579
313.612184284854;139.167126335143
313.633803451076;139.04281402062
313.655422617297;138.99707202939
313.677041783519;139.020992872988
313.69866094974;139.115209356884
313.720280115962;139.291568908929
313.741899282183;139.564505633113
313.763518448404;139.911112083325
313.785137614626;140.302025490625
313.806756780847;140.740431749373
313.828375947069;141.249752259458
313.84999511329;141.787848875062
313.871614279512;142.300655073077
313.893233445733;142.779482409562
313.914852611955;143.183866049373
313.936471778176;143.501061798256
313.958090944398;143.75983414611
313.979710110619;143.973558843008
314.00132927684;144.129787986422
314.022948443062;144.227710912861
314.044567609283;144.287418573296
314.066186775505;144.325662239321
314.087805941726;144.349889239922
314.109425107948;144.364287737228
314.131044274169;144.364930824256
314.152663440391;144.349814644159
314.174282606612;144.310960470366
314.195901772834;144.247175222262
314.217520939055;144.142646419965
314.239140105276;143.982358118343
314.260759271498;143.773989779935
314.282378437719;143.5235415842
314.303997603941;143.223606482776
314.325616770162;142.874446192312
314.347235936384;142.498415847272
314.368855102605;142.122347972822
314.390474268827;141.761847063696
314.412093435048;141.429547462946
314.43371260127;141.127571941642
314.455331767491;140.842959341612
314.476950933712;140.571986298358
314.498570099934;140.308591885406
314.520189266155;140.04030000812
314.541808432377;139.751207758197
314.563427598598;139.441477465729
314.58504676482;139.121117098047
314.606665931041;138.807638615629
314.628285097263;138.484047752218
314.649904263484;138.127620883926
314.671523429705;137.745474842411
314.693142595927;137.37843348356
314.714761762148;137.065807415391
314.73638092837;136.816583371154
314.758000094591;136.628076337949
314.779619260813;136.492079808101
314.801238427034;136.410875731139
314.822857593256;136.371961097151
314.844476759477;136.368541115187
314.866095925699;136.391107031614
314.88771509192;136.42028604706
314.909334258141;136.449686568051
314.930953424363;136.476447481903
314.952572590584;136.497797207909
314.974191756806;136.514957067683
314.995810923027;136.53247762124
315.017430089249;136.551993985719
315.03904925547;136.576726792353
315.060668421692;136.609041301617
315.082287587913;136.647472130081
315.103906754135;136.688242189012
315.125525920356;136.729641738625
315.147145086577;136.766996237988
315.168764252799;136.79261026952
315.19038341902;136.79813135334
315.212002585242;136.780970604794
315.233621751463;136.736954364666
315.255240917685;136.653110863523
315.276860083906;136.505629619392
315.298479250128;136.286723838035
315.320098416349;136.012363746653
315.341717582571;135.687526527547
315.363336748792;135.304064111021
315.384955915013;134.852317378034
315.406575081235;134.338973306722
315.428194247456;133.773519174025
315.449813413678;133.156448584843
315.471432579899;132.524922822001
315.493051746121;131.927619758373
315.514670912342;131.366370645545
315.536290078564;130.844124429589
315.557909244785;130.377739901903
315.579528411007;129.975820542783
315.601147577228;129.639592067818
315.622766743449;129.384758132682
315.644385909671;129.228785500112
315.666005075892;129.170731562962
315.687624242114;129.208460600984
315.709243408335;129.339909735832
315.730862574557;129.525623758213
315.752481740778;129.720428585549
315.774100907;129.91773034011
315.795720073221;130.116417850304
315.817339239443;130.30941351829
315.838958405664;130.469397010898
315.860577571885;130.577821150599
315.882196738107;130.631273924583
315.903815904328;130.628194706975
315.92543507055;130.565201381078
315.947054236771;130.432796306642
315.968673402993;130.245864105834
315.990292569214;130.014109276048
316.011911735436;129.754464609707
316.033530901657;129.509648165811
316.055150067879;129.296176270603
316.0767692341;129.110452603687
316.098388400321;128.951542521969
316.120007566543;128.820182345361
316.141626732764;128.72087864149
316.163245898986;128.652141173381
316.184865065207;128.606147396405
316.206484231429;128.57742600374
316.22810339765;128.565594219592
316.249722563872;128.573377540284
316.271341730093;128.60771301414
316.292960896315;128.660190451904
316.314580062536;128.727471225676
316.336199228757;128.80487041558
316.357818394979;128.888351611375
316.3794375612;128.975040811314
316.401056727422;129.056485815709
316.422675893643;129.110770993643
316.444295059865;129.107909325194
316.465914226086;129.029865051311
316.487533392308;128.875441196579
316.509152558529;128.644394737151
316.53077172475;128.331163272783
316.552390890972;127.942600726493
316.574010057193;127.489801251584
316.595629223415;126.973353492897
316.617248389636;126.412037135367
316.638867555858;125.861167248376
316.660486722079;125.369215379217
316.682105888301;124.946774213536
316.703725054522;124.597860880671
316.725344220744;124.345240192205
316.746963386965;124.217045563771
316.768582553186;124.190340921614
316.790201719408;124.231845051777
316.811820885629;124.32073649838
316.833440051851;124.436937413182
316.855059218072;124.544257756538
316.876678384294;124.628003210089
316.898297550515;124.68520298764
316.919916716737;124.708309458374
316.941535882958;124.689787006412
316.96315504918;124.629079744303
316.984774215401;124.527883462652
317.006393381622;124.395503060769
317.028012547844;124.257604577682
317.049631714065;124.152451054406
317.071250880287;124.088235808053
317.092870046508;124.071824195486
317.11448921273;124.106721706956
317.136108378951;124.210613074866
317.157727545173;124.390302809353
317.179346711394;124.636513962436
317.200965877616;124.941944053707
317.222585043837;125.287277810219
317.244204210058;125.659963600017
317.26582337628;126.017856711753
317.287442542501;126.324443466039
317.309061708723;126.579998089845
317.330680874944;126.803475575916
317.352300041166;126.987011247627
317.373919207387;127.110830538557
317.395538373609;127.162717584998
317.41715753983;127.149674133702
317.438776706052;127.085544463043
317.460395872273;126.974258801159
317.482015038494;126.826012808533
317.503634204716;126.64980745545
317.525253370937;126.447127615907
317.546872537159;126.220858889449
317.56849170338;125.982683984305
317.590110869602;125.744012272793
317.611730035823;125.511580338563
317.633349202045;125.290075009999
317.654968368266;125.072027591491
317.676587534488;124.848316783732
317.698206700709;124.648471505481
317.71982586693;124.479522716823
317.741445033152;124.340425589136
317.763064199373;124.24136871842
317.784683365595;124.177616946942
317.806302531816;124.142806497361
317.827921698038;124.135997825327
317.849540864259;124.152237673782
317.871160030481;124.185438508117
317.892779196702;124.228798101698
317.914398362924;124.277289896562
317.936017529145;124.328155137926
317.957636695366;124.371344693957
317.979255861588;124.40561512926
318.000875027809;124.436266840146
318.022494194031;124.466946408337
318.044113360252;124.499681435913
318.065732526474;124.537788632183
318.087351692695;124.585313460694
318.108970858917;124.638876212183
318.130590025138;124.698875650265
318.152209191359;124.764639817524
318.173828357581;124.828347561771
318.195447523802;124.873308788447
318.217066690024;124.888315576138
318.238685856245;124.86305443252
318.260305022467;124.791322237698
318.281924188688;124.671928136638
318.30354335491;124.501715674394
318.325162521131;124.272732722511
318.346781687353;123.974286441396
318.368400853574;123.613733606075
318.390020019795;123.240182583125
318.411639186017;122.89312706723
318.433258352238;122.59702109164
318.45487751846;122.361419996855
318.476496684681;122.185312655126
318.498115850903;122.069032077527
318.519735017124;122.01040012692
318.541354183346;121.993919371629
318.562973349567;122.001420924888
318.584592515789;122.018256351201
318.60621168201;122.026423980931
318.627830848232;122.001994245128
318.649450014453;121.916946389813
318.671069180674;121.744505823504
318.692688346896;121.462776634203
318.714307513117;121.053194158083
318.735926679339;120.589935310452
318.75754584556;120.099386834125
318.779165011782;119.561022532599
318.800784178003;118.958586424041
318.822403344225;118.334352066714
318.844022510446;117.69756871592
318.865641676667;117.039166165607
318.887260842889;116.37445559278
318.90888000911;115.695176522136
318.930499175332;114.987928467156
318.952118341553;114.292850439626
318.973737507775;113.683256454297
318.995356673996;113.150717093101
319.016975840218;112.654674528996
319.038595006439;112.221019061077
319.060214172661;111.883728579296
319.081833338882;111.622083742907
319.103452505103;111.419476530594
319.125071671325;111.281882209607
319.146690837546;111.191354363274
319.168310003768;111.125837317472
319.189929169989;111.064995318918
319.211548336211;111.000461053113
319.233167502432;110.919028693011
319.254786668654;110.808985891908
319.276405834875;110.677495851069
319.298025001097;110.53081350373
319.319644167318;110.366236857644
319.341263333539;110.180505658807
319.362882499761;109.970679092872
319.384501665982;109.741792882508
319.406120832204;109.509354573608
319.427739998425;109.291316845639
319.449359164647;109.107920010763
319.470978330868;108.991193543304
319.49259749709;108.943017386719
319.514216663311;108.962704599228
319.535835829533;109.054428781017
319.557454995754;109.217565650108
319.579074161975;109.432999124218
319.600693328197;109.689833247916
319.622312494418;109.99245663217
319.64393166064;110.345688791482
319.665550826861;110.72542573119
319.687169993083;111.100702484602
319.708789159304;111.470318146915
319.730408325526;111.834952841886
319.752027491747;112.180794091327
319.773646657969;112.497526900441
319.79526582419;112.778683641231
319.816884990411;113.023541287145
319.838504156633;113.211220400619
319.860123322854;113.318568702897
319.881742489076;113.32335759941
319.903361655297;113.226313986696
319.924980821519;113.034605155087
319.94659998774;112.741760302748
319.968219153962;112.341635834893
319.989838320183;111.838952801939
320.011457486404;111.235721082171
320.033076652626;110.559811901399
320.054695818847;109.859069149028
320.076314985069;109.172447739636
320.09793415129;108.518039045838
320.119553317512;107.907013588712
320.141172483733;107.327302119194
320.162791649955;106.709105169871
320.184410816176;106.017527242834
320.206029982398;105.344335256292
320.227649148619;104.817043119975
320.24926831484;104.403734823745
320.270887481062;104.061260921497
320.292506647283;103.76417238419
320.314125813505;103.501069416233
320.335744979726;103.284311712418
320.357364145948;103.122871806049
320.378983312169;103.012151679608
320.400602478391;102.931287034811
320.422221644612;102.863102887611
320.443840810834;102.798356715816
320.465459977055;102.734596404318
320.487079143277;102.670655068789
320.508698309498;102.603369494217
320.530317475719;102.530435488903
320.551936641941;102.460829882584
320.573555808162;102.398758520559
320.595174974384;102.350346752298
320.616794140605;102.318586734354
320.638413306827;102.307211433854
320.660032473048;102.326748514182
320.68165163927;102.377479716751
320.703270805491;102.449271068103
320.724889971712;102.540868583791
320.746509137934;102.648245745855
320.768128304155;102.764841391789
320.789747470377;102.889443638187
320.811366636598;103.024916314608
320.83298580282;103.168390712068
320.854604969041;103.315459388015
320.876224135263;103.458810499212
320.897843301484;103.586256852943
320.919462467706;103.687710881818
320.941081633927;103.757040744962
320.962700800148;103.795938016561
320.98431996637;103.805776958541
321.005939132591;103.786314237583
321.027558298813;103.732637483924
321.049177465034;103.636940863996
321.070796631256;103.505078493152
321.092415797477;103.346049696872
321.114034963699;103.164131464857
321.13565412992;102.970349487163
321.157273296142;102.790690855896
321.178892462363;102.632175922619
321.200511628584;102.486416022338
321.222130794806;102.350875991219
321.243749961027;102.226831657211
321.265369127249;102.109438755562
321.28698829347;101.984280065158
321.308607459692;101.828581082744
321.330226625913;101.635553581865
321.351845792135;101.408208795171
321.373464958356;101.128953233444
321.395084124578;100.758108356085
321.416703290799;100.276569721182
321.43832245702;99.7522910434556
321.459941623242;99.2317844027334
321.481560789463;98.7108261215427
321.503179955685;98.1965400422876
321.524799121906;97.6856538130941
321.546418288128;97.1643711650393
321.568037454349;96.6306923763602
321.589656620571;96.0924523158123
321.611275786792;95.5539873293009
321.632894953014;95.0159183811923
321.654514119235;94.5053003648314
321.676133285456;94.0628847768717
321.697752451678;93.6801645938966
321.719371617899;93.3291040376186
321.740990784121;92.9939165984898
321.762609950342;92.6671322135142
321.784229116564;92.3522504010672
321.805848282785;92.0852532498445
321.827467449007;91.8726228246721
321.849086615228;91.6858073586859
321.870705781449;91.5096420687351
321.892324947671;91.3447398020508
321.913944113892;91.207274485461
321.935563280114;91.1135103167019
321.957182446335;91.0504572630357
321.978801612557;91.000945344999
322.000420778778;90.9519540240644
322.022039945;90.8933078714646
322.043659111221;90.8244268492993
322.065278277443;90.7363756049474
322.086897443664;90.6188066824099
322.108516609886;90.461907823499
322.130135776107;90.2685408736285
322.151754942328;90.0509052520778
322.17337410855;89.8126225724656
322.194993274771;89.5447533394931
322.216612440993;89.2425184647512
322.238231607214;88.9438595935588
322.259850773436;88.6663220231405
322.281469939657;88.4040344202646
322.303089105879;88.1582717763697
322.3247082721;87.9435981996419
322.346327438322;87.767534439155
322.367946604543;87.6335386931483
322.389565770764;87.5424281935067
322.411184936986;87.5011770070856
322.432804103207;87.5258475232872
322.454423269429;87.6319477060469
322.47604243565;87.8157734882397
322.497661601872;88.0774398630425
322.519280768093;88.4326767843874
322.540899934315;88.8920516409613
322.562519100536;89.4638342440599
322.584138266757;90.1618261528766
322.605757432979;90.9117523337097
322.6273765992;91.6321667946577
322.648995765422;92.2971452211129
322.670614931643;92.915488117883
322.692234097865;93.5127291382165
322.713853264086;94.0473507940393
322.735472430308;94.4642059728335
322.757091596529;94.7765160354839
322.778710762751;95.0040802128987
322.800329928972;95.1606554703564
322.821949095193;95.2477121566239
322.843568261415;95.2583431135941
322.865187427636;95.1909561279315
322.886806593858;95.0610756264801
322.908425760079;94.8820304201419
322.930044926301;94.6536375171883
322.951664092522;94.3676291138435
322.973283258744;94.0192343875709
322.994902424965;93.6064111736857
323.016521591187;93.1482247338596
323.038140757408;92.6713859530072
323.059759923629;92.1704135005855
323.081379089851;91.6335806619136
323.102998256072;91.048834150634
323.124617422294;90.4116652227584
323.146236588515;89.7295023753445
323.167855754737;89.0106413429988
323.189474920958;88.2736161278791
323.21109408718;87.5393640617253
323.232713253401;86.8288160457448
323.254332419623;86.2061212845466
323.275951585844;85.7051408114041
323.297570752065;85.2915921806769
323.319189918287;84.929635054627
323.340809084508;84.6217452684412
323.36242825073;84.4036958961049
323.384047416951;84.2625506705821
323.405666583173;84.1707561264508
323.427285749394;84.1156042812469
323.448904915616;84.0911707218144
323.470524081837;84.0941106190574
323.492143248059;84.1127765406807
323.51376241428;84.132886984417
323.535381580501;84.1531087630849
323.557000746723;84.1591268589828
323.578619912944;84.1453647357633
323.600239079166;84.1029729878289
323.621858245387;84.0240315701598
323.643477411609;83.9044568671643
323.66509657783;83.7376881255945
323.686715744052;83.5359599261947
323.708334910273;83.30465096078
323.729954076494;83.0331972386811
323.751573242716;82.7007500243298
323.773192408937;82.3056975868296
323.794811575159;81.8500579987272
323.81643074138;81.296012111429
323.838049907602;80.6751212612346
323.859669073823;80.0356369913874
323.881288240045;79.3861822951357
323.902907406266;78.6972444860625
323.924526572488;77.9284932433007
323.946145738709;77.0715271972036
323.967764904931;76.2130817945428
323.989384071152;75.3894986517614
324.011003237373;74.5686632229182
324.032622403595;73.7368293932012
324.054241569816;72.9660109887625
324.075860736038;72.3029157744294
324.097479902259;71.7574271523467
324.119099068481;71.3094995739088
324.140718234702;70.95789393139
324.162337400924;70.7236670726241
324.183956567145;70.591568488354
324.205575733366;70.537412040355
324.227194899588;70.5463880751957
324.248814065809;70.6292206511376
324.270433232031;70.7617430897714
324.292052398252;70.9181667605023
324.313671564474;71.0951451715732
324.335290730695;71.2943307691027
324.356909896917;71.5257607389512
324.378529063138;71.806114199209
324.40014822936;72.1209365546653
324.421767395581;72.4370681735221
324.443386561802;72.7504190010404
324.465005728024;73.0711689794118
324.486624894245;73.3941872875858
324.508244060467;73.6969347616155
324.529863226688;73.9901523558068
324.55148239291;74.2706845229615
324.573101559131;74.5139479119515
324.594720725353;74.7090606702569
324.616339891574;74.8610635600545
324.637959057796;74.9801928032839
324.659578224017;75.0672937960274
324.681197390238;75.1292486224212
324.70281655646;75.1661748631182
324.724435722681;75.1697562319276
324.746054888903;75.1534213813346
324.767674055124;75.1226630103524
324.789293221346;75.0851031483255
