Name;ESR_BC_1_Natural_Z_gon_120dg_result

Recipe
Accumulations;5;Number of accumulations
RetryCount;0;Number of retries on error
AbortOnError;True;Abort on error
EnableQFactorMeasurement;False;Enable/Disable q-Factor measurement
Bfrom;313;B from
Bto;363;B to
SweepTime;60;Sweep time
Modulation;0.2;Modulation
ModulationFreq;100;Modulation
BHoldEnabled;False;B hold enabled
BHold;0;B hold
MicrowavePower;2;Microwave power
MarkerEnabled;False;
MarkerStartField;0;
MarkerEndField;0;
Mode;;
KineticGFact;0;
KineticTotalTransientTime;0;
KineticTimeResolution;0;
TempFrom;5;
TempUseSlope;False;
TempTo;5;
TempdT;1;
TempSetupTime;0;
GonFrom;0;
GonTo;180;
GonSteps;20;
XRayEnabled;False;
XRayTime;3;
XRayVoltage;40;
XRayCurrent;0.5;
UVEnabled;False;
UVIntensity;0;
UVTime;0;
UVLeadTime;0;
UVWavelength;0;
PowSweepFrom;1;
PowSweepTo;5;
PowSweepSteps;5;
AmpModSweepFrom;0;
AmpModSweepTo;1;
AmpModSweepSteps;10;
ExtTriggerEnabled;False;
ExtTrigLeadTime;0;
ExtTrigOnTime;5;

Meas
BField [mT];MW_Absorption []
313.016452636719;72.0772329365012
313.038070864147;71.8609157318776
313.059689091576;71.6965818437651
313.081307319004;71.5812158248333
313.102925546432;71.5203933732701
313.124543773861;71.4985465555555
313.146162001289;71.4988695760016
313.167780228718;71.5096688136749
313.189398456146;71.5227762553535
313.211016683574;71.5277653512593
313.232634911003;71.509718251224
313.254253138431;71.4559568397265
313.27587136586;71.3593585358134
313.297489593288;71.2255547782956
313.319107820716;71.0617944254111
313.340726048145;70.868492826722
313.362344275573;70.6417952743158
313.383962503002;70.3928487766298
313.40558073043;70.1510461161288
313.427198957858;69.9381124837222
313.448817185287;69.7656182035263
313.470435412715;69.6391623183948
313.492053640144;69.5701869304582
313.513671867572;69.5735456214727
313.535290095;69.6632543518031
313.556908322429;69.8549755796993
313.578526549857;70.1428911727557
313.600144777286;70.5042137642135
313.621763004714;70.9248818116568
313.643381232142;71.3803979601138
313.664999459571;71.8477601637484
313.686617686999;72.3175356655524
313.708235914428;72.7870258422398
313.729854141856;73.2586261556875
313.751472369284;73.720136492278
313.773090596713;74.1451419490771
313.794708824141;74.5044151218391
313.81632705157;74.7913942706414
313.837945278998;75.0140469831076
313.859563506426;75.1797761352047
313.881181733855;75.2917790914004
313.902799961283;75.3475065647223
313.924418188712;75.3409953171298
313.94603641614;75.2778234495098
313.967654643568;75.1441894007608
313.989272870997;74.965199107806
314.010891098425;74.7526271350826
314.032509325854;74.505147157119
314.054127553282;74.2307567057521
314.07574578071;73.95464462889
314.097364008139;73.6920739405293
314.118982235567;73.445853368173
314.140600462996;73.2215272317771
314.162218690424;73.0322755698615
314.183836917852;72.8815898530426
314.205455145281;72.7647373435365
314.227073372709;72.6788908665702
314.248691600138;72.6260973621626
314.270309827566;72.6049708963474
314.291928054994;72.6128816677799
314.313546282423;72.6530558131171
314.335164509851;72.7242099733796
314.35678273728;72.8183655199753
314.378400964708;72.9304939420622
314.400019192136;73.0552155469443
314.421637419565;73.1925113525706
314.443255646993;73.348600891328
314.464873874422;73.5179981861081
314.48649210185;73.6617378610996
314.508110329278;73.7652508141308
314.529728556707;73.8343888744515
314.551346784135;73.8707786206114
314.572965011564;73.8780391374707
314.594583238992;73.8556487369089
314.61620146642;73.7971284734406
314.637819693849;73.7007691382682
314.659437921277;73.5855589550452
314.681056148706;73.4667293974888
314.702674376134;73.3397947850898
314.724292603562;73.1912206450099
314.745910830991;73.0098085409978
314.767529058419;72.8007700844759
314.789147285848;72.5740831653459
314.810765513276;72.3374446326568
314.832383740704;72.0840737809868
314.854001968133;71.8050189305971
314.875620195561;71.5231192195114
314.89723842299;71.2449148943097
314.918856650418;70.9646269404659
314.940474877847;70.6925361800702
314.962093105275;70.4414027386063
314.983711332703;70.2170717796917
315.005329560132;70.0221071924404
315.02694778756;69.8533279815727
315.048566014988;69.708602672188
315.070184242417;69.5819923491368
315.091802469845;69.4606549776583
315.113420697274;69.3334054603406
315.135038924702;69.1978180492506
315.15665715213;69.0666794460318
315.178275379559;68.9456879582325
315.199893606987;68.824109140547
315.221511834416;68.6934188060861
315.243130061844;68.5561201359715
315.264748289273;68.4242917158523
315.286366516701;68.302927321709
315.307984744129;68.1942345742721
315.329602971558;68.1057789369847
315.351221198986;68.0428866906432
315.372839426414;68.0067011845608
315.394457653843;68.0069595018553
315.416075881271;68.0594969162299
315.4376941087;68.1548485948511
315.459312336128;68.2717154473293
315.480930563557;68.3993957486988
315.502548790985;68.5292658457276
315.524167018413;68.6571041924315
315.545785245842;68.7887560899893
315.56740347327;68.912900368207
315.589021700699;69.008911115607
315.610639928127;69.0640150480626
315.632258155555;69.074053857831
315.653876382984;69.038431872298
315.675494610412;68.9716196277528
315.697112837841;68.8861006168377
315.718731065269;68.7841011974407
315.740349292697;68.668055421772
315.761967520126;68.5542513902417
315.783585747554;68.4606826939125
315.805203974983;68.3918691987099
315.826822202411;68.3406998601016
315.848440429839;68.3018037552319
315.870058657268;68.2853929670368
315.891676884696;68.3016656156743
315.913295112125;68.3480814130297
315.934913339553;68.4175628624983
315.956531566981;68.5161048981842
315.97814979441;68.6323032986446
315.999768021838;68.7432835136367
316.021386249267;68.840649328292
316.043004476695;68.924862121065
316.064622704123;68.9869273363658
316.086240931552;69.0137399514401
316.10785915898;68.9967868210939
316.129477386409;68.9343756024084
316.151095613837;68.8279948512583
316.172713841265;68.678933550608
316.194332068694;68.4920266455679
316.215950296122;68.2767225957357
316.237568523551;68.0436442736996
316.259186750979;67.800079880237
316.280804978407;67.5473959692914
316.302423205836;67.2765191580067
316.324041433264;66.9997770724804
316.345659660693;66.7264499211326
316.367277888121;66.4491180644695
316.388896115549;66.1571487583989
316.410514342978;65.8630506294127
316.432132570406;65.573733794679
316.453750797835;65.2790112140886
316.475369025263;64.9663132783365
316.496987252691;64.6336699296235
316.51860548012;64.2822982654656
316.540223707548;63.9047692752791
316.561841934977;63.4896232648409
316.583460162405;63.0423879142104
316.605078389833;62.5822944848856
316.626696617262;62.1295986012109
316.64831484469;61.703257898561
316.669933072119;61.2973063926771
316.691551299547;60.9095547736052
316.713169526975;60.5569783740024
316.734787754404;60.2508913216427
316.756405981832;60.0000198606761
316.778024209261;59.8136605932772
316.799642436689;59.6908036491168
316.821260664117;59.6209329950626
316.842878891546;59.599879065834
316.864497118974;59.6334873431663
316.886115346403;59.7180359896823
316.907733573831;59.8455954945213
316.929351801259;60.002944218455
316.950970028688;60.1781074322865
316.972588256116;60.3670901242998
316.994206483545;60.5669124814113
317.015824710973;60.7635119041302
317.037442938401;60.9498042695992
317.05906116583;61.1286888625615
317.080679393258;61.3015591081143
317.102297620687;61.4600063359294
317.123915848115;61.6005817872959
317.145534075543;61.7330130839849
317.167152302972;61.8637177465989
317.1887705304;61.9962455935366
317.210388757829;62.1354824233012
317.232006985257;62.2825314353236
317.253625212685;62.4437993068709
317.275243440114;62.6325303874467
317.296861667542;62.8459350100479
317.318479894971;63.0753168947621
317.340098122399;63.3083987524438
317.361716349827;63.5256136234729
317.383334577256;63.7287796157735
317.404952804684;63.9125488091939
317.426571032113;64.0545452347225
317.448189259541;64.137069145277
317.469807486969;64.161515212837
317.491425714398;64.1355148455326
317.513043941826;64.0619779621441
317.534662169255;63.9444083561281
317.556280396683;63.783088625486
317.577898624111;63.5826811346409
317.59951685154;63.3623541248315
317.621135078968;63.1300898713571
317.642753306397;62.8916395421285
317.664371533825;62.6505323277088
317.685989761254;62.4115041437012
317.707607988682;62.1760536016665
317.72922621611;61.9557933738479
317.750844443539;61.7751151233608
317.772462670967;61.6438114898807
317.794080898395;61.5556296736303
317.815699125824;61.5176416078569
317.837317353252;61.5228199004398
317.858935580681;61.5586164328816
317.880553808109;61.6248997974058
317.902172035537;61.7264974035177
317.923790262966;61.8610876314412
317.945408490394;62.0114548642666
317.967026717823;62.1683499718148
317.988644945251;62.3264099271695
318.01026317268;62.4880251126848
318.031881400108;62.657691933711
318.053499627536;62.8276058642512
318.075117854965;62.9880727442867
318.096736082393;63.1356230559664
318.118354309821;63.2711147976297
318.13997253725;63.3989729458
318.161590764678;63.5231555540983
318.183208992107;63.6409262682645
318.204827219535;63.7509850517565
318.226445446964;63.8572193325694
318.248063674392;63.9576813376907
318.26968190182;64.0534850438693
318.291300129249;64.1471954384861
318.312918356677;64.2334988377569
318.334536584106;64.3049564311655
318.356154811534;64.3651078073422
318.377773038962;64.4108542307738
318.399391266391;64.4377107515895
318.421009493819;64.4383947129571
318.442627721248;64.4116589485475
318.464245948676;64.3589627223666
318.485864176104;64.2787892279358
318.507482403533;64.1702428964322
318.529100630961;64.032162167843
318.55071885839;63.8604160670671
318.572337085818;63.6496735227424
318.593955313246;63.4063490783781
318.615573540675;63.1448395000132
318.637191768103;62.8794738682031
318.658809995532;62.6150281275555
318.68042822296;62.3491611871404
318.702046450388;62.0758348964699
318.723664677817;61.7885558973073
318.745282905245;61.4978886286185
318.766901132674;61.2203160251509
318.788519360102;60.9438761082069
318.81013758753;60.649163892408
318.831755814959;60.3249430200178
318.853374042387;59.9768061277439
318.874992269816;59.6131629511392
318.896610497244;59.230168929315
318.918228724672;58.8383614288922
318.939846952101;58.4507268203692
318.961465179529;58.0673629298404
318.983083406958;57.6906048026944
319.004701634386;57.3322474959259
319.026319861814;56.9973397508603
319.047938089243;56.6718435693161
319.069556316671;56.3561825807409
319.0911745441;56.0704211577258
319.112792771528;55.8144276844328
319.134410998956;55.5742855854524
319.156029226385;55.3430554253909
319.177647453813;55.1227606586205
319.199265681242;54.9098523204284
319.22088390867;54.7020041257658
319.242502136098;54.5157540270116
319.264120363527;54.3597474793386
319.285738590955;54.2305943106082
319.307356818384;54.1202201426646
319.328975045812;54.0272190006055
319.35059327324;53.9578960860183
319.372211500669;53.9139824401114
319.393829728097;53.8941288007263
319.415447955526;53.9022844689413
319.437066182954;53.9414936107694
319.458684410382;53.9870556826557
319.480302637811;54.0268727074126
319.501920865239;54.0482659896091
319.523539092668;54.0522205300839
319.545157320096;54.0517886051063
319.566775547524;54.0557353536803
319.588393774953;54.0532100757174
319.610012002381;54.0294213890888
319.63163022981;53.9824496739982
319.653248457238;53.9252646267199
319.674866684666;53.8743909934216
319.696484912095;53.8451006256468
319.718103139523;53.8432224847743
319.739721366952;53.8667837631489
319.76133959438;53.9142111803628
319.782957821808;53.9876639193328
319.804576049237;54.0853982126696
319.826194276665;54.2000597527148
319.847812504094;54.3192576760357
319.869430731522;54.4293928509072
319.89104895895;54.5159817381834
319.912667186379;54.5647472376644
319.934285413807;54.5742097291225
319.955903641236;54.5519542563631
319.977521868664;54.5087449600144
319.999140096092;54.4489320250493
320.020758323521;54.3728368528688
320.042376550949;54.2904066694003
320.063994778378;54.2087090720011
320.085613005806;54.1329357286565
320.107231233234;54.0688694307624
320.128849460663;54.0168902796734
320.150467688091;53.9682600989223
320.17208591552;53.9037694400599
320.193704142948;53.8173161521045
320.215322370377;53.717900107142
320.236940597805;53.6082700388972
320.258558825233;53.4831196207043
320.280177052662;53.3413516439695
320.30179528009;53.1887532022199
320.323413507518;53.0320633485159
320.345031734947;52.8838993363738
320.366649962375;52.7568781544274
320.388268189804;52.6551317586162
320.409886417232;52.577314864199
320.43150464466;52.5217172164978
320.453122872089;52.4922574630913
320.474741099517;52.4837256675401
320.496359326946;52.4804046756749
320.517977554374;52.466799316002
320.539595781803;52.431455471133
320.561214009231;52.3672692638747
320.582832236659;52.2706964770197
320.604450464088;52.1461009390316
320.626068691516;52.0094402239519
320.647686918944;51.872344769805
320.669305146373;51.7346873558208
320.690923373801;51.6021624284396
320.71254160123;51.493943679764
320.734159828658;51.4363485650323
320.755778056087;51.444069725707
320.777396283515;51.5153563773851
320.799014510943;51.6483505788998
320.820632738372;51.8479499741037
320.8422509658;52.1073654796642
320.863869193229;52.4205988551615
320.885487420657;52.78133954033
320.907105648085;53.1627037221879
320.928723875514;53.5403471017774
320.950342102942;53.9090665913722
320.971960330371;54.2690892031644
320.993578557799;54.6207350537419
321.015196785227;54.9588654654558
321.036815012656;55.2742480783555
321.058433240084;55.5592574103741
321.080051467513;55.8157003080028
321.101669694941;56.0488000677226
321.123287922369;56.2524130468448
321.144906149798;56.4130621077398
321.166524377226;56.5347686308833
321.188142604655;56.6262406623413
321.209760832083;56.6891658540509
321.231379059511;56.7160198375712
321.25299728694;56.7031870216436
321.274615514368;56.6630866981427
321.296233741797;56.6055200796355
321.317851969225;56.5344855405699
321.339470196653;56.4512488020955
321.361088424082;56.3533007544775
321.38270665151;56.240460488901
321.404324878939;56.1209013035289
321.425943106367;55.9998160467887
321.447561333795;55.8794017874771
321.469179561224;55.758831477529
321.490797788652;55.6283089510434
321.512416016081;55.4733734451358
321.534034243509;55.286836199161
321.555652470937;55.0780073420594
321.577270698366;54.8579184924184
321.598888925794;54.6227178388121
321.620507153223;54.3590395854273
321.642125380651;54.0656628173364
321.663743608079;53.7400141555756
321.685361835508;53.3806102442264
321.706980062936;52.9869290972266
321.728598290365;52.5465187820049
321.750216517793;52.0426464712366
321.771834745221;51.4762952819652
321.79345297265;50.8716991082154
321.815071200078;50.2330231190392
321.836689427507;49.5415513646914
321.858307654935;48.7926375531771
321.879925882363;48.0293199986687
321.901544109792;47.3073003973917
321.92316233722;46.6506216813026
321.944780564649;46.0631159114372
321.966398792077;45.5592608414767
321.988017019505;45.165688529463
322.009635246934;44.8963636355151
322.031253474362;44.7358772417177
322.052871701791;44.6823234776948
322.074489929219;44.74870697004
322.096108156647;44.9237712708252
322.117726384076;45.1817292936135
322.139344611504;45.5001271007292
322.160962838933;45.8607958495164
322.182581066361;46.2495003676476
322.204199293789;46.6542394816168
322.225817521218;47.0681756878566
322.247435748646;47.4904140546431
322.269053976075;47.931142553578
322.290672203503;48.4020228621303
322.312290430931;48.8902959768417
322.33390865836;49.3809312197156
322.355526885788;49.8694181744665
322.377145113217;50.353342508862
322.398763340645;50.8351990871885
322.420381568073;51.3068191691884
322.441999795502;51.746073409229
322.46361802293;52.1469442112497
322.485236250359;52.5042547204716
322.506854477787;52.8097060339438
322.528472705215;53.0666752020201
322.550090932644;53.2713335765472
322.571709160072;53.4092127271032
322.593327387501;53.4748952295089
322.614945614929;53.4785144527868
322.636563842357;53.4194314920044
322.658182069786;53.2931218759762
322.679800297214;53.1183135628389
322.701418524643;52.902270737287
322.723036752071;52.6410778382371
322.744654979499;52.3388800146576
322.766273206928;51.9986650984991
322.787891434356;51.6138310549497
322.809509661785;51.1893362758326
322.831127889213;50.750080579975
322.852746116641;50.3046601284649
322.87436434407;49.843621256548
322.895982571498;49.374841038368
322.917600798927;48.9314062903082
322.939219026355;48.5306968774952
322.960837253784;48.1700535578237
322.982455481212;47.8430673419347
323.00407370864;47.5404568128714
323.025691936069;47.265457451384
323.047310163497;47.0398896714973
323.068928390925;46.878175788369
323.090546618354;46.7682403184206
323.112164845782;46.6934803448352
323.133783073211;46.6463745051754
323.155401300639;46.6287349879365
323.177019528067;46.647224206749
323.198637755496;46.6877426192177
323.220255982924;46.7434897238168
323.241874210353;46.8172832093337
323.263492437781;46.8932485227537
323.28511066521;46.9423675509846
323.306728892638;46.9537945072288
323.328347120066;46.9272200515785
323.349965347495;46.8575399144605
323.371583574923;46.730816067508
323.393201802352;46.5313883771287
323.41482002978;46.2580151015486
323.436438257208;45.9263658550887
323.458056484637;45.5321916803988
323.479674712065;45.0738329310742
323.501292939494;44.5737813434641
323.522911166922;44.0677429760019
323.54452939435;43.5704196147476
323.566147621779;43.0818516385978
323.587765849207;42.6023561530326
323.609384076636;42.1397855778251
323.631002304064;41.7112519969427
323.652620531492;41.3318973116785
323.674238758921;41.0095711541581
323.695856986349;40.7470426517782
323.717475213778;40.5393320205385
323.739093441206;40.3734414244853
323.760711668634;40.2487360308599
323.782329896063;40.1552549749669
323.803948123491;40.0866926978029
323.82556635092;40.0370726982455
323.847184578348;39.9926235502557
323.868802805776;39.9592492829149
323.890421033205;39.9395819218197
323.912039260633;39.9187396070964
323.933657488062;39.8931558375904
323.95527571549;39.862139733652
323.976893942918;39.8269153460662
323.998512170347;39.7831197708997
324.020130397775;39.7187578060382
324.041748625204;39.6267475739866
324.063366852632;39.5091765656721
324.08498508006;39.3557731371264
324.106603307489;39.1390648414682
324.128221534917;38.8559147821369
324.149839762346;38.5168331866483
324.171457989774;38.1324999416229
324.193076217202;37.7140737664418
324.214694444631;37.261706835664
324.236312672059;36.7739958030347
324.257930899488;36.2622231084091
324.279549126916;35.752773190277
324.301167354344;35.2632818189978
324.322785581773;34.7973684846462
324.344403809201;34.3625613042592
324.36602203663;33.9833065840458
324.387640264058;33.6600263583859
324.409258491486;33.3945857626892
324.430876718915;33.1856832907704
324.452494946343;33.0323150009404
324.474113173772;32.9408965514416
324.4957314012;32.8995922972253
324.517349628628;32.9194703020516
324.538967856057;32.9987289707987
324.560586083485;33.1204559436513
324.582204310914;33.2640179839689
324.603822538342;33.428887707312
324.62544076577;33.6172238485586
324.647058993199;33.8192405585293
324.668677220627;34.02248816381
324.690295448056;34.2182316617586
324.711913675484;34.4007577383056
324.733531902912;34.5589623459743
324.755150130341;34.6808186257601
324.776768357769;34.7576016570848
