Name;ESR_BC_1_Natural_Z_gon_0dg_result

Recipe
Accumulations;5;Number of accumulations
RetryCount;0;Number of retries on error
AbortOnError;True;Abort on error
EnableQFactorMeasurement;False;Enable/Disable q-Factor measurement
Bfrom;313;B from
Bto;363;B to
SweepTime;60;Sweep time
Modulation;0.2;Modulation
ModulationFreq;100;Modulation
BHoldEnabled;False;B hold enabled
BHold;0;B hold
MicrowavePower;2;Microwave power
MarkerEnabled;False;
MarkerStartField;0;
MarkerEndField;0;
Mode;;
KineticGFact;0;
KineticTotalTransientTime;0;
KineticTimeResolution;0;
TempFrom;5;
TempUseSlope;False;
TempTo;5;
TempdT;1;
TempSetupTime;0;
GonFrom;0;
GonTo;180;
GonSteps;20;
XRayEnabled;False;
XRayTime;3;
XRayVoltage;40;
XRayCurrent;0.5;
UVEnabled;False;
UVIntensity;0;
UVTime;0;
UVLeadTime;0;
UVWavelength;0;
PowSweepFrom;1;
PowSweepTo;5;
PowSweepSteps;5;
AmpModSweepFrom;0;
AmpModSweepTo;1;
AmpModSweepSteps;10;
ExtTriggerEnabled;False;
ExtTrigLeadTime;0;
ExtTrigOnTime;5;

Meas
BField [mT];MW_Absorption []
313.012761230469;84.3044106419183
313.034382216958;84.4897910622794
313.056003203448;84.7330244578428
313.077624189937;85.0227105897219
313.099245176427;85.3465819177298
313.120866162916;85.6991959268068
313.142487149406;86.0814240240633
313.164108135895;86.4898169051519
313.185729122385;86.9026079628273
313.207350108874;87.3012106756343
313.228971095364;87.688984213641
313.250592081853;88.0801475491985
313.272213068343;88.465345564907
313.293834054832;88.8189803674225
313.315455041322;89.1579575263187
313.337076027811;89.4893130108989
313.358697014301;89.7847207295804
313.38031800079;90.0442059455432
313.40193898728;90.2745134942603
313.423559973769;90.483651694992
313.445180960259;90.6845051120868
313.466801946748;90.8743663050167
313.488422933238;91.0354028802082
313.510043919727;91.1645186892952
313.531664906217;91.2602044798159
313.553285892706;91.3150886825736
313.574906879196;91.3357508276507
313.596527865685;91.3192071728403
313.618148852175;91.2638277794162
313.639769838664;91.1743160183525
313.661390825154;91.0574204962795
313.683011811643;90.9214006426376
313.704632798133;90.7719283983572
313.726253784622;90.6071554075092
313.747874771112;90.4190050815044
313.769495757601;90.2054619701425
313.791116744091;89.9837612598736
313.81273773058;89.7586087766347
313.83435871707;89.541853606716
313.855979703559;89.336780590593
313.877600690049;89.1328714625888
313.899221676538;88.9222094718314
313.920842663028;88.705000463429
313.942463649517;88.4882307630985
313.964084636007;88.280087423832
313.985705622496;88.0891466003357
314.007326608986;87.9368806722488
314.028947595475;87.8363124870971
314.050568581965;87.7805813248314
314.072189568454;87.7662957629742
314.093810554944;87.8036433526662
314.115431541433;87.8939660723086
314.137052527922;88.0231598746714
314.158673514412;88.1775835427326
314.180294500901;88.3520199860151
314.201915487391;88.5407726809816
314.22353647388;88.7261021313366
314.24515746037;88.8906968060823
314.266778446859;89.0370090151222
314.288399433349;89.1706468427603
314.310020419838;89.2930355818537
314.331641406328;89.3982447116783
314.353262392817;89.483838417136
314.374883379307;89.5513226400155
314.396504365796;89.6029034758066
314.418125352286;89.6402146891763
314.439746338775;89.666504443875
314.461367325265;89.6862680964122
314.482988311754;89.7013142600798
314.504609298244;89.7097788147278
314.526230284733;89.7075298356659
314.547851271223;89.6909158994164
314.569472257712;89.660224398745
314.591093244202;89.6129149941498
314.612714230691;89.5426847158849
314.634335217181;89.4482471098194
314.65595620367;89.3444492087189
314.67757719016;89.2474245785797
314.699198176649;89.1632368157341
314.720819163139;89.0940220323534
314.742440149628;89.0375293626578
314.764061136118;88.9906048744789
314.785682122607;88.9614431495436
314.807303109097;88.9543356163705
314.828924095586;88.9462564130986
314.850545082076;88.9306311065913
314.872166068565;88.9173384221033
314.893787055055;88.9242223193695
314.915408041544;88.9523743642422
314.937029028034;88.9888127551919
314.958650014523;89.0381298130373
314.980271001013;89.1038174736842
315.001891987502;89.1943918675681
315.023512973992;89.3197498849436
315.045133960481;89.4720529716093
315.066754946971;89.6385255945733
315.08837593346;89.8150743563539
315.10999691995;89.9997706707614
315.131617906439;90.1914243715642
315.153238892929;90.3946221665093
315.174859879418;90.597663718601
315.196480865908;90.7725890146104
315.218101852397;90.9124136623798
315.239722838887;91.0225759055894
315.261343825376;91.1117610836741
315.282964811866;91.1865281054967
315.304585798355;91.2346361152828
315.326206784845;91.2405965084222
315.347827771334;91.2067209182155
315.369448757824;91.1424556278231
315.391069744313;91.0525472149635
315.412690730803;90.938622434221
315.434311717292;90.8025162555633
315.455932703782;90.639562155136
315.477553690271;90.4418751806193
315.499174676761;90.200294074473
315.52079566325;89.9157525156715
315.54241664974;89.5989189459582
315.564037636229;89.2614563826878
315.585658622719;88.9063340742932
315.607279609208;88.5299754192254
315.628900595698;88.1339318297401
315.650521582187;87.7342789401709
315.672142568677;87.3448798728366
315.693763555166;86.9893168188111
315.715384541656;86.6694701317144
315.737005528145;86.3705275825626
315.758626514635;86.0886389985005
315.780247501124;85.8267835378109
315.801868487614;85.5893428154478
315.823489474103;85.3759891726035
315.845110460593;85.186637691682
315.866731447082;85.0118593083153
315.888352433572;84.8341276916612
315.909973420061;84.648728378074
315.931594406551;84.462904752483
315.95321539304;84.2870538294893
315.97483637953;84.1326365822088
315.996457366019;83.9939221173859
316.018078352509;83.8740688304032
316.039699338998;83.7892334000264
316.061320325487;83.7439776821806
316.082941311977;83.7342325548252
316.104562298466;83.7556025116002
316.126183284956;83.8049851094846
316.147804271445;83.8868156028054
316.169425257935;84.005818182586
316.191046244424;84.1567791059604
316.212667230914;84.3320562659565
316.234288217403;84.5176339365031
316.255909203893;84.7044515558562
316.277530190382;84.9019176822883
316.299151176872;85.1100539471998
316.320772163361;85.3126479007044
316.342393149851;85.4995388181349
316.36401413634;85.6724764368454
316.38563512283;85.8384991695084
316.407256109319;85.9931478508682
316.428877095809;86.1245160173119
316.450498082298;86.2392375101611
316.472119068788;86.3520437194219
316.493740055277;86.4817101015104
316.515361041767;86.6430857963434
316.536982028256;86.8356147621573
316.558603014746;87.0283951528216
316.580224001235;87.2000424940059
316.601844987725;87.3511313874133
316.623465974214;87.4996173401282
316.645086960704;87.6570546912287
316.666707947193;87.8078967721183
316.688328933683;87.9262003402678
316.709949920172;88.0074597515012
316.731570906662;88.0556086110219
316.753191893151;88.0701668206342
316.774812879641;88.0528940279657
316.79643386613;88.010714978778
316.81805485262;87.9496617068339
316.839675839109;87.8679160447466
316.861296825599;87.7593712443514
316.882917812088;87.6475279337738
316.904538798578;87.5608736743209
316.926159785067;87.5130786232118
316.947780771557;87.5085709636623
316.969401758046;87.5536089514363
316.991022744536;87.6481288372514
317.012643731025;87.7835491705725
317.034264717515;87.9540094288428
317.055885704004;88.1523212380659
317.077506690494;88.360468314871
317.099127676983;88.5653409263073
317.120748663473;88.7651706372822
317.142369649962;88.9526373316408
317.163990636452;89.1075376479839
317.185611622941;89.2146069770484
317.207232609431;89.2673516890409
317.22885359592;89.2550137524959
317.25047458241;89.1722533700751
317.272095568899;89.0297589264951
317.293716555389;88.8367395664044
317.315337541878;88.5940695108426
317.336958528368;88.2976977321917
317.358579514857;87.9501711710952
317.380200501347;87.5658955515766
317.401821487836;87.1677424500543
317.423442474326;86.7660904017944
317.445063460815;86.3502373150752
317.466684447305;85.9097752349471
317.488305433794;85.4445808792347
317.509926420284;84.962736093314
317.531547406773;84.4752687995586
317.553168393263;84.0045124654702
317.574789379752;83.5590671699719
317.596410366242;83.1360457260928
317.618031352731;82.7549279329832
317.639652339221;82.4149066018403
317.66127332571;82.0940701868551
317.6828943122;81.7715099290463
317.704515298689;81.4469236340153
317.726136285179;81.129063061563
317.747757271668;80.8245879537261
317.769378258158;80.5371060834669
317.790999244647;80.2573890028755
317.812620231137;79.9754937104605
317.834241217626;79.6939175390334
317.855862204116;79.4332645647506
317.877483190605;79.1990170840785
317.899104177095;78.9854633523962
317.920725163584;78.7952431965627
317.942346150073;78.6340014477918
317.963967136563;78.4952510088099
317.985588123052;78.3728831043055
318.007209109542;78.2631845016029
318.028830096031;78.1636312754718
318.050451082521;78.0712542862028
318.07207206901;77.9820753864449
318.0936930555;77.8901902386698
318.115314041989;77.7979351673524
318.136935028479;77.7043201613275
318.158556014968;77.6102821003584
318.180177001458;77.5084285332161
318.201797987947;77.3985541953286
318.223418974437;77.2830852413729
318.245039960926;77.1631120947337
318.266660947416;77.0409464844487
318.288281933905;76.9154330715924
318.309902920395;76.7867697293627
318.331523906884;76.661436902405
318.353144893374;76.5430310077276
318.374765879863;76.4355647794137
318.396386866353;76.3484059298352
318.418007852842;76.2818000474642
318.439628839332;76.240260983911
318.461249825821;76.2156245800998
318.482870812311;76.1993913701887
318.5044917988;76.2070238962438
318.52611278529;76.265495237473
318.547733771779;76.3951634902984
318.569354758269;76.5978644410134
318.590975744758;76.864438497823
318.612596731248;77.1804437164582
318.634217717737;77.5370343460335
318.655838704227;77.9318270928604
318.677459690716;78.3553506335397
318.699080677206;78.800697245664
318.720701663695;79.269810021536
318.742322650185;79.753082364707
318.763943636674;80.2256353357526
318.785564623164;80.6930484936322
318.807185609653;81.1438635400336
318.828806596143;81.5513060431643
318.850427582632;81.9087899625328
318.872048569122;82.2171922885555
318.893669555611;82.4823002186545
318.915290542101;82.7122511260698
318.93691152859;82.8968017532045
318.95853251508;83.0161372032691
318.980153501569;83.066366660254
319.001774488059;83.0443543213744
319.023395474548;82.9530891931207
319.045016461038;82.7958295823539
319.066637447527;82.570070034241
319.088258434017;82.2675116758011
319.109879420506;81.8880111299371
319.131500406996;81.464596225379
319.153121393485;81.0193526316847
319.174742379975;80.5582494923205
319.196363366464;80.093844590722
319.217984352954;79.6380544626612
319.239605339443;79.1882096571843
319.261226325933;78.7436332942037
319.282847312422;78.3073486679199
319.304468298912;77.8822984885401
319.326089285401;77.471267460357
319.347710271891;77.0729069533095
319.36933125838;76.677794994841
319.39095224487;76.2703298589624
319.412573231359;75.8526486558849
319.434194217849;75.4432721166681
319.455815204338;75.0454528771432
319.477436190828;74.653908032844
319.499057177317;74.2723341985761
319.520678163807;73.9121300779351
319.542299150296;73.5688120614451
319.563920136786;73.2372726262453
319.585541123275;72.931292873853
319.607162109765;72.6697523770193
319.628783096254;72.4550499482862
319.650404082744;72.2863367095579
319.672025069233;72.1665593546346
319.693646055723;72.0923931528931
319.715267042212;72.0547785579862
319.736888028702;72.0497682052481
319.758509015191;72.0840680042985
319.780130001681;72.1669996456894
319.80175098817;72.2876589113206
319.823371974659;72.4262683064249
319.844992961149;72.575669328
319.866613947638;72.7304595976822
319.888234934128;72.8822691820253
319.909855920617;73.0315309587933
319.931476907107;73.1791408539958
319.953097893596;73.3247963625754
319.974718880086;73.4627379083303
319.996339866575;73.5806286727198
320.017960853065;73.6726276793183
320.039581839554;73.7396888566192
320.061202826044;73.7778309892276
320.082823812533;73.787173235776
320.104444799023;73.7744638641822
320.126065785512;73.742231332418
320.147686772002;73.6773008116489
320.169307758491;73.5661925592682
320.190928744981;73.4184929446292
320.21254973147;73.2473439845678
320.23417071796;73.0564191306737
320.255791704449;72.8427756259894
320.277412690939;72.6029351388594
320.299033677428;72.3365625617093
320.320654663918;72.0510866656189
320.342275650407;71.765299394961
320.363896636897;71.4933015561064
320.385517623386;71.2434250734514
320.407138609876;71.0174878674749
320.428759596365;70.8187010159843
320.450380582855;70.6520472859019
320.472001569344;70.5290632750077
320.493622555834;70.4625037284256
320.515243542323;70.4455722181935
320.536864528813;70.4766706209016
320.558485515302;70.5639159807745
320.580106501792;70.7112803933058
320.601727488281;70.9017704852555
320.623348474771;71.1202748700382
320.64496946126;71.356091041863
320.66659044775;71.5927997212928
320.688211434239;71.824422103217
320.709832420729;72.0499278441226
320.731453407218;72.2549566592559
320.753074393708;72.4146446732945
320.774695380197;72.5186066732098
320.796316366687;72.558305328158
320.817937353176;72.5363523771884
320.839558339666;72.4490766468841
320.861179326155;72.2948794937164
320.882800312645;72.0847556253408
320.904421299134;71.8330439670634
320.926042285624;71.5365860673182
320.947663272113;71.1926886154982
320.969284258603;70.817256390156
320.990905245092;70.4319384106777
321.012526231582;70.0458619605857
321.034147218071;69.6668782071535
321.055768204561;69.3194817991846
321.07738919105;69.0002493685127
321.09901017754;68.6951238718805
321.120631164029;68.3912746859415
321.142252150519;68.0858600181149
321.163873137008;67.7796290160467
321.185494123498;67.4654974356627
321.207115109987;67.1388689057884
321.228736096477;66.7925076975321
321.250357082966;66.4182097246904
321.271978069456;66.015976096839
321.293599055945;65.5868823882952
321.315220042435;65.1312622530328
321.336841028924;64.640655765448
321.358462015414;64.1293152216949
321.380083001903;63.6323612987123
321.401703988393;63.1471688254079
321.423324974882;62.6560607946013
321.444945961372;62.1495507747443
321.466566947861;61.6353910772406
321.488187934351;61.1375102924024
321.50980892084;60.670184590767
321.53142990733;60.2330419973557
321.553050893819;59.8230953240101
321.574671880309;59.4264758577657
321.596292866798;59.0255025499782
321.617913853288;58.6126471707472
321.639534839777;58.1963386854869
321.661155826267;57.79851752244
321.682776812756;57.4330030151347
321.704397799246;57.1103262500111
321.726018785735;56.8386164204885
321.747639772224;56.6230445013448
321.769260758714;56.4562254683069
321.790881745203;56.3330930844914
321.812502731693;56.2937832791961
321.834123718182;56.3662510502117
321.855744704672;56.5251608165215
321.877365691161;56.7513034602824
321.898986677651;57.0468296813602
321.92060766414;57.4083971025861
321.94222865063;57.810142419467
321.963849637119;58.199811543248
321.985470623609;58.5452509478995
322.007091610098;58.858114558862
322.028712596588;59.1484843681683
322.050333583077;59.3994271772718
322.071954569567;59.5772786427122
322.093575556056;59.6640563419946
322.115196542546;59.6668493106221
322.136817529035;59.597265644584
322.158438515525;59.4607529790976
322.180059502014;59.2684941111178
322.201680488504;59.0384435076686
322.223301474993;58.780579372232
322.244922461483;58.4929328414322
322.266543447972;58.173363313978
322.288164434462;57.8323448133845
322.309785420951;57.4880347031738
322.331406407441;57.1563755357705
322.35302739393;56.8433230252724
322.37464838042;56.5453107491493
322.396269366909;56.2585816304253
322.417890353399;55.9810066189256
322.439511339888;55.7090355086352
322.461132326378;55.4327240801984
322.482753312867;55.1503583256486
322.504374299357;54.8696198441649
322.525995285846;54.6007196802848
322.547616272336;54.3534375235641
322.569237258825;54.1323996144901
322.590858245315;53.9347908473894
322.612479231804;53.7643347326451
322.634100218294;53.6350388343005
322.655721204783;53.5568027033459
322.677342191273;53.5318129837032
322.698963177762;53.5545297299574
322.720584164252;53.6260404224443
322.742205150741;53.7525013036186
322.763826137231;53.9319441933118
322.78544712372;54.1555547415713
322.80706811021;54.4088224011232
322.828689096699;54.6769959676282
322.850310083189;54.946182088096
322.871931069678;55.1978205047255
322.893552056168;55.4165902521606
322.915173042657;55.5884489529761
322.936794029147;55.6976588561665
322.958415015636;55.7321200527927
322.980036002126;55.6889130992758
323.001656988615;55.5637967749503
323.023277975105;55.3534563223549
323.044898961594;55.0672773600795
323.066519948084;54.7265470765952
323.088140934573;54.3589440162659
323.109761921063;53.9867413227866
323.131382907552;53.6306304354784
323.153003894042;53.309408625
323.174624880531;53.0342724260882
323.196245867021;52.8131600944884
323.21786685351;52.6505821424895
323.23948784;52.5487070392127
323.261108826489;52.5096243018397
323.282729812979;52.5320732014162
323.304350799468;52.6057102843801
323.325971785958;52.7118446198638
323.347592772447;52.829594224258
323.369213758937;52.9466048115258
323.390834745426;53.0546889329547
323.412455731916;53.1407169146164
323.434076718405;53.1888892823973
323.455697704895;53.1896617521347
323.477318691384;53.1421741488925
323.498939677874;53.0414195934643
323.520560664363;52.8799467147009
323.542181650853;52.6652228121873
323.563802637342;52.4194237457996
323.585423623832;52.1742071204251
323.607044610321;51.9346908981824
323.628665596811;51.6955538710519
323.6502865833;51.4516208882788
323.67190756979;51.2170563791413
323.693528556279;51.0243809291747
323.715149542769;50.8800684070525
323.736770529258;50.7783358143217
323.758391515748;50.7233145528647
323.780012502237;50.7137172702679
323.801633488727;50.7386555069003
323.823254475216;50.7813569226996
323.844875461706;50.8302864796517
323.866496448195;50.8827651249565
323.888117434684;50.9285405907867
323.909738421174;50.9445032940557
323.931359407663;50.9183654732481
323.952980394153;50.8433596579764
323.974601380642;50.7020761493638
323.996222367132;50.4881344587267
324.017843353621;50.2384572100276
324.039464340111;49.9613187935249
324.0610853266;49.6519890196046
324.08270631309;49.3103639900376
324.104327299579;48.943648666133
324.125948286069;48.5561346919621
324.147569272558;48.1471211908463
324.169190259048;47.7180925013831
324.190811245537;47.2828556652836
324.212432232027;46.8522441336903
324.234053218516;46.4261888138122
324.255674205006;46.0069987414894
324.277295191495;45.5895459551305
324.298916177985;45.1595021259587
324.320537164474;44.7317122976279
324.342158150964;44.3234289255834
324.363779137453;43.9530068443334
324.385400123943;43.6348225662865
324.407021110432;43.3686684103066
324.428642096922;43.1488175109928
324.450263083411;42.9924994642404
324.471884069901;42.9047289433382
324.49350505639;42.8775684042757
324.51512604288;42.9002162955249
324.536747029369;42.9593586714369
324.558368015859;43.034418880885
324.579989002348;43.1319906174447
324.601609988838;43.2520800540009
324.623230975327;43.3798301095598
324.644851961817;43.4863489697552
324.666472948306;43.5519068334559
324.688093934796;43.5726815470852
324.709714921285;43.5510075787741
324.731335907775;43.4888885660833
324.752956894264;43.3915439221465
324.774577880754;43.2599255479111
