Name;ESR_BC_1_Natural_Z_gon_80dg_result

Recipe
Accumulations;5;Number of accumulations
RetryCount;0;Number of retries on error
AbortOnError;True;Abort on error
EnableQFactorMeasurement;False;Enable/Disable q-Factor measurement
Bfrom;313;B from
Bto;363;B to
SweepTime;60;Sweep time
Modulation;0.2;Modulation
ModulationFreq;100;Modulation
BHoldEnabled;False;B hold enabled
BHold;0;B hold
MicrowavePower;2;Microwave power
MarkerEnabled;False;
MarkerStartField;0;
MarkerEndField;0;
Mode;;
KineticGFact;0;
KineticTotalTransientTime;0;
KineticTimeResolution;0;
TempFrom;5;
TempUseSlope;False;
TempTo;5;
TempdT;1;
TempSetupTime;0;
GonFrom;0;
GonTo;180;
GonSteps;20;
XRayEnabled;False;
XRayTime;3;
XRayVoltage;40;
XRayCurrent;0.5;
UVEnabled;False;
UVIntensity;0;
UVTime;0;
UVLeadTime;0;
UVWavelength;0;
PowSweepFrom;1;
PowSweepTo;5;
PowSweepSteps;5;
AmpModSweepFrom;0;
AmpModSweepTo;1;
AmpModSweepSteps;10;
ExtTriggerEnabled;False;
ExtTrigLeadTime;0;
ExtTrigOnTime;5;

Meas
BField [mT];MW_Absorption []
313.00921257019;71.6034280286759
313.030831453397;71.1555904227141
313.052450336603;70.642392847293
313.07406921981;70.1688686993623
313.095688103016;69.7409551609989
313.117306986222;69.3709432301313
313.138925869429;69.064750121007
313.160544752635;68.8214049235873
313.182163635842;68.6348739129959
313.203782519048;68.4919015581572
313.225401402254;68.3773251149319
313.247020285461;68.2835943912475
313.268639168667;68.2130012473728
313.290258051873;68.1702514797902
313.31187693508;68.1539338274985
313.333495818286;68.1646185182741
313.355114701493;68.2068234257415
313.376733584699;68.2791669587407
313.398352467905;68.3765233034194
313.419971351112;68.5010004962276
313.441590234318;68.6611672470087
313.463209117525;68.8525260121538
313.484828000731;69.0571405696314
313.506446883937;69.2702244802145
313.528065767144;69.4920466555923
313.54968465035;69.7150953012568
313.571303533557;69.9335673066352
313.592922416763;70.1464162756034
313.614541299969;70.3443181962312
313.636160183176;70.537208551619
313.657779066382;70.742614584565
313.679397949588;70.948925932083
313.701016832795;71.1348015147036
313.722635716001;71.3054106221927
313.744254599208;71.471364373133
313.765873482414;71.631890141578
313.78749236562;71.7872516211022
313.809111248827;71.9424549266244
313.830730132033;72.092339977405
313.85234901524;72.2288712505659
313.873967898446;72.3477490329756
313.895586781652;72.4421804336773
313.917205664859;72.5061019357048
313.938824548065;72.5338718732238
313.960443431272;72.5195671844861
313.982062314478;72.4740579388008
314.003681197684;72.4177188931149
314.025300080891;72.3403243437637
314.046918964097;72.2266586802439
314.068537847304;72.0913664226446
314.09015673051;71.9562593129956
314.111775613716;71.8190785785806
314.133394496923;71.6769957856109
314.155013380129;71.542257812154
314.176632263335;71.4306115451998
314.198251146542;71.3376520110261
314.219870029748;71.2564724731367
314.241488912955;71.1832292316431
314.263107796161;71.1259250779062
314.284726679367;71.1025966831153
314.306345562574;71.1016966311302
314.32796444578;71.0986274495181
314.349583328987;71.0865691190327
314.371202212193;71.0750293899596
314.392821095399;71.0782251818239
314.414439978606;71.0932538742951
314.436058861812;71.1094327397013
314.457677745018;71.1179854788427
314.479296628225;71.124685700803
314.500915511431;71.1326050573409
314.522534394638;71.1329986287361
314.544153277844;71.1226588516214
314.56577216105;71.1064281067605
314.587391044257;71.091251415803
314.609009927463;71.0789066162654
314.63062881067;71.0611033758186
314.652247693876;71.0461425329141
314.673866577082;71.0557476264223
314.695485460289;71.0971681494243
314.717104343495;71.1670446248359
314.738723226702;71.2599373006654
314.760342109908;71.3651035184316
314.781960993114;71.4827999586287
314.803579876321;71.6205055786243
314.825198759527;71.7746473279471
314.846817642734;71.9352920986475
314.86843652594;72.093799140403
314.890055409146;72.241143774209
314.911674292353;72.3792284898624
314.933293175559;72.5142055714223
314.954912058765;72.6456475563132
314.976530941972;72.773445174099
314.998149825178;72.8953462239874
315.019768708385;73.0049928336375
315.041387591591;73.0935741301841
315.063006474797;73.1632921680464
315.084625358004;73.2193670736539
315.10624424121;73.2577055214835
315.127863124417;73.2720644208001
315.149482007623;73.2607376317778
315.171100890829;73.2234048151483
315.192719774036;73.1551947197859
315.214338657242;73.0548937351605
315.235957540449;72.939340987656
315.257576423655;72.8142627585597
315.279195306861;72.6800667528224
315.300814190068;72.5282075206195
315.322433073274;72.3524990377693
315.34405195648;72.1542651824941
315.365670839687;71.9245166671642
315.387289722893;71.6503064973899
315.4089086061;71.3304871669912
315.430527489306;70.977537457152
315.452146372512;70.5983957734425
315.473765255719;70.1958744053113
315.495384138925;69.7688803289438
315.517003022132;69.3222636050015
315.538621905338;68.8663481040455
315.560240788544;68.4255218549654
315.581859671751;68.0139978805593
315.603478554957;67.631316168006
315.625097438164;67.2701285847978
315.64671632137;66.9425257703316
315.668335204576;66.6690946547728
315.689954087783;66.4531613740463
315.711572970989;66.2859970892284
315.733191854195;66.1581342674594
315.754810737402;66.0624534671705
315.776429620608;65.9870472569585
315.798048503815;65.9273880126655
315.819667387021;65.8956221731609
315.841286270227;65.890861142756
315.862905153434;65.8924595632701
315.88452403664;65.89351855798
315.906142919847;65.9014950778386
315.927761803053;65.920355450004
315.949380686259;65.9498723345177
315.970999569466;65.997807696395
315.992618452672;66.0636912996924
316.014237335879;66.1322950921731
316.035856219085;66.2009746562086
316.057475102291;66.2721573617729
316.079093985498;66.3503337095096
316.100712868704;66.4469771706536
316.122331751911;66.5655859482592
316.143950635117;66.6995873880124
316.165569518323;66.8407808441243
316.18718840153;66.9765211616545
316.208807284736;67.0997885206077
316.230426167942;67.2049621961429
316.252045051149;67.2900287045437
316.273663934355;67.3558467482514
316.295282817562;67.3926478481227
316.316901700768;67.3864183857719
316.338520583974;67.3259958017431
316.360139467181;67.2023392590571
316.381758350387;67.0124321675505
316.403377233594;66.7621342405027
316.4249961168;66.4466986563226
316.446615000006;66.0663688605209
316.468233883213;65.6388653658579
316.489852766419;65.1940584120079
316.511471649625;64.7433640371858
316.533090532832;64.2810322045638
316.554709416038;63.8190851040945
316.576328299245;63.3938058899789
316.597947182451;63.0335280200685
316.619566065657;62.7413708478495
316.641184948864;62.52321119926
316.66280383207;62.3906708276543
316.684422715277;62.3436391990884
316.706041598483;62.3721227387039
316.727660481689;62.4629243852282
316.749279364896;62.60497627668
316.770898248102;62.7958490581807
316.792517131309;63.017607313841
316.814136014515;63.2490355997711
316.835754897721;63.4701463359677
316.857373780928;63.6666308356369
316.878992664134;63.8347105019012
316.90061154734;63.9663053678093
316.922230430547;64.057256794065
316.943849313753;64.1108730162824
316.96546819696;64.1292527464267
316.987087080166;64.1130648616857
317.008705963372;64.067031441288
317.030324846579;64.0005421114022
317.051943729785;63.9200675653524
317.073562612992;63.8310071116373
317.095181496198;63.7367261559912
317.116800379404;63.6353419498314
317.138419262611;63.5229604867858
317.160038145817;63.3944526008237
317.181657029024;63.2470460186111
317.20327591223;63.0930759633309
317.224894795436;62.9443981387822
317.246513678643;62.8064952535402
317.268132561849;62.683967278452
317.289751445056;62.582398016367
317.311370328262;62.5079643309398
317.332989211468;62.4648200754936
317.354608094675;62.4578727106745
317.376226977881;62.4901162748783
317.397845861087;62.5714448201015
317.419464744294;62.7048220412223
317.4410836275;62.8848848572173
317.462702510707;63.0895203173603
317.484321393913;63.2961328221563
317.505940277119;63.5022632834224
317.527559160326;63.708467850608
317.549178043532;63.9036720858648
317.570796926739;64.0626814757372
317.592415809945;64.1795881702767
317.614034693151;64.2587202934612
317.635653576358;64.3026137329953
317.657272459564;64.3108802247403
317.678891342771;64.28180593065
317.700510225977;64.2092074148639
317.722129109183;64.0925331730007
317.74374799239;63.9440197179406
317.765366875596;63.773284197064
317.786985758802;63.5807226316714
317.808604642009;63.3630735387148
317.830223525215;63.139616799058
317.851842408422;62.9297021895716
317.873461291628;62.7351145503949
317.895080174834;62.5605434862763
317.916699058041;62.4212187214863
317.938317941247;62.3267446059069
317.959936824454;62.2683175494699
317.98155570766;62.2419868526561
318.003174590866;62.2514471686664
318.024793474073;62.2915013754162
318.046412357279;62.3570684750851
318.068031240486;62.4476710779337
318.089650123692;62.554367424584
318.111269006898;62.6609621265979
318.132887890105;62.7699939440201
318.154506773311;62.8871075309007
318.176125656517;63.0111616068712
318.197744539724;63.1366329696455
318.21936342293;63.2687689180599
318.240982306137;63.413558506513
318.262601189343;63.5642641942376
318.284220072549;63.7206261418911
318.305838955756;63.8856247996129
318.327457838962;64.0589726203309
318.349076722169;64.2334775862408
318.370695605375;64.4075499010784
318.392314488581;64.5778768886665
318.413933371788;64.7400746652229
318.435552254994;64.895081473441
318.457171138201;65.039488687945
318.478790021407;65.1601840974951
318.500408904613;65.2459868809205
318.52202778782;65.2815890589031
318.543646671026;65.2602451552845
318.565265554233;65.1794306387906
318.586884437439;65.0471822423508
318.608503320645;64.8581949300347
318.630122203852;64.6027927161835
318.651741087058;64.2822123611039
318.673359970264;63.9041771567196
318.694978853471;63.4721440839959
318.716597736677;62.9848014428345
318.738216619884;62.4520037886012
318.75983550309;61.9109215538394
318.781454386296;61.3827506760617
318.803073269503;60.8618039379422
318.824692152709;60.3581133289276
318.846311035916;59.8904778132561
318.867929919122;59.4723356563681
318.889548802328;59.1060342945446
318.911167685535;58.7927217945535
318.932786568741;58.5384793121956
318.954405451947;58.3435942999744
318.976024335154;58.2060767686876
318.99764321836;58.1328376315125
319.019262101567;58.117872667336
319.040880984773;58.146142936358
319.062499867979;58.22225291871
319.084118751186;58.3463953845349
319.105737634392;58.5118050176569
319.127356517599;58.7192931094232
319.148975400805;58.9636936389262
319.170594284011;59.2348845557803
319.192213167218;59.5318596394514
319.213832050424;59.8560344975238
319.235450933631;60.2000011157833
319.257069816837;60.5418332111443
319.278688700043;60.8477001447822
319.30030758325;61.1346904796883
319.321926466456;61.4137722068846
319.343545349663;61.6548735985508
319.365164232869;61.8270985804918
319.386783116075;61.9450309774872
319.408401999282;62.025432826383
319.430020882488;62.0621025936677
319.451639765694;62.046748448006
319.473258648901;61.9725685617319
319.494877532107;61.8462986835631
319.516496415314;61.6836869475335
319.53811529852;61.5003393348534
319.559734181726;61.3059486357813
319.581353064933;61.1019182182848
319.602971948139;60.8916401607976
319.624590831346;60.6826715497715
319.646209714552;60.476141544097
319.667828597758;60.2663723994107
319.689447480965;60.0588695253356
319.711066364171;59.8682869567004
319.732685247378;59.6973511017742
319.754304130584;59.5400644183513
319.77592301379;59.3909107701795
319.797541896997;59.2479035193943
319.819160780203;59.1086557257777
319.840779663409;58.981079949131
319.862398546616;58.8744933810989
319.884017429822;58.7965288101412
319.905636313029;58.7486563531043
319.927255196235;58.728353975973
319.948874079441;58.7381837940612
319.970492962648;58.775606303419
319.992111845854;58.8296198614699
320.013730729061;58.8895326354497
320.035349612267;58.9450189714285
320.056968495473;58.9865600526198
320.07858737868;59.0095009405458
320.100206261886;59.0083025289587
320.121825145093;58.9748959485593
320.143444028299;58.903535223156
320.165062911505;58.7974607737397
320.186681794712;58.6686462631321
320.208300677918;58.5167997819321
320.229919561124;58.3362320237719
320.251538444331;58.1276889193209
320.273157327537;57.8972723947479
320.294776210744;57.6520217143419
320.31639509395;57.4041835399073
320.338013977156;57.1628918431708
320.359632860363;56.9189210879218
320.381251743569;56.6594809168651
320.402870626776;56.4064882629895
320.424489509982;56.191618672579
320.446108393188;56.0068402814589
320.467727276395;55.8288977182897
320.489346159601;55.6495038070748
320.510965042808;55.4743199431208
320.532583926014;55.3182477591043
320.55420280922;55.1940656655685
320.575821692427;55.1039780113924
320.597440575633;55.0468009575392
320.619059458839;55.021397677432
320.640678342046;55.0194780598368
320.662297225252;55.0263596280674
320.683916108459;55.0484923334349
320.705534991665;55.1215370878254
320.727153874871;55.250165038674
320.748772758078;55.4073963181957
320.770391641284;55.5696046578266
320.792010524491;55.7330863545895
320.813629407697;55.8956278265514
320.835248290903;56.0576859809525
320.85686717411;56.2277070678409
320.878486057316;56.4155509305717
320.900104940523;56.6226956272553
320.921723823729;56.8492530784059
320.943342706935;57.0999463914737
320.964961590142;57.3799412562365
320.986580473348;57.6955073493266
321.008199356554;58.0485128116524
321.029818239761;58.4295858400123
321.051437122967;58.8350869946074
321.073056006174;59.2700193370961
321.09467488938;59.7100405721733
321.116293772586;60.1141159840568
321.137912655793;60.4639314908495
321.159531538999;60.7583600771213
321.181150422206;60.996345769172
321.202769305412;61.1746866373376
321.224388188618;61.2827054136897
321.246007071825;61.2934240652881
321.267625955031;61.1933124864621
321.289244838238;61.0015307355905
321.310863721444;60.7269206939387
321.33248260465;60.3719274773051
321.354101487857;59.9608348907616
321.375720371063;59.529364834745
321.397339254269;59.0861803523325
321.418958137476;58.6250631691601
321.440577020682;58.1456892732649
321.462195903889;57.671374979557
321.483814787095;57.2259958511791
321.505433670301;56.8095357065557
321.527052553508;56.4235070285517
321.548671436714;56.0821873727123
321.570290319921;55.8028258218055
321.591909203127;55.5751957334711
321.613528086333;55.3906674073717
321.63514696954;55.2501480390881
321.656765852746;55.1411071801094
321.678384735953;55.0554232144353
321.700003619159;54.9996870112864
321.721622502365;54.9822476005715
321.743241385572;54.9859404774259
321.764860268778;54.9911664587725
321.786479151985;54.9653487212555
321.808098035191;54.8761619724308
321.829716918397;54.7129170836081
321.851335801604;54.4828965021187
321.87295468481;54.1952013758716
321.894573568016;53.8397612470965
321.916192451223;53.4061072683029
321.937811334429;52.8938494516518
321.959430217636;52.3154377193933
321.981049100842;51.6825786175954
322.002667984048;50.9971789357351
322.024286867255;50.2725589651997
322.045905750461;49.5548896941951
322.067524633668;48.883931181522
322.089143516874;48.2809946366293
322.11076240008;47.7168881956255
322.132381283287;47.1978058490526
322.154000166493;46.7261144496089
322.175619049699;46.3325366658864
322.197237932906;46.0177852922898
322.218856816112;45.7476228791905
322.240475699319;45.5192670858911
322.262094582525;45.3342323809956
322.283713465731;45.1804049312034
322.305332348938;45.0546962891982
322.326951232144;44.9603762326326
322.348570115351;44.891692732503
322.370188998557;44.8462528101569
322.391807881763;44.8318097488323
322.41342676497;44.8537854824757
322.435045648176;44.9039728846407
322.456664531383;44.9754674419477
322.478283414589;45.0693121103703
322.499902297795;45.1888239884643
322.521521181002;45.3336454620093
322.543140064208;45.4942598300307
322.564758947415;45.6706213474695
322.586377830621;45.8678564853021
322.607996713827;46.0717865666612
322.629615597034;46.2464418082801
322.65123448024;46.3924172594334
322.672853363446;46.5201229775307
322.694472246653;46.6307963850529
322.716091129859;46.7211062168992
322.737710013066;46.7797756138752
322.759328896272;46.8063214491469
322.780947779478;46.8143965270626
322.802566662685;46.8145098576336
322.824185545891;46.81024043235
322.845804429098;46.7947639760121
322.867423312304;46.7665863913164
322.88904219551;46.7253667552996
322.910661078717;46.6671776421909
322.932279961923;46.5776807160776
322.95389884513;46.4400783870513
322.975517728336;46.2639785554839
322.997136611542;46.058826237133
323.018755494749;45.8299930056193
323.040374377955;45.5778467693916
323.061993261161;45.3044541023435
323.083612144368;45.01444408106
323.105231027574;44.7139392510893
323.126849910781;44.4191414004398
323.148468793987;44.1617898266049
323.170087677193;43.9653807038157
323.1917065604;43.835706536168
323.213325443606;43.7784766572049
323.234944326813;43.8008992607056
323.256563210019;43.8861242012455
323.278182093225;44.0135665987224
323.299800976432;44.1766921218987
323.321419859638;44.3696410605562
323.343038742845;44.5780125629938
323.364657626051;44.7807749499179
323.386276509257;44.950080003087
323.407895392464;45.0676260442521
323.42951427567;45.1275696779014
323.451133158876;45.1216484865469
323.472752042083;45.0457556806162
323.494370925289;44.8977370296975
323.515989808496;44.678344489493
323.537608691702;44.396821245218
323.559227574908;44.0783719414514
323.580846458115;43.7447753305813
323.602465341321;43.4105837699394
323.624084224528;43.0935880769059
323.645703107734;42.8127175481718
323.66732199094;42.5835304935961
323.688940874147;42.4189641707514
323.710559757353;42.3221718222862
323.73217864056;42.2935856762099
323.753797523766;42.3307529944296
323.775416406972;42.4273302401874
323.797035290179;42.568467282019
323.818654173385;42.7382815537162
323.840273056592;42.9325255225014
323.861891939798;43.1485365014008
323.883510823004;43.3730816824344
323.905129706211;43.5845080232867
323.926748589417;43.779461246912
323.948367472623;43.9447771481848
323.96998635583;44.0723010873109
323.991605239036;44.165408801871
324.013224122243;44.2258115749391
324.034843005449;44.2398218725205
324.056461888655;44.1987157243336
324.078080771862;44.1080939534574
324.099699655068;43.9754748814484
324.121318538275;43.7962425944995
324.142937421481;43.5489847542119
324.164556304687;43.2420479924213
324.186175187894;42.8883082493501
324.2077940711;42.4889284294112
324.229412954307;42.0537239231096
324.251031837513;41.5682412026536
324.272650720719;41.0260090104593
324.294269603926;40.440022359067
324.315888487132;39.8307621925785
324.337507370338;39.2201371279649
324.359126253545;38.6240565401779
324.380745136751;38.0558648659588
324.402364019958;37.5236507332061
324.423982903164;37.0292644727939
324.44560178637;36.5668170276593
324.467220669577;36.1348102091536
324.488839552783;35.7502583252116
324.51045843599;35.4212164972056
324.532077319196;35.1450420687122
324.553696202402;34.9132700511149
324.575315085609;34.7244420332302
324.596933968815;34.5776815222337
324.618552852021;34.4684313688667
324.640171735228;34.3887049114223
324.661790618434;34.334988240547
324.683409501641;34.2965037660901
324.705028384847;34.2518841294624
324.726647268053;34.1890524123038
324.74826615126;34.1064307203637
324.769885034466;33.994317016534
