Name;ESR_BC_1_Natural_Z_gon_140dg_result

Recipe
Accumulations;5;Number of accumulations
RetryCount;0;Number of retries on error
AbortOnError;True;Abort on error
EnableQFactorMeasurement;False;Enable/Disable q-Factor measurement
Bfrom;313;B from
Bto;363;B to
SweepTime;60;Sweep time
Modulation;0.2;Modulation
ModulationFreq;100;Modulation
BHoldEnabled;False;B hold enabled
BHold;0;B hold
MicrowavePower;2;Microwave power
MarkerEnabled;False;
MarkerStartField;0;
MarkerEndField;0;
Mode;;
KineticGFact;0;
KineticTotalTransientTime;0;
KineticTimeResolution;0;
TempFrom;5;
TempUseSlope;False;
TempTo;5;
TempdT;1;
TempSetupTime;0;
GonFrom;0;
GonTo;180;
GonSteps;20;
XRayEnabled;False;
XRayTime;3;
XRayVoltage;40;
XRayCurrent;0.5;
UVEnabled;False;
UVIntensity;0;
UVTime;0;
UVLeadTime;0;
UVWavelength;0;
PowSweepFrom;1;
PowSweepTo;5;
PowSweepSteps;5;
AmpModSweepFrom;0;
AmpModSweepTo;1;
AmpModSweepSteps;10;
ExtTriggerEnabled;False;
ExtTrigLeadTime;0;
ExtTrigOnTime;5;

Meas
BField [mT];MW_Absorption []
313.013096923828;82.1856971181758
313.034715136929;81.5927321401848
313.056333350029;81.0666301415498
313.07795156313;80.6407631696015
313.099569776231;80.3244867628135
313.121187989331;80.0927550585443
313.142806202432;79.9334998157569
313.164424415532;79.8589950832139
313.186042628633;79.8683993731792
313.207660841733;79.9463773344583
313.229279054834;80.0669057504338
313.250897267935;80.2207520264245
313.272515481035;80.3856231990354
313.294133694136;80.5393085677755
313.315751907236;80.6749827740034
313.337370120337;80.7780759378849
313.358988333438;80.827693708589
313.380606546538;80.8196358032829
313.402224759639;80.7618125367787
313.423842972739;80.6505949396377
313.44546118584;80.4824251144782
313.467079398941;80.2703943768356
313.488697612041;80.0267707536694
313.510315825142;79.7590412471502
313.531934038242;79.4774794701091
313.553552251343;79.2021066748539
313.575170464443;78.9512405089921
313.596788677544;78.7406893790949
313.618406890645;78.5725391642968
313.640025103745;78.4522543436127
313.661643316846;78.3802510449462
313.683261529946;78.3458789242202
313.704879743047;78.3552988226035
313.726497956148;78.4039959697033
313.748116169248;78.4686044053986
313.769734382349;78.5349867597138
313.791352595449;78.5950902320376
313.81297080855;78.6420202682363
313.834589021651;78.6712393709172
313.856207234751;78.6777342125113
313.877825447852;78.6545213886034
313.899443660952;78.5909220496405
313.921061874053;78.475494934825
313.942680087154;78.320236285182
313.964298300254;78.1455959912514
313.985916513355;77.9632436375519
314.007534726455;77.7695804365071
314.029152939556;77.5641252797126
314.050771152656;77.3718650881945
314.072389365757;77.2205754934858
314.094007578858;77.1108157941761
314.115625791958;77.0414992903931
314.137244005059;77.0071557282832
314.158862218159;77.0020382536701
314.18048043126;77.0336656435892
314.202098644361;77.114743738137
314.223716857461;77.2478586347759
314.245335070562;77.4229326496877
314.266953283662;77.6230693902958
314.288571496763;77.8285268280174
314.310189709864;78.0358256458642
314.331807922964;78.2546080339159
314.353426136065;78.4910903370131
314.375044349165;78.7325355258543
314.396662562266;78.9671617031732
314.418280775367;79.189780520278
314.439898988467;79.3997527986065
314.461517201568;79.5898143459287
314.483135414668;79.7654159071167
314.504753627769;79.9398565672678
314.526371840869;80.1244531119133
314.54799005397;80.3156505736577
314.569608267071;80.5072239283349
314.591226480171;80.7104551174217
314.612844693272;80.9477301936731
314.634462906372;81.2357513050101
314.656081119473;81.556740036263
314.677699332574;81.8925906285889
314.699317545674;82.2360557335854
314.720935758775;82.5801360543798
314.742553971875;82.9213649612362
314.764172184976;83.25806305048
314.785790398077;83.5775795563655
314.807408611177;83.8555887574053
314.829026824278;84.0817412051741
314.850645037378;84.2601038830404
314.872263250479;84.3993268028931
314.893881463579;84.4963654525205
314.91549967668;84.5453031242017
314.937117889781;84.5468456510231
314.958736102881;84.5084874291989
314.980354315982;84.4449691811127
315.001972529082;84.3730344430136
315.023590742183;84.3060114732672
315.045208955284;84.2429675281282
315.066827168384;84.1664926467363
315.088445381485;84.0853686881968
315.110063594585;84.0082992650842
315.131681807686;83.9350435318379
315.153300020787;83.8612586012997
315.174918233887;83.7820153615158
315.196536446988;83.6896911677774
315.218154660088;83.5824713133834
315.239772873189;83.4508299432674
315.26139108629;83.2879974413807
315.28300929939;83.099505834379
315.304627512491;82.8873751366112
315.326245725591;82.6507628756538
315.347863938692;82.389090073104
315.369482151792;82.0960752319631
315.391100364893;81.7752983328612
315.412718577994;81.4342639963664
315.434336791094;81.0732621815659
315.455955004195;80.7072653244967
315.477573217295;80.347824151486
315.499191430396;79.9773545161386
315.520809643497;79.5867940434121
315.542427856597;79.2030691036447
315.564046069698;78.8553596437595
315.585664282798;78.5389087926923
315.607282495899;78.2462059776325
315.628900709;77.9819809055797
315.6505189221;77.7534926769434
315.672137135201;77.5618560445318
315.693755348301;77.3998272584902
315.715373561402;77.2626294793481
315.736991774502;77.1499618810598
315.758609987603;77.0660816927892
315.780228200704;77.0147316985743
315.801846413804;76.992729652703
315.823464626905;76.9954770524801
315.845082840005;77.0174706504092
315.866701053106;77.0521965524541
315.888319266207;77.0951208867311
315.909937479307;77.1445905328215
315.931555692408;77.1981638210625
315.953173905508;77.2467551222334
315.974792118609;77.2773570769416
315.99641033171;77.2899364213701
316.01802854481;77.2872547661824
316.039646757911;77.2621245735606
316.061264971011;77.2098304413045
316.082883184112;77.1319855624369
316.104501397213;77.0313340582737
316.126119610313;76.9139787467514
316.147737823414;76.7974420167755
316.169356036514;76.7008498684778
316.190974249615;76.6203745461515
316.212592462715;76.5467522574694
316.234210675816;76.4800751242464
316.255828888917;76.4211978412266
316.277447102017;76.3671813929483
316.299065315118;76.311149061802
316.320683528218;76.2485215267894
316.342301741319;76.1754906556406
316.36391995442;76.0932992468389
316.38553816752;76.0027795013071
316.407156380621;75.8963639601927
316.428774593721;75.7639234892125
316.450392806822;75.6191127100546
316.472011019923;75.4865885299296
316.493629233023;75.3807441879497
316.515247446124;75.3151101572277
316.536865659224;75.2829155120321
316.558483872325;75.2763390197126
316.580102085425;75.2878801934113
316.601720298526;75.3066927595781
316.623338511627;75.321007941178
316.644956724727;75.321160254658
316.666574937828;75.3010192117431
316.688193150928;75.2513112169429
316.709811364029;75.1573167378981
316.73142957713;75.0090594241886
316.75304779023;74.8145878984874
316.774666003331;74.5845488582249
316.796284216431;74.3205833020946
316.817902429532;74.0271232703089
316.839520642633;73.7224336502133
316.861138855733;73.4233826755028
316.882757068834;73.1378492577889
316.904375281934;72.8747872300933
316.925993495035;72.658293402503
316.947611708136;72.4936118351664
316.969229921236;72.3731474911387
316.990848134337;72.3019296832542
317.012466347437;72.2839177096759
317.034084560538;72.3086494224603
317.055702773638;72.3666231822651
317.077320986739;72.4545491426065
317.09893919984;72.564737909052
317.12055741294;72.6840930881334
317.142175626041;72.8022236592117
317.163793839141;72.9168132304199
317.185412052242;73.0198049563013
317.207030265343;73.0965554098943
317.228648478443;73.1412885167539
317.250266691544;73.1439963594768
317.271884904644;73.1021708715114
317.293503117745;73.0310780708192
317.315121330846;72.9383623978848
317.336739543946;72.8244627554782
317.358357757047;72.7045187351417
317.379975970147;72.5961453813237
317.401594183248;72.5097644424655
317.423212396349;72.4498889517958
317.444830609449;72.4194640091534
317.46644882255;72.4185967886276
317.48806703565;72.4362059503033
317.509685248751;72.462366112399
317.531303461851;72.4837885519465
317.552921674952;72.483769296776
317.574539888053;72.4654810643088
317.596158101153;72.4396135042176
317.617776314254;72.4089276226717
317.639394527354;72.3717572180561
317.661012740455;72.3228480669926
317.682630953556;72.2475499253978
317.704249166656;72.1587895843359
317.725867379757;72.0961898825301
317.747485592857;72.0664130567527
317.769103805958;72.0612702694373
317.790722019059;72.076944686324
317.812340232159;72.1117688878251
317.83395844526;72.1522376553163
317.85557665836;72.1789822794991
317.877194871461;72.1830466085643
317.898813084561;72.1613699943526
317.920431297662;72.105889244432
317.942049510763;72.0002182899178
317.963667723863;71.8383772023131
317.985285936964;71.6302902156872
318.006904150064;71.3867676312832
318.028522363165;71.1159808360392
318.050140576266;70.8224236793947
318.071758789366;70.5120118003955
318.093377002467;70.2007904680589
318.114995215567;69.9113858172271
318.136613428668;69.6547387798825
318.158231641769;69.4362887183148
318.179849854869;69.2508651890314
318.20146806797;69.0978583319844
318.22308628107;68.9859614931924
318.244704494171;68.9168347277799
318.266322707272;68.8837323274903
318.287940920372;68.8816335193394
318.309559133473;68.9073447793343
318.331177346573;68.9598409872379
318.352795559674;69.0317620095822
318.374413772774;69.1053721284865
318.396031985875;69.1685586091011
318.417650198976;69.2155062499913
318.439268412076;69.240692701738
318.460886625177;69.2286995108679
318.482504838277;69.1711815585253
318.504123051378;69.0621382811868
318.525741264479;68.8961981858843
318.547359477579;68.6706933053441
318.56897769068;68.3843121276259
318.59059590378;68.0391724278187
318.612214116881;67.6629841886492
318.633832329982;67.2835039633571
318.655450543082;66.9019443358031
318.677068756183;66.509944719712
318.698686969283;66.106624100095
318.720305182384;65.7118660571176
318.741923395485;65.3678478906654
318.763541608585;65.0880434544703
318.785159821686;64.8628905555062
318.806778034786;64.6913958129969
318.828396247887;64.5774238473795
318.850014460988;64.5172446978991
318.871632674088;64.5079656619432
318.893250887189;64.5606262483268
318.914869100289;64.6671300876394
318.93648731339;64.8171419609529
318.95810552649;65.0073423130677
318.979723739591;65.2181421466535
319.001341952692;65.4144433052203
319.022960165792;65.5916340330861
319.044578378893;65.7514807965553
319.066196591993;65.8920929019452
319.087814805094;66.014100596731
319.109433018195;66.1125593024432
319.131051231295;66.1847284458294
319.152669444396;66.2336794666716
319.174287657496;66.2626976249832
319.195905870597;66.2736602148103
319.217524083698;66.268178638907
319.239142296798;66.2416025247116
319.260760509899;66.1947161728318
319.282378722999;66.1249780568992
319.3039969361;66.0259943416252
319.3256151492;65.897395970896
319.347233362301;65.736926416915
319.368851575402;65.5374624522656
319.390469788502;65.2950721084325
319.412088001603;65.0103305422284
319.433706214703;64.6776667917364
319.455324427804;64.2942185389355
319.476942640905;63.874281190965
319.498560854005;63.4337144320909
319.520179067106;62.9755223092674
319.541797280206;62.5064446805674
319.563415493307;62.0428931985344
319.585033706408;61.5944630871759
319.606651919508;61.1702087505358
319.628270132609;60.7758252863048
319.649888345709;60.4129718915111
319.67150655881;60.1023660468745
319.693124771911;59.8561637874094
319.714742985011;59.678250894663
319.736361198112;59.5732276929542
319.757979411212;59.5237275523235
319.779597624313;59.5120187244106
319.801215837413;59.5314528614984
319.822834050514;59.5721515512771
319.844452263615;59.6126603324197
319.866070476715;59.6339972508518
319.887688689816;59.6258134957473
319.909306902916;59.5769446103809
319.930925116017;59.4772728748127
319.952543329118;59.3252625894061
319.974161542218;59.1241644165076
319.995779755319;58.8785068207898
320.017397968419;58.5948656143064
320.03901618152;58.2822300186912
320.060634394621;57.9577404555522
320.082252607721;57.6424782896411
320.103870820822;57.3572864896581
320.125489033922;57.1074326620962
320.147107247023;56.8945690517657
320.168725460123;56.7306449922171
320.190343673224;56.621085932113
320.211961886325;56.5589146780646
320.233580099425;56.5332490217121
320.255198312526;56.5370657923838
320.276816525626;56.5683386822515
320.298434738727;56.6262383282148
320.320052951828;56.7068515118461
320.341671164928;56.8004745369383
320.363289378029;56.8973412168991
320.384907591129;56.9971431755192
320.40652580423;57.1023219355654
320.428144017331;57.2074286189264
320.449762230431;57.3031779339881
320.471380443532;57.3854440040975
320.492998656632;57.458776769419
320.514616869733;57.5226891856391
320.536235082834;57.5749730057267
320.557853295934;57.628634081224
320.579471509035;57.7007009445006
320.601089722135;57.8060662256442
320.622707935236;57.9458547139492
320.644326148336;58.1164532837344
320.665944361437;58.3228148387711
320.687562574538;58.5713804164035
320.709180787638;58.8612345039761
320.730799000739;59.1842536407361
320.752417213839;59.5401800052835
320.77403542694;59.9373525441756
320.795653640041;60.3765074813298
320.817271853141;60.8372916412142
320.838890066242;61.3009596915205
320.860508279342;61.7541891372026
320.882126492443;62.1784956155475
320.903744705544;62.5625814912506
320.925362918644;62.9156052527211
320.946981131745;63.2422098385287
320.968599344845;63.5195900130773
320.990217557946;63.7318668044247
321.011835771046;63.8805581565667
321.033453984147;63.9701957733049
321.055072197248;64.0015860548718
321.076690410348;63.9783080576977
321.098308623449;63.9130946095139
321.119926836549;63.8159056846191
321.14154504965;63.6919027429057
321.163163262751;63.5477870751377
321.184781475851;63.392727849153
321.206399688952;63.2318776669587
321.228017902052;63.0641508954652
321.249636115153;62.8846509634784
321.271254328254;62.6928941056264
321.292872541354;62.4933215285482
321.314490754455;62.2820144866224
321.336108967555;62.0535219866175
321.357727180656;61.8132763391922
321.379345393757;61.576385492629
321.400963606857;61.3444182103853
321.422581819958;61.1166665202358
321.444200033058;60.8970135215671
321.465818246159;60.6863140862343
321.487436459259;60.4834295103874
321.50905467236;60.2850939997363
321.530672885461;60.0834698141739
321.552291098561;59.8650342826279
321.573909311662;59.6196597122249
321.595527524762;59.3445574032485
321.617145737863;59.0367453930304
321.638763950964;58.6960736652709
321.660382164064;58.3204379644913
321.682000377165;57.9004090029159
321.703618590265;57.4453577280988
321.725236803366;56.9629628571685
321.746855016467;56.453193522585
321.768473229567;55.9316068922704
321.790091442668;55.4270458948106
321.811709655768;54.9503761653977
321.833327868869;54.5007755780155
321.85494608197;54.0870738743973
321.87656429507;53.7186612124762
321.898182508171;53.394323028324
321.919800721271;53.1147529617023
321.941418934372;52.8829064028861
321.963037147472;52.6900696270802
321.984655360573;52.5287137015437
322.006273573674;52.39237716743
322.027891786774;52.2720237415814
322.049509999875;52.1554391584711
322.071128212975;52.0417204857125
322.092746426076;51.9434870382361
322.114364639177;51.8652039039856
322.135982852277;51.8057657690104
322.157601065378;51.7566393196241
322.179219278478;51.7169491754642
322.200837491579;51.6934967814191
322.22245570468;51.6958742363584
322.24407391778;51.7314514303868
322.265692130881;51.804624447164
322.287310343981;51.9190912143524
322.308928557082;52.0713010225318
322.330546770182;52.2592822248175
322.352164983283;52.4745216542078
322.373783196384;52.707776011055
322.395401409484;52.9521365933964
322.417019622585;53.1953289509041
322.438637835685;53.4358676607033
322.460256048786;53.6828089364012
322.481874261887;53.9102200598376
322.503492474987;54.0853735104192
322.525110688088;54.2069574971764
322.546728901188;54.2770579297107
322.568347114289;54.2899383785239
322.58996532739;54.2430798574588
322.61158354049;54.1320641100303
322.633201753591;53.9560797223006
322.654819966691;53.7081582484985
322.676438179792;53.3941868372045
322.698056392893;53.0367959787365
322.719674605993;52.6729914836749
322.741292819094;52.3045391704412
322.762911032194;51.9294138121109
322.784529245295;51.558637872501
322.806147458395;51.2153340400995
322.827765671496;50.9115742535698
322.849383884597;50.6585973448147
322.871002097697;50.4635320285613
322.892620310798;50.320967714822
322.914238523898;50.2184721849298
322.935856736999;50.153133973746
322.9574749501;50.1191673522854
322.9790931632;50.108824208658
323.000711376301;50.117840122042
323.022329589401;50.1420428236536
323.043947802502;50.1729244558583
323.065566015603;50.2045146846748
323.087184228703;50.232997769666
323.108802441804;50.2583628045425
323.130420654904;50.2801163681059
323.152038868005;50.2959935682176
323.173657081105;50.3087240981267
323.195275294206;50.3174922618089
323.216893507307;50.3208695380379
323.238511720407;50.3139452013732
323.260129933508;50.2985038397352
323.281748146608;50.2780322157475
323.303366359709;50.2521326346767
323.32498457281;50.2135497273985
323.34660278591;50.1515418797289
323.368220999011;50.0628911217329
323.389839212111;49.9512189123583
323.411457425212;49.8219306765159
323.433075638313;49.6768731906393
323.454693851413;49.5105183554167
323.476312064514;49.3082440416358
323.497930277614;49.075116335664
323.519548490715;48.8460576618564
323.541166703816;48.6312113352558
323.562784916916;48.4291602538049
323.584403130017;48.2505327662574
323.606021343117;48.1072388831356
323.627639556218;47.9980519367606
323.649257769318;47.9189432066535
323.670875982419;47.8677169827809
323.69249419552;47.8380295885426
323.71411240862;47.8228457501814
323.735730621721;47.8098962603929
323.757348834821;47.7904740722736
323.778967047922;47.7608227427606
323.800585261023;47.7168956380989
323.822203474123;47.6446721234937
323.843821687224;47.5442535823247
323.865439900324;47.4168667590825
323.887058113425;47.2590467345029
323.908676326526;47.0715472483689
323.930294539626;46.8666406076271
323.951912752727;46.6542113468134
323.973530965827;46.4386603881307
323.995149178928;46.2274120461031
324.016767392029;46.0345220950018
324.038385605129;45.873736366314
324.06000381823;45.7528639391918
324.08162203133;45.6778077402239
324.103240244431;45.6488627772864
324.124858457531;45.6654053746783
324.146476670632;45.7315812940591
324.168094883733;45.850808260842
324.189713096833;46.0167000765611
324.211331309934;46.2188828596928
324.232949523034;46.444916572307
324.254567736135;46.6841219070377
324.276185949236;46.9398926050612
324.297804162336;47.2020550580862
324.319422375437;47.4464221941139
324.341040588537;47.6618293649229
324.362658801638;47.8452636801827
324.384277014739;47.9870881591564
324.405895227839;48.0718454181324
324.42751344094;48.0911291870993
324.44913165404;48.0470095246232
324.470749867141;47.9310506160486
324.492368080241;47.7373872231659
324.513986293342;47.4827230365107
324.535604506443;47.1788288131773
324.557222719543;46.8325599324419
324.578840932644;46.4589994879898
324.600459145744;46.0762143816438
324.622077358845;45.6938668497784
324.643695571946;45.327363436381
324.665313785046;45.0045735594041
324.686931998147;44.7334115550192
324.708550211247;44.5052070082799
324.730168424348;44.3105743693749
324.751786637449;44.1550952342576
