Name;ESR_BC_1_359s_Y_gon_0dg_2

Recipe
Accumulations;5;Number of accumulations
RetryCount;0;Number of retries on error
AbortOnError;True;Abort on error
EnableQFactorMeasurement;False;Enable/Disable q-Factor measurement
Bfrom;313;B from
Bto;363;B to
SweepTime;60;Sweep time
Modulation;0.2;Modulation
ModulationFreq;100;Modulation
BHoldEnabled;False;B hold enabled
BHold;0;B hold
MicrowavePower;2;Microwave power
MarkerEnabled;False;
MarkerStartField;0;
MarkerEndField;0;
Mode;;
KineticGFact;0;
KineticTotalTransientTime;0;
KineticTimeResolution;0;
TempFrom;5;
TempUseSlope;False;
TempTo;5;
TempdT;1;
TempSetupTime;0;
GonFrom;0;
GonTo;180;
GonSteps;20;
XRayEnabled;False;
XRayTime;3;
XRayVoltage;40;
XRayCurrent;0.5;
UVEnabled;False;
UVIntensity;0;
UVTime;0;
UVLeadTime;0;
UVWavelength;0;
PowSweepFrom;1;
PowSweepTo;5;
PowSweepSteps;5;
AmpModSweepFrom;0;
AmpModSweepTo;1;
AmpModSweepSteps;10;
ExtTriggerEnabled;False;
ExtTrigLeadTime;0;
ExtTrigOnTime;5;

Meas
BField [mT];MW_Absorption []
313.017220687866;186.942966974572
313.038835826001;187.109302194866
313.060450964135;187.22186149464
313.082066102269;187.25093606176
313.103681240404;187.176138519761
313.125296378538;186.957795783932
313.146911516672;186.5617213977
313.168526654807;185.983745715959
313.190141792941;185.225502167043
313.211756931075;184.295090059937
313.23337206921;183.292486100115
313.254987207344;182.306720597351
313.276602345479;181.300409782714
313.298217483613;180.230091823533
313.319832621747;179.148444706373
313.341447759882;178.217056940643
313.363062898016;177.441150786099
313.38467803615;176.756141191646
313.406293174285;176.163021555011
313.427908312419;175.708915578571
313.449523450554;175.395720602343
313.471138588688;175.205764458141
313.492753726822;175.116314634961
313.514368864957;175.089707356163
313.535984003091;175.066548091781
313.557599141225;175.021912645643
313.57921427936;174.933264629152
313.600829417494;174.786539514739
313.622444555628;174.573328135426
313.644059693763;174.280355616851
313.665674831897;173.903739111068
313.687289970031;173.479867254159
313.708905108166;173.045045615188
313.7305202463;172.658607816528
313.752135384435;172.376287689769
313.773750522569;172.192451799478
313.795365660703;172.09532845516
313.816980798838;172.094548978044
313.838595936972;172.191386623589
313.860211075106;172.34063235178
313.881826213241;172.518537182086
313.903441351375;172.724078484069
313.925056489509;172.93286746074
313.946671627644;173.081031686605
313.968286765778;173.121053885667
313.989901903913;173.045503640771
314.011517042047;172.852792182274
314.033132180181;172.529148973999
314.054747318316;172.043114859201
314.07636245645;171.351914669843
314.097977594584;170.52866637939
314.119592732719;169.678090321682
314.141207870853;168.772910785351
314.162823008988;167.802472998392
314.184438147122;166.843524887251
314.206053285256;165.928262632135
314.227668423391;165.021081385246
314.249283561525;164.085669701762
314.270898699659;163.140052648553
314.292513837794;162.253194165697
314.314128975928;161.482458917775
314.335744114062;160.774387164447
314.357359252197;160.104588418054
314.378974390331;159.487423402334
314.400589528466;158.885944273597
314.4222046666;158.278071161442
314.443819804734;157.743818564958
314.465434942869;157.307689763209
314.487050081003;156.933130434469
314.508665219137;156.587194474929
314.530280357272;156.273185040773
314.551895495406;156.006634225038
314.57351063354;155.779460872177
314.595125771675;155.579055592847
314.616740909809;155.404867511645
314.638356047943;155.261490133875
314.659971186078;155.154244916823
314.681586324212;155.092148787324
314.703201462347;155.084133195489
314.724816600481;155.131737399412
314.746431738615;155.240436273524
314.76804687675;155.425390181121
314.789662014884;155.695301404561
314.811277153018;156.054330799216
314.832892291153;156.500034241348
314.854507429287;156.977237956644
314.876122567422;157.435435986305
314.897737705556;157.88021677972
314.91935284369;158.331566071972
314.940967981825;158.78804395808
314.962583119959;159.199904470243
314.984198258093;159.527732905742
315.005813396228;159.772672824407
315.027428534362;159.947408121022
315.049043672496;160.048238653084
315.070658810631;160.055651595916
315.092273948765;159.972029759897
315.1138890869;159.805074876163
315.135504225034;159.574783220184
315.157119363168;159.310667006829
315.178734501303;159.010964531741
315.200349639437;158.664183288764
315.221964777571;158.274148475065
315.243579915706;157.88011213728
315.26519505384;157.503107887606
315.286810191974;157.154869718116
315.308425330109;156.798741908145
315.330040468243;156.408126211733
315.351655606378;156.031472099188
315.373270744512;155.685938844007
315.394885882646;155.338177889454
315.416501020781;154.976237146329
315.438116158915;154.603667052308
315.459731297049;154.22967376191
315.481346435184;153.841756866622
315.502961573318;153.432210672032
315.524576711452;153.023548547658
315.546191849587;152.629929855022
315.567806987721;152.274648759432
315.589422125856;151.954583655304
315.61103726399;151.653580333903
315.632652402124;151.367151481455
315.654267540259;151.10540283021
315.675882678393;150.864234042912
315.697497816527;150.639773661314
315.719112954662;150.442174023676
315.740728092796;150.25995951074
315.76234323093;150.07581639552
315.783958369065;149.885755371638
315.805573507199;149.687317875538
315.827188645334;149.483693898004
315.848803783468;149.277514587853
315.870418921602;149.064549229348
315.892034059737;148.848132398492
315.913649197871;148.63321204454
315.935264336005;148.421799204455
315.95687947414;148.21195895761
315.978494612274;147.995195106982
316.000109750408;147.769341413169
316.021724888543;147.561453172693
316.043340026677;147.3863336351
316.064955164812;147.234301345742
316.086570302946;147.090072339333
316.10818544108;146.936904301482
316.129800579215;146.764100801806
316.151415717349;146.580158376397
316.173030855483;146.395660408754
316.194645993618;146.200471169942
316.216261131752;145.988025738953
316.237876269886;145.763497032532
316.259491408021;145.533603458051
316.281106546155;145.296708891258
316.30272168429;145.060714751238
316.324336822424;144.844774937211
316.345951960558;144.66333827117
316.367567098693;144.507313102265
316.389182236827;144.374683874714
316.410797374961;144.273372759735
316.432412513096;144.196834212232
316.45402765123;144.133483591748
316.475642789364;144.069471857548
316.497257927499;144.000558468254
316.518873065633;143.913186533794
316.540488203768;143.797673204401
316.562103341902;143.644086773219
316.583718480036;143.453463194873
316.605333618171;143.241438507206
316.626948756305;143.008500441074
316.648563894439;142.768308985639
316.670179032574;142.535712584884
316.691794170708;142.327461290668
316.713409308842;142.157485092164
316.735024446977;142.022465511465
316.756639585111;141.90745487516
316.778254723246;141.815206402933
316.79986986138;141.743215847406
316.821484999514;141.676493892655
316.843100137649;141.601571007872
316.864715275783;141.506912575953
316.886330413917;141.380745782636
316.907945552052;141.205419544028
316.929560690186;140.957734447733
316.95117582832;140.643746575404
316.972790966455;140.289923545404
316.994406104589;139.908596219779
317.016021242724;139.530189243542
317.037636380858;139.184069419431
317.059251518992;138.878135866952
317.080866657127;138.610221053352
317.102481795261;138.376164462318
317.124096933395;138.167602918148
317.14571207153;137.977820908807
317.167327209664;137.82391856988
317.188942347799;137.722183101521
317.210557485933;137.665944235016
317.232172624067;137.653950886179
317.253787762202;137.685750504109
317.275402900336;137.75357447434
317.29701803847;137.853583564042
317.318633176605;137.990582136292
317.340248314739;138.176859167073
317.361863452873;138.414687582419
317.383478591008;138.681821176615
317.405093729142;138.956042947462
317.426708867276;139.210006821083
317.448324005411;139.432244266756
317.469939143545;139.626018597733
317.49155428168;139.787406959129
317.513169419814;139.891903758362
317.534784557948;139.910409191094
317.556399696083;139.825725492077
317.578014834217;139.641772491241
317.599629972351;139.372149530433
317.621245110486;139.023394392732
317.64286024862;138.601798770983
317.664475386754;138.122336572785
317.686090524889;137.60467143243
317.707705663023;137.060456608868
317.729320801158;136.486958465968
317.750935939292;135.881010293297
317.772551077426;135.278347323412
317.794166215561;134.757865484837
317.815781353695;134.32470225913
317.837396491829;133.927676088151
317.859011629964;133.529003859151
317.880626768098;133.115805469372
317.902241906233;132.712467701483
317.923857044367;132.341388618343
317.945472182501;131.997170833162
317.967087320636;131.664692742515
317.98870245877;131.329055888983
318.010317596904;130.983278441947
318.031932735039;130.636000475123
318.053547873173;130.321452684561
318.075163011307;130.067490955397
318.096778149442;129.879604133136
318.118393287576;129.765578386274
318.140008425711;129.724767438028
318.161623563845;129.728982412896
318.183238701979;129.764354529797
318.204853840114;129.820573921359
318.226468978248;129.888701669196
318.248084116382;129.953382486615
318.269699254517;130.003314905923
318.291314392651;130.033360125611
318.312929530785;130.042632410162
318.33454466892;130.034517226928
318.356159807054;130.024568764612
318.377774945188;130.029693678877
318.399390083323;130.059368478991
318.421005221457;130.117284281408
318.442620359592;130.204320390595
318.464235497726;130.331305514847
318.48585063586;130.50381889915
318.507465773995;130.725272684401
318.529080912129;130.975544942471
318.550696050263;131.207750010245
318.572311188398;131.395023598932
318.593926326532;131.54185461344
318.615541464667;131.638842726231
318.637156602801;131.686112333574
318.658771740935;131.644443606451
318.68038687907;131.463967720627
318.702002017204;131.147550339457
318.723617155338;130.759257810539
318.745232293473;130.338530290869
318.766847431607;129.907668062346
318.788462569741;129.465977967439
318.810077707876;128.976436233904
318.83169284601;128.432050188358
318.853307984145;127.854423836417
318.874923122279;127.337413708688
318.896538260413;126.890256421324
318.918153398548;126.464557186284
318.939768536682;126.003372273578
318.961383674816;125.513648085822
318.982998812951;125.033334347726
319.004613951085;124.551496096735
319.026229089219;124.023576885063
319.047844227354;123.447807269257
319.069459365488;122.848650268128
319.091074503623;122.229849814622
319.112689641757;121.633909597812
319.134304779891;121.123057403034
319.155919918026;120.693057311306
319.17753505616;120.326660286464
319.199150194294;120.02920233145
319.220765332429;119.831113532058
319.242380470563;119.743168410888
319.263995608697;119.747049800996
319.285610746832;119.810348488337
319.307225884966;119.907828190377
319.328841023101;120.025905507666
319.350456161235;120.156142143151
319.372071299369;120.26636416704
319.393686437504;120.30992113238
319.415301575638;120.272267987443
319.436916713772;120.15533859269
319.458531851907;119.942707559591
319.480146990041;119.612086718374
319.501762128175;119.190382502308
319.52337726631;118.729006125201
319.544992404444;118.240628829357
319.566607542579;117.706740444072
319.588222680713;117.118961739758
319.609837818847;116.518477611243
319.631452956982;115.94802675424
319.653068095116;115.420603896434
319.67468323325;114.936053419805
319.696298371385;114.489749815908
319.717913509519;114.079622831864
319.739528647653;113.70373202658
319.761143785788;113.35676607978
319.782758923922;113.034531092609
319.804374062057;112.744162879422
319.825989200191;112.50457351898
319.847604338325;112.320584285123
319.86921947646;112.18004626409
319.890834614594;112.081855627868
319.912449752728;112.033398704933
319.934064890863;112.026159038756
319.955680028997;112.041738971796
319.977295167131;112.065152024286
319.998910305266;112.082480623373
320.0205254434;112.08060030865
320.042140581535;112.05401612701
320.063755719669;111.996076100972
320.085370857803;111.893029714168
320.106985995938;111.744905370135
320.128601134072;111.581635734916
320.150216272206;111.427786243737
320.171831410341;111.28071318999
320.193446548475;111.13911381539
320.215061686609;111.002390058503
320.236676824744;110.866032632158
320.258291962878;110.719923843643
320.279907101013;110.555412300856
320.301522239147;110.365567295832
320.323137377281;110.132344400995
320.344752515416;109.833763881747
320.36636765355;109.474598244362
320.387982791684;109.07687651234
320.409597929819;108.65049755795
320.431213067953;108.211921486009
320.452828206087;107.766044016968
320.474443344222;107.309823528186
320.496058482356;106.844329716584
320.517673620491;106.392130633235
320.539288758625;105.99465266324
320.560903896759;105.676146945597
320.582519034894;105.440330734117
320.604134173028;105.286653590588
320.625749311162;105.210783524258
320.647364449297;105.210026690389
320.668979587431;105.283296278495
320.690594725565;105.440935635905
320.7122098637;105.692065578693
320.733825001834;106.01962011982
320.755440139969;106.392492010422
320.777055278103;106.800674865535
320.798670416237;107.250481904558
320.820285554372;107.745997492209
320.841900692506;108.295673137254
320.86351583064;108.905236541346
320.885130968775;109.540885227551
320.906746106909;110.148195604098
320.928361245044;110.723534237588
320.949976383178;111.266240092663
320.971591521312;111.757236096991
320.993206659447;112.206442972517
321.014821797581;112.635909730856
321.036436935715;113.050105651802
321.05805207385;113.446018760846
321.079667211984;113.804471891537
321.101282350118;114.104018200639
321.122897488253;114.344947851681
321.144512626387;114.537635310738
321.166127764521;114.696965136693
321.187742902656;114.817807065208
321.20935804079;114.881347855143
321.230973178925;114.885374327188
321.252588317059;114.833513769822
321.274203455193;114.716983158012
321.295818593328;114.519605887031
321.317433731462;114.234151031682
321.339048869596;113.872569280658
321.360664007731;113.461187188182
321.382279145865;113.028557712049
321.403894283999;112.585697903954
321.425509422134;112.124453618496
321.447124560268;111.64609558769
321.468739698403;111.166449817676
321.490354836537;110.699924091379
321.511969974671;110.266416954756
321.533585112806;109.879754666914
321.55520025094;109.530650742034
321.576815389074;109.188391657057
321.598430527209;108.829790796654
321.620045665343;108.435227987281
321.641660803478;107.972295077908
321.663275941612;107.418648716615
321.684891079746;106.789907792235
321.706506217881;106.121046271801
321.728121356015;105.459972403879
321.749736494149;104.852841598332
321.771351632284;104.314903723494
321.792966770418;103.846085786283
321.814581908552;103.447355314764
321.836197046687;103.145038271745
321.857812184821;102.976803778435
321.879427322956;102.936334421184
321.90104246109;103.018234419221
321.922657599224;103.222919894921
321.944272737359;103.522921853272
321.965887875493;103.879161542278
321.987503013627;104.299272867068
322.009118151762;104.812912961067
322.030733289896;105.307059951277
322.05234842803;105.669059064565
322.073963566165;105.922614380954
322.095578704299;106.076143398359
322.117193842433;106.108931371321
322.138808980568;106.00756896839
322.160424118702;105.777478396613
322.182039256837;105.417335116987
322.203654394971;104.934113483846
322.225269533105;104.387295349127
322.24688467124;103.813615562021
322.268499809374;103.205967496792
322.290114947508;102.568241604914
322.311730085643;101.897718155404
322.333345223777;101.212831352736
322.354960361912;100.555894796699
322.376575500046;99.9297088374565
322.39819063818;99.291637470208
322.419805776315;98.6160270696329
322.441420914449;97.9274608349585
322.463036052583;97.2880664070516
322.484651190718;96.6911302987989
322.506266328852;96.1226839674547
322.527881466986;95.5857622775492
322.549496605121;95.0836911136858
322.571111743255;94.6047426204963
322.59272688139;94.145567894818
322.614342019524;93.732894858704
322.635957157658;93.3797150431892
322.657572295793;93.0766354704407
322.679187433927;92.8196332237
322.700802572061;92.6229884574752
322.722417710196;92.4859386616896
322.74403284833;92.4032815066166
322.765647986464;92.3693291320239
322.787263124599;92.383485437721
322.808878262733;92.4384701312515
322.830493400868;92.5300225672353
322.852108539002;92.6626272946678
322.873723677136;92.8289306544446
322.895338815271;93.0271097036575
322.916953953405;93.2679485199852
322.938569091539;93.5486977502616
322.960184229674;93.8309703395647
322.981799367808;94.0756848064851
323.003414505942;94.2449830948488
323.025029644077;94.3170055152627
323.046644782211;94.2930268375942
323.068259920346;94.1684946969597
323.08987505848;93.9182299455909
323.111490196614;93.5414370566556
323.133105334749;93.0826888050468
323.154720472883;92.5826874377698
323.176335611017;92.0388352413268
323.197950749152;91.4631440312051
323.219565887286;90.918208574072
323.24118102542;90.4541493043602
323.262796163555;90.0549133896747
323.284411301689;89.7234393372342
323.306026439824;89.5220031581156
323.327641577958;89.4623360941583
323.349256716092;89.4961231018887
323.370871854227;89.5890425992106
323.392486992361;89.7295656687845
323.414102130495;89.9154378595103
323.43571726863;90.1098904810112
323.457332406764;90.2597897854877
323.478947544898;90.3615505156207
323.500562683033;90.4269580844313
323.522177821167;90.4457387169887
323.543792959302;90.3929332662974
323.565408097436;90.2683728308529
323.58702323557;90.0912355413472
323.608638373705;89.8693053022808
323.630253511839;89.6238158555617
323.651868649973;89.3612277145925
323.673483788108;89.0729368750677
323.695098926242;88.7551771780928
323.716714064376;88.4056259987165
323.738329202511;88.0180402571149
323.759944340645;87.5950672796124
323.78155947878;87.1538667134995
323.803174616914;86.6915836210398
323.824789755048;86.1934341031908
323.846404893183;85.675068045757
323.868020031317;85.1663047689254
323.889635169451;84.6948580330479
323.911250307586;84.2569749619539
323.93286544572;83.8254913623431
323.954480583854;83.368667675991
323.976095721989;82.8591664118263
323.997710860123;82.2932003515249
324.019325998258;81.7224377286909
324.040941136392;81.1700515039639
324.062556274526;80.6192633772089
324.084171412661;80.0653473494401
324.105786550795;79.5254017092243
324.127401688929;79.0210890995966
324.149016827064;78.5513781430979
324.170631965198;78.0993629697354
324.192247103332;77.6501294296778
324.213862241467;77.2121803570976
324.235477379601;76.8076192777885
324.257092517736;76.4461863032336
324.27870765587;76.1218832486839
324.300322794004;75.8271463526346
324.321937932139;75.5396843844293
324.343553070273;75.2392050490569
324.365168208407;74.9234932287421
324.386783346542;74.6061566703572
324.408398484676;74.2892194072864
324.43001362281;73.9601605197505
324.451628760945;73.6078583953688
324.473243899079;73.2382074590424
324.494859037214;72.8686021232859
324.516474175348;72.5025987256831
324.538089313482;72.141322944376
324.559704451617;71.7952993135672
324.581319589751;71.4882216476807
324.602934727885;71.2511457553267
324.62454986602;71.099040016058
324.646165004154;71.0390395396584
324.667780142289;71.0595707021293
324.689395280423;71.1458349277841
324.711010418557;71.2924180647442
324.732625556692;71.5022441064624
324.754240694826;71.7816211674608
324.77585583296;72.1017558169916
