Name;ESR_BC_1_359s_Y_gon_0dg_1

Recipe
Accumulations;5;Number of accumulations
RetryCount;0;Number of retries on error
AbortOnError;True;Abort on error
EnableQFactorMeasurement;False;Enable/Disable q-Factor measurement
Bfrom;313;B from
Bto;363;B to
SweepTime;60;Sweep time
Modulation;0.2;Modulation
ModulationFreq;100;Modulation
BHoldEnabled;False;B hold enabled
BHold;0;B hold
MicrowavePower;2;Microwave power
MarkerEnabled;False;
MarkerStartField;0;
MarkerEndField;0;
Mode;;
KineticGFact;0;
KineticTotalTransientTime;0;
KineticTimeResolution;0;
TempFrom;5;
TempUseSlope;False;
TempTo;5;
TempdT;1;
TempSetupTime;0;
GonFrom;0;
GonTo;180;
GonSteps;20;
XRayEnabled;False;
XRayTime;3;
XRayVoltage;40;
XRayCurrent;0.5;
UVEnabled;False;
UVIntensity;0;
UVTime;0;
UVLeadTime;0;
UVWavelength;0;
PowSweepFrom;1;
PowSweepTo;5;
PowSweepSteps;5;
AmpModSweepFrom;0;
AmpModSweepTo;1;
AmpModSweepSteps;10;
ExtTriggerEnabled;False;
ExtTrigLeadTime;0;
ExtTrigOnTime;5;

Meas
BField [mT];MW_Absorption []
313.033611755371;193.78269678936
313.055232050181;193.447330513373
313.076852344992;193.119852154237
313.098472639802;192.79567873879
313.120092934613;192.489015445388
313.141713229423;192.195606933747
313.163333524233;191.893159854188
313.184953819044;191.566154714216
313.206574113854;191.213000141384
313.228194408664;190.821320043741
313.249814703475;190.384725858879
313.271434998285;189.913456567946
313.293055293096;189.407772412589
313.314675587906;188.853604342915
313.336295882716;188.236525371059
313.357916177527;187.575392543513
313.379536472337;186.913682734591
313.401156767147;186.265564501427
313.422777061958;185.642792365156
313.444397356768;185.075793834699
313.466017651579;184.563525735874
313.487637946389;184.083090461256
313.509258241199;183.649387588558
313.53087853601;183.310558506768
313.55249883082;183.063521157982
313.57411912563;182.884808559685
313.595739420441;182.762504411937
313.617359715251;182.692195585843
313.638980010062;182.66441889073
313.660600304872;182.66164035921
313.682220599682;182.668689237512
313.703840894493;182.671091305877
313.725461189303;182.648479608316
313.747081484113;182.57546172137
313.768701778924;182.427024463138
313.790322073734;182.211938093864
313.811942368545;181.942664400372
313.833562663355;181.608673958292
313.855182958165;181.17760183168
313.876803252976;180.628094000947
313.898423547786;179.965512269713
313.920043842596;179.215779189749
313.941664137407;178.462914017693
313.963284432217;177.737676112592
313.984904727028;177.027852388706
314.006525021838;176.344296335646
314.028145316648;175.702696887916
314.049765611459;175.097606010876
314.071385906269;174.527011553374
314.093006201079;174.052872599201
314.11462649589;173.733802982947
314.1362467907;173.552809328957
314.157867085511;173.470270893762
314.179487380321;173.464091362505
314.201107675131;173.504233956742
314.222727969942;173.55667302573
314.244348264752;173.592620046752
314.265968559562;173.593036063573
314.287588854373;173.534505522769
314.309209149183;173.4011759198
314.330829443994;173.187280593011
314.352449738804;172.894607299143
314.374070033614;172.544380359793
314.395690328425;172.148565954459
314.417310623235;171.702515792829
314.438930918045;171.194245279935
314.460551212856;170.665805388626
314.482171507666;170.218362393235
314.503791802477;169.852042217203
314.525412097287;169.536607245149
314.547032392097;169.287589015317
314.568652686908;169.107065862197
314.590272981718;168.969878698366
314.611893276528;168.856227161468
314.633513571339;168.750778632807
314.655133866149;168.638966766892
314.676754160959;168.501878602097
314.69837445577;168.321203501405
314.71999475058;168.077234339971
314.741615045391;167.745497213719
314.763235340201;167.337898590495
314.784855635011;166.914961164396
314.806475929822;166.472474204776
314.828096224632;165.990930622706
314.849716519443;165.474820427089
314.871336814253;164.94180059555
314.892957109063;164.399745264132
314.914577403874;163.843810267908
314.936197698684;163.277118810603
314.957817993494;162.733266567654
314.979438288305;162.281904180619
315.001058583115;161.941017125128
315.022678877926;161.681921636642
315.044299172736;161.487885727045
315.065919467546;161.359677773953
315.087539762357;161.294342128958
315.109160057167;161.268980914954
315.130780351977;161.261111558655
315.152400646788;161.255139874231
315.174020941598;161.236186879316
315.195641236408;161.191182300172
315.217261531219;161.10941225844
315.238881826029;160.985542838687
315.26050212084;160.828373363543
315.28212241565;160.651416968925
315.30374271046;160.442774269339
315.325363005271;160.197578272814
315.346983300081;159.949538335622
315.368603594891;159.716639629135
315.390223889702;159.481472033436
315.411844184512;159.227584830351
315.433464479323;158.972268946656
315.455084774133;158.740843440903
315.476705068943;158.534139636217
315.498325363754;158.336580846449
315.519945658564;158.148006142652
315.541565953374;157.975139058333
315.563186248185;157.805136773203
315.584806542995;157.631889931413
315.606426837806;157.473121772214
315.628047132616;157.327032786475
315.649667427426;157.19617563691
315.671287722237;157.073023026462
315.692908017047;156.947837368294
315.714528311857;156.812913581224
315.736148606668;156.658701000452
315.757768901478;156.483426748616
315.779389196289;156.294325475167
315.801009491099;156.094730765307
315.822629785909;155.876355809
315.84425008072;155.615543882724
315.86587037553;155.279129180046
315.88749067034;154.909059208729
315.909110965151;154.56412349759
315.930731259961;154.23241812234
315.952351554772;153.896447908622
315.973971849582;153.553865268429
315.995592144392;153.202454118809
316.017212439203;152.824609806559
316.038832734013;152.427551571504
316.060453028823;152.069704034968
316.082073323634;151.755603595708
316.103693618444;151.457194682383
316.125313913255;151.192370102434
316.146934208065;150.970416665852
316.168554502875;150.772307463237
316.190174797686;150.582735358915
316.211795092496;150.388885011843
316.233415387306;150.192039841446
316.255035682117;150.010685247308
316.276655976927;149.856563818188
316.298276271738;149.742227853602
316.319896566548;149.673593424784
316.341516861358;149.654479082735
316.363137156169;149.687253222474
316.384757450979;149.775581059194
316.406377745789;149.913989430303
316.4279980406;150.107030605411
316.44961833541;150.361914979688
316.471238630221;150.679759386324
316.492858925031;151.030514771036
316.514479219841;151.363814276214
316.536099514652;151.652926950082
316.557719809462;151.873268087829
316.579340104272;152.010618943481
316.600960399083;152.06471868014
316.622580693893;152.02768548026
316.644200988704;151.887091546725
316.665821283514;151.641194197318
316.687441578324;151.345655093794
316.709061873135;151.029977269281
316.730682167945;150.710274118689
316.752302462755;150.402010512812
316.773922757566;150.104257387633
316.795543052376;149.808830175049
316.817163347186;149.5115575846
316.838783641997;149.2130355627
316.860403936807;148.905661746521
316.882024231618;148.56050646473
316.903644526428;148.140912827354
316.925264821238;147.5876081585
316.946885116049;146.995101660552
316.968505410859;146.431696653602
316.990125705669;145.889336371595
317.01174600048;145.343241764881
317.03336629529;144.786311136135
317.054986590101;144.225374187358
317.076606884911;143.655911541602
317.098227179721;143.090060385269
317.119847474532;142.591777722247
317.141467769342;142.195237191249
317.163088064152;141.888810920902
317.184708358963;141.666582634383
317.206328653773;141.536803914483
317.227948948584;141.499817800248
317.249569243394;141.536457440232
317.271189538204;141.630800356146
317.292809833015;141.774434617707
317.314430127825;141.961449437987
317.336050422635;142.190227737413
317.357670717446;142.424481546776
317.379291012256;142.651336976197
317.400911307067;142.857159961255
317.422531601877;143.029104418603
317.444151896687;143.167826862315
317.465772191498;143.275045723017
317.487392486308;143.33573589241
317.509012781118;143.331650260508
317.530633075929;143.268905710554
317.552253370739;143.153510088345
317.57387366555;142.982534998341
317.59549396036;142.749614538358
317.61711425517;142.450649610122
317.638734549981;142.073495579243
317.660354844791;141.595212783278
317.681975139601;141.030791800511
317.703595434412;140.436607929812
317.725215729222;139.824895625496
317.746836024033;139.147459096991
317.768456318843;138.362280203267
317.790076613653;137.582298437047
317.811696908464;136.903410106645
317.833317203274;136.309991527819
317.854937498084;135.805728566796
317.876557792895;135.382411512878
317.898178087705;135.005839160538
317.919798382516;134.660311902523
317.941418677326;134.362840467957
317.963038972136;134.126119946972
317.984659266947;133.94884928234
318.006279561757;133.835915984908
318.027899856567;133.795508321713
318.049520151378;133.813539937246
318.071140446188;133.869086587257
318.092760740999;133.956671890852
318.114381035809;134.055012591485
318.136001330619;134.134329218965
318.15762162543;134.189192616572
318.17924192024;134.219343280219
318.20086221505;134.221551142885
318.222482509861;134.19514836695
318.244102804671;134.141369305338
318.265723099482;134.063364842091
318.287343394292;133.972881916679
318.308963689102;133.886527942463
318.330583983913;133.805166725965
318.352204278723;133.726058985344
318.373824573533;133.660520156119
318.395444868344;133.621630197978
318.417065163154;133.620012075337
318.438685457964;133.647534383014
318.460305752775;133.696861623146
318.481926047585;133.756604310837
318.503546342396;133.826053129464
318.525166637206;133.904866397056
318.546786932016;133.991935722028
318.568407226827;134.087615741942
318.590027521637;134.184279459667
318.611647816447;134.266324395411
318.633268111258;134.318156500721
318.654888406068;134.346984851663
318.676508700879;134.345519066228
318.698128995689;134.301050338056
318.719749290499;134.191552285536
318.74136958531;134.007456683682
318.76298988012;133.741335486633
318.78461017493;133.399443650022
318.806230469741;132.98989361792
318.827850764551;132.503396559365
318.849471059362;131.935964927345
318.871091354172;131.324058041735
318.892711648982;130.715472506678
318.914331943793;130.143540758739
318.935952238603;129.629920042005
318.957572533413;129.183012529844
318.979192828224;128.824487821863
319.000813123034;128.570663873981
319.022433417845;128.405667515189
319.044053712655;128.319586821784
319.065674007465;128.316832357554
319.087294302276;128.378384487244
319.108914597086;128.47301850068
319.130534891896;128.585482873661
319.152155186707;128.698427126486
319.173775481517;128.792141513043
319.195395776328;128.85498100378
319.217016071138;128.881321863729
319.238636365948;128.869015407014
319.260256660759;128.814020134503
319.281876955569;128.707757189554
319.303497250379;128.554659557267
319.32511754519;128.370282444506
319.34673784;128.15480039794
319.368358134811;127.917034989389
319.389978429621;127.671369214187
319.411598724431;127.421220893155
319.433219019242;127.166389246316
319.454839314052;126.914068342239
319.476459608862;126.669785226556
319.498079903673;126.432512253723
319.519700198483;126.196626894356
319.541320493294;125.945653096045
319.562940788104;125.662689088188
319.584561082914;125.353251843183
319.606181377725;125.056135994789
319.627801672535;124.749379996474
319.649421967345;124.379897463773
319.671042262156;123.941229840225
319.692662556966;123.472592473866
319.714282851777;122.962839404024
319.735903146587;122.374259873105
319.757523441397;121.711114250445
319.779143736208;121.043671453998
319.800764031018;120.401029545587
319.822384325828;119.761461925552
319.844004620639;119.093049457113
319.865624915449;118.380804130854
319.88724521026;117.66649235873
319.90886550507;117.009385163745
319.93048579988;116.405807158192
319.952106094691;115.813703207254
319.973726389501;115.198996654108
319.995346684311;114.605529848774
320.016966979122;114.116064607416
320.038587273932;113.708009433856
320.060207568743;113.34150022775
320.081827863553;112.990700110667
320.103448158363;112.633967389249
320.125068453174;112.257923021276
320.146688747984;111.893731392724
320.168309042794;111.588660677507
320.189929337605;111.337554916057
320.211549632415;111.123483519012
320.233169927226;110.94444180931
320.254790222036;110.807884217839
320.276410516846;110.725456422849
320.298030811657;110.709816492741
320.319651106467;110.763372575071
320.341271401277;110.883089930065
320.362891696088;111.071938399836
320.384511990898;111.322357309214
320.406132285709;111.592661641787
320.427752580519;111.853768201722
320.449372875329;112.114834023672
320.47099317014;112.382483364724
320.49261346495;112.660866865423
320.51423375976;112.922681579543
320.535854054571;113.149392368906
320.557474349381;113.346183737857
320.579094644191;113.51756113058
320.600714939002;113.674552499491
320.622335233812;113.827611814155
320.643955528623;113.980404099072
320.665575823433;114.136900503599
320.687196118243;114.298572701053
320.708816413054;114.461544465774
320.730436707864;114.623461412022
320.752057002674;114.791220214518
320.773677297485;114.973345814904
320.795297592295;115.139936496644
320.816917887106;115.273852666888
320.838538181916;115.390253372707
320.860158476726;115.501692550206
320.881778771537;115.608734793999
320.903399066347;115.706291975122
320.925019361157;115.779208486899
320.946639655968;115.828194248935
320.968259950778;115.84867621152
320.989880245589;115.835294714113
321.011500540399;115.77735062243
321.033120835209;115.665808627346
321.05474113002;115.49765471018
321.07636142483;115.268582500339
321.09798171964;114.989157067409
321.119602014451;114.669029746627
321.141222309261;114.337993343029
321.162842604072;114.024768899748
321.184462898882;113.722970289425
321.206083193692;113.426410817959
321.227703488503;113.164849742048
321.249323783313;112.959350270094
321.270944078123;112.802666788024
321.292564372934;112.685535246578
321.314184667744;112.606439284884
321.335804962555;112.559544655118
321.357425257365;112.523872024087
321.379045552175;112.485190355013
321.400665846986;112.42834262661
321.422286141796;112.342284335075
321.443906436606;112.22365025269
321.465526731417;112.072600878123
321.487147026227;111.887510143668
321.508767321038;111.659386612611
321.530387615848;111.382397727572
321.552007910658;111.03674504316
321.573628205469;110.580891106052
321.595248500279;110.028755633446
321.616868795089;109.543350298828
321.6384890899;109.114487805406
321.66010938471;108.683624735608
321.681729679521;108.209093447394
321.703349974331;107.677752834134
321.724970269141;107.147656966789
321.746590563952;106.64200347689
321.768210858762;106.148310917754
321.789831153572;105.66067889679
321.811451448383;105.190117979468
321.833071743193;104.751883471708
321.854692038004;104.358083581535
321.876312332814;103.993120931066
321.897932627624;103.666118688378
321.919552922435;103.392062249429
321.941173217245;103.159670471758
321.962793512055;102.935124381129
321.984413806866;102.687572377263
322.006034101676;102.384757278573
322.027654396487;102.020310547679
322.049274691297;101.606808780593
322.070894986107;101.153701470139
322.092515280918;100.623814676832
322.114135575728;99.9707396449747
322.135755870538;99.158858392583
322.157376165349;98.321795593803
322.178996460159;97.536633827714
322.200616754969;96.8410075098324
322.22223704978;96.2494628191845
322.24385734459;95.7272492104564
322.265477639401;95.2271964030092
322.287097934211;94.7162978713754
322.308718229021;94.2916952467864
322.330338523832;93.980561920527
322.351958818642;93.7576132755786
322.373579113452;93.6145867760072
322.395199408263;93.5501137574666
322.416819703073;93.5664297993278
322.438439997884;93.657132491746
322.460060292694;93.8078671133908
322.481680587504;94.0188632597238
322.503300882315;94.293200203849
322.524921177125;94.6252228830008
322.546541471935;94.9987606902401
322.568161766746;95.4123603792432
322.589782061556;95.8373086788247
322.611402356367;96.2114215448629
322.633022651177;96.5100050349364
322.654642945987;96.7547037210761
322.676263240798;96.9700172359264
322.697883535608;97.1633902054648
322.719503830418;97.3218645528371
322.741124125229;97.4358452644454
322.762744420039;97.5151675352545
322.78436471485;97.5705063471353
322.80598500966;97.6046912506219
322.82760530447;97.6143058159991
322.849225599281;97.5909338094222
322.870845894091;97.5355897820408
322.892466188901;97.4432277391189
322.914086483712;97.3137169838262
322.935706778522;97.1664101254318
322.957327073333;97.0138013117102
322.978947368143;96.8629583053076
323.000567662953;96.7163749619625
323.022187957764;96.5655929044323
323.043808252574;96.4005559510585
323.065428547384;96.249260313006
323.087048842195;96.133494087712
323.108669137005;96.0431141958064
323.130289431816;95.9789937887801
323.151909726626;95.9350643303012
323.173530021436;95.900030462731
323.195150316247;95.8736245283327
323.216770611057;95.8508149366319
323.238390905867;95.8280244357571
323.260011200678;95.7998598722499
323.281631495488;95.7561601095899
323.303251790299;95.6898236841384
323.324872085109;95.5979385113508
323.346492379919;95.477530816812
323.36811267473;95.3191073604106
323.38973296954;95.1013399149907
323.41135326435;94.8135278523897
323.432973559161;94.4941651637921
323.454593853971;94.180310712021
323.476214148782;93.8664423962917
323.497834443592;93.539020989764
323.519454738402;93.2008082761771
323.541075033213;92.8641736533741
323.562695328023;92.5465367530887
323.584315622833;92.2694080652718
323.605935917644;92.0327552211229
323.627556212454;91.8215890896682
323.649176507265;91.61768868042
323.670796802075;91.4301546583406
323.692417096885;91.2566705132796
323.714037391696;91.0845567446837
323.735657686506;90.9025850940616
323.757277981316;90.7025706975915
323.778898276127;90.4462479039323
323.800518570937;90.1022851616605
323.822138865748;89.6245191511463
323.843759160558;89.018324560318
323.865379455368;88.4005775965612
323.886999750179;87.8363364431563
323.908620044989;87.325538588417
323.930240339799;86.8601059263667
323.95186063461;86.4389934305128
323.97348092942;86.0705281188165
323.995101224231;85.7734388763657
324.016721519041;85.5714240197277
324.038341813851;85.4735101610171
324.059962108662;85.4795118277854
324.081582403472;85.5793764842814
324.103202698282;85.7635624988055
324.124822993093;86.0041716916879
324.146443287903;86.2595653094096
324.168063582714;86.5254162662247
324.189683877524;86.8090276701496
324.211304172334;87.1053589111827
324.232924467145;87.3928873050684
324.254544761955;87.6487160095192
324.276165056765;87.8514400176401
324.297785351576;87.9804400319519
324.319405646386;88.0291935687614
324.341025941197;88.0016824007531
324.362646236007;87.8965738065553
324.384266530817;87.7215500959799
324.405886825628;87.4675983358174
324.427507120438;87.0964356507079
324.449127415248;86.5755470603382
324.470747710059;85.9696376829622
324.492368004869;85.3269529556441
324.513988299679;84.6253810371566
324.53560859449;83.8892440266249
324.5572288893;83.1885958331809
324.578849184111;82.521847765751
324.600469478921;81.856840312987
324.622089773731;81.1647150823988
324.643710068542;80.4367771834169
324.665330363352;79.7126592024237
324.686950658162;79.0596247676196
324.708570952973;78.5207798179814
324.730191247783;78.0776017327781
324.751811542594;77.6856118971191
324.773431837404;77.3347976053365
324.795052132214;77.0324063901393
