Name;ESR_BC_1_359s_Y_gon_0dg_4

Recipe
Accumulations;5;Number of accumulations
RetryCount;0;Number of retries on error
AbortOnError;True;Abort on error
EnableQFactorMeasurement;False;Enable/Disable q-Factor measurement
Bfrom;313;B from
Bto;363;B to
SweepTime;60;Sweep time
Modulation;0.2;Modulation
ModulationFreq;100;Modulation
BHoldEnabled;False;B hold enabled
BHold;0;B hold
MicrowavePower;2;Microwave power
MarkerEnabled;False;
MarkerStartField;0;
MarkerEndField;0;
Mode;;
KineticGFact;0;
KineticTotalTransientTime;0;
KineticTimeResolution;0;
TempFrom;5;
TempUseSlope;False;
TempTo;5;
TempdT;1;
TempSetupTime;0;
GonFrom;0;
GonTo;180;
GonSteps;20;
XRayEnabled;False;
XRayTime;3;
XRayVoltage;40;
XRayCurrent;0.5;
UVEnabled;False;
UVIntensity;0;
UVTime;0;
UVLeadTime;0;
UVWavelength;0;
PowSweepFrom;1;
PowSweepTo;5;
PowSweepSteps;5;
AmpModSweepFrom;0;
AmpModSweepTo;1;
AmpModSweepSteps;10;
ExtTriggerEnabled;False;
ExtTrigLeadTime;0;
ExtTrigOnTime;5;

Meas
BField [mT];MW_Absorption []
313.013522796631;143.141001670342
313.035140425229;143.562378467139
313.056758053828;143.968466184058
313.078375682426;144.304460400706
313.099993311025;144.528955586155
313.121610939623;144.590487211079
313.143228568222;144.483647760313
313.16484619682;144.221387388665
313.186463825419;143.765587744112
313.208081454017;143.07415795979
313.229699082616;142.298452405531
313.251316711214;141.567641670637
313.272934339813;140.837015279537
313.294551968412;140.067691769712
313.31616959701;139.249127409644
313.337787225609;138.380720353458
313.359404854207;137.511785140708
313.381022482806;136.735553400966
313.402640111404;136.127488365845
313.424257740003;135.67177032806
313.445875368601;135.324822300383
313.4674929972;135.104276572235
313.489110625798;135.024973531676
313.510728254397;135.037502026994
313.532345882995;135.103354716605
313.553963511594;135.200219023353
313.575581140192;135.313355733094
313.597198768791;135.413792796945
313.618816397389;135.465863723584
313.640434025988;135.466531962887
313.662051654586;135.417417744035
313.683669283185;135.316175953873
313.705286911783;135.150337073989
313.726904540382;134.91581752186
313.74852216898;134.643642427719
313.770139797579;134.362808367348
313.791757426177;134.070543355407
313.813375054776;133.753284407048
313.834992683374;133.404580329129
313.856610311973;133.048057408254
313.878227940571;132.712651425495
313.89984556917;132.39499729783
313.921463197768;132.086231485742
313.943080826367;131.789399242837
313.964698454965;131.522150397021
313.986316083564;131.293878054474
314.007933712162;131.121801161884
314.029551340761;131.029460410857
314.051168969359;131.001908421929
314.072786597958;131.03056573523
314.094404226556;131.099552780775
314.116021855155;131.197376104133
314.137639483754;131.311135616075
314.159257112352;131.432767493875
314.180874740951;131.548607100416
314.202492369549;131.646563276521
314.224109998148;131.711002979576
314.245727626746;131.7317126298
314.267345255345;131.694421780673
314.288962883943;131.598749993309
314.310580512542;131.449490041672
314.33219814114;131.245156416903
314.353815769739;130.993378822707
314.375433398337;130.703496506913
314.397051026936;130.370512299019
314.418668655534;130.016102134966
314.440286284133;129.671504564837
314.461903912731;129.340596232282
314.48352154133;129.001949897969
314.505139169928;128.651683569215
314.526756798527;128.299634112326
314.548374427125;127.964574038033
314.569992055724;127.662242444007
314.591609684322;127.39506334
314.613227312921;127.148332443308
314.634844941519;126.897998179383
314.656462570118;126.649610475292
314.678080198716;126.429149234164
314.699697827315;126.247610208897
314.721315455913;126.09796454735
314.742933084512;125.971331741593
314.76455071311;125.856041442652
314.786168341709;125.739700464321
314.807785970307;125.613835063668
314.829403598906;125.475353298368
314.851021227504;125.32042841284
314.872638856103;125.144508344436
314.894256484701;124.939530572076
314.9158741133;124.692509056528
314.937491741898;124.396649317247
314.959109370497;124.057483673341
314.980726999096;123.699379997452
315.002344627694;123.348599651793
315.023962256293;123.025072035191
315.045579884891;122.72333269818
315.06719751349;122.430773224592
315.088815142088;122.159925734971
315.110432770687;121.936486466494
315.132050399285;121.765913228691
315.153668027884;121.649136869935
315.175285656482;121.594075271596
315.196903285081;121.591038868124
315.218520913679;121.629689645199
315.240138542278;121.708311782275
315.261756170876;121.811497486755
315.283373799475;121.907332951066
315.304991428073;121.986674361962
315.326609056672;122.040194143997
315.34822668527;122.060335598278
315.369844313869;122.033727090621
315.391461942467;121.951358041533
315.413079571066;121.814953956713
315.434697199664;121.643545848067
315.456314828263;121.446360367078
315.477932456861;121.227430538601
315.49955008546;120.979686612266
315.521167714058;120.694306838711
315.542785342657;120.37628486335
315.564402971255;120.041057172823
315.586020599854;119.702472071916
315.607638228452;119.371660803977
315.629255857051;119.047488240159
315.650873485649;118.73317727609
315.672491114248;118.453120649375
315.694108742846;118.210312592925
315.715726371445;117.997398270662
315.737344000043;117.807103943165
315.758961628642;117.635775164403
315.78057925724;117.474220386259
315.802196885839;117.321836069448
315.823814514437;117.184311635812
315.845432143036;117.066522213627
315.867049771635;116.970018853714
315.888667400233;116.884179520029
315.910285028832;116.819290814598
315.93190265743;116.780254006591
315.953520286029;116.769413902173
315.975137914627;116.783368034855
315.996755543226;116.822148289632
316.018373171824;116.878214076115
316.039990800423;116.931398845039
316.061608429021;116.970000367501
316.08322605762;116.985230342228
316.104843686218;116.958102097118
316.126461314817;116.859202116775
316.148078943415;116.663417464274
316.169696572014;116.359232551582
316.191314200612;115.9469730833
316.212931829211;115.436304188898
316.234549457809;114.857036065293
316.256167086408;114.270406883067
316.277784715006;113.706571552289
316.299402343605;113.149508390658
316.321019972203;112.570059667608
316.342637600802;111.931626924357
316.3642552294;111.241143969963
316.385872857999;110.603317281784
316.407490486597;110.080585041528
316.429108115196;109.668820026453
316.450725743794;109.375333179663
316.472343372393;109.195533112451
316.493961000991;109.112431489003
316.51557862959;109.114018052884
316.537196258188;109.19505546045
316.558813886787;109.346617381669
316.580431515385;109.570690017711
316.602049143984;109.873449862822
316.623666772582;110.246255232498
316.645284401181;110.659646851817
316.666902029779;111.078623510988
316.688519658378;111.459101658764
316.710137286976;111.766552437126
316.731754915575;112.0075232041
316.753372544173;112.170493300833
316.774990172772;112.227914981407
316.796607801371;112.172789848498
316.818225429969;112.01470412674
316.839843058568;111.766061242733
316.861460687166;111.428838999229
316.883078315765;111.027602320516
316.904695944363;110.616040839679
316.926313572962;110.222321094697
316.94793120156;109.865753663331
316.969548830159;109.579678140755
316.991166458757;109.393586347425
317.012784087356;109.310270605112
317.034401715954;109.334299898013
317.056019344553;109.485589537499
317.077636973151;109.775457268531
317.09925460175;110.136394306006
317.120872230348;110.534207563558
317.142489858947;110.965199895038
317.164107487545;111.423490390632
317.185725116144;111.908370971424
317.207342744742;112.421256068917
317.228960373341;112.926924783721
317.250578001939;113.373682060839
317.272195630538;113.743487986963
317.293813259136;114.025303796381
317.315430887735;114.194835419453
317.337048516333;114.259216636184
317.358666144932;114.197629873499
317.38028377353;113.971527997228
317.401901402129;113.568004202479
317.423519030727;113.082596043443
317.445136659326;112.573776188655
317.466754287924;112.056087827784
317.488371916523;111.546023577243
317.509989545121;111.058214014908
317.53160717372;110.601019273899
317.553224802318;110.182370138363
317.574842430917;109.814926389669
317.596460059515;109.505278105214
317.618077688114;109.274045153789
317.639695316713;109.12995229988
317.661312945311;109.062336656409
317.68293057391;109.049328255525
317.704548202508;109.07349416106
317.726165831107;109.115273986384
317.747783459705;109.153479805012
317.769401088304;109.182625506527
317.791018716902;109.198985379034
317.812636345501;109.193145534423
317.834253974099;109.165901445979
317.855871602698;109.125565608361
317.877489231296;109.079685331884
317.899106859895;109.029528109441
317.920724488493;108.983291747198
317.942342117092;108.9519440593
317.96395974569;108.942584467021
317.985577374289;108.958141553289
318.007195002887;109.001522988202
318.028812631486;109.075814257867
318.050430260084;109.181551726171
318.072047888683;109.314896785146
318.093665517281;109.465238195786
318.11528314588;109.608557272038
318.136900774478;109.722921253196
318.158518403077;109.803408746758
318.180136031675;109.854785864424
318.201753660274;109.8808712622
318.223371288872;109.879305155835
318.244988917471;109.846278879417
318.266606546069;109.791194661156
318.288224174668;109.724750143949
318.309841803266;109.662381423604
318.331459431865;109.60426268121
318.353077060463;109.55144868831
318.374694689062;109.504271476374
318.39631231766;109.461262868986
318.417929946259;109.419637290788
318.439547574858;109.374122568086
318.461165203456;109.319176136206
318.482782832055;109.246435039754
318.504400460653;109.138796211941
318.526018089252;108.980680959381
318.54763571785;108.775864914766
318.569253346449;108.53649013403
318.590870975047;108.252053326344
318.612488603646;107.888975166113
318.634106232244;107.405293140573
318.655723860843;106.847781542452
318.677341489441;106.320184946759
318.69895911804;105.8248853545
318.720576746638;105.328609290566
318.742194375237;104.821050941391
318.763812003835;104.31268951421
318.785429632434;103.814788789729
318.807047261032;103.334532696917
318.828664889631;102.887839946242
318.850282518229;102.495084029623
318.871900146828;102.162677832371
318.893517775426;101.86779672918
318.915135404025;101.598047901382
318.936753032623;101.351660604367
318.958370661222;101.13162060022
318.97998828982;100.920569583238
319.001605918419;100.70508334263
319.023223547017;100.47037356142
319.044841175616;100.212368816634
319.066458804214;99.9303477421725
319.088076432813;99.6310611391067
319.109694061411;99.3377201331102
319.13131169001;99.0822117381221
319.152929318608;98.8702160077436
319.174546947207;98.7032123431068
319.196164575805;98.5823886495774
319.217782204404;98.4964309266199
319.239399833002;98.4379477468957
319.261017461601;98.402562920472
319.282635090199;98.3854950851072
319.304252718798;98.3863465632311
319.325870347396;98.4034010928275
319.347487975995;98.4341118278149
319.369105604594;98.4710782364082
319.390723233192;98.5082239985234
319.412340861791;98.5387607235993
319.433958490389;98.5579817752135
319.455576118988;98.5637306130626
319.477193747586;98.5435019752237
319.498811376185;98.4834569541007
319.520429004783;98.3746489791254
319.542046633382;98.2053473874855
319.56366426198;97.9826598508479
319.585281890579;97.706036954923
319.606899519177;97.3563201573926
319.628517147776;96.901879124772
319.650134776374;96.3732654667105
319.671752404973;95.8451966995551
319.693370033571;95.3239750927153
319.71498766217;94.8057539903815
319.736605290768;94.278715760658
319.758222919367;93.725561846766
319.779840547965;93.1352330291299
319.801458176564;92.5168219069093
319.823075805162;91.9298581158611
319.844693433761;91.4200886336153
319.866311062359;91.0047145466285
319.887928690958;90.6618434118502
319.909546319556;90.3701095030539
319.931163948155;90.1321947666774
319.952781576753;89.9673985864412
319.974399205352;89.8680419662981
319.99601683395;89.8181966981335
320.017634462549;89.801946273963
320.039252091147;89.8114251695893
320.060869719746;89.8379896813381
320.082487348344;89.8655883827898
320.104104976943;89.8769844656117
320.125722605541;89.8615299697718
320.14734023414;89.8007975576056
320.168957862738;89.6784372005937
320.190575491337;89.4931554655051
320.212193119935;89.2501736672037
320.233810748534;88.9348963914546
320.255428377132;88.5210849012298
320.277046005731;88.0117800601896
320.29866363433;87.4279234047942
320.320281262928;86.7863464856724
320.341898891527;86.1361250582668
320.363516520125;85.5248956477651
320.385134148724;84.9418901502124
320.406751777322;84.3505891476921
320.428369405921;83.7189171011265
320.449987034519;83.0872689095392
320.471604663118;82.5799590146346
320.493222291716;82.2444454447057
320.514839920315;82.0663675597431
320.536457548913;82.0333261738862
320.558075177512;82.1362305077276
320.57969280611;82.3641047036753
320.601310434709;82.7005517707337
320.622928063307;83.1235523047939
320.644545691906;83.626506740131
320.666163320504;84.2110463417894
320.687780949103;84.8503172256234
320.709398577701;85.5045434998655
320.7310162063;86.1503081444288
320.752633834898;86.7789648980736
320.774251463497;87.3786265738314
320.795869092095;87.9202360486445
320.817486720694;88.3948919704801
320.839104349292;88.8133047823684
320.860721977891;89.1798518509237
320.882339606489;89.4867002438124
320.903957235088;89.7334696053471
320.925574863686;89.9313665784157
320.947192492285;90.0843759094153
320.968810120883;90.1972708048923
320.990427749482;90.2726472442413
321.01204537808;90.3033627951197
321.033663006679;90.2850882697666
321.055280635277;90.2202773282484
321.076898263876;90.1057174540583
321.098515892475;89.9395881595326
321.120133521073;89.7240286707174
321.141751149672;89.4637720635513
321.16336877827;89.1580510421095
321.184986406869;88.8030862381299
321.206604035467;88.4330536758762
321.228221664066;88.0942500319226
321.249839292664;87.7938271736858
321.271456921263;87.5516274488665
321.293074549861;87.4042335522769
321.31469217846;87.3422129995815
321.336309807058;87.3525888334883
321.357927435657;87.4446489219254
321.379545064255;87.6288519925621
321.401162692854;87.8843876204498
321.422780321452;88.1769460267917
321.444397950051;88.491219446529
321.466015578649;88.8101223458609
321.487633207248;89.1011250335682
321.509250835846;89.3389378800901
321.530868464445;89.5161479080729
321.552486093043;89.628698518615
321.574103721642;89.684740402469
321.59572135024;89.690541373275
321.617338978839;89.6496197890378
321.638956607437;89.5698702564173
321.660574236036;89.4560423661318
321.682191864634;89.3032262483805
321.703809493233;89.1017894792882
321.725427121831;88.8315801633013
321.74704475043;88.4897541637433
321.768662379028;88.1128410929842
321.790280007627;87.7036209376649
321.811897636225;87.2807474271651
321.833515264824;86.8369442948773
321.855132893422;86.3737761017418
321.876750522021;85.8943338796475
321.898368150619;85.4088258800958
321.919985779218;84.9146657734865
321.941603407817;84.432286758581
321.963221036415;83.9992395919879
321.984838665014;83.599301977692
322.006456293612;83.2028336862145
322.028073922211;82.7932220664025
322.049691550809;82.4078570638476
322.071309179408;82.0818328949031
322.092926808006;81.8039178134054
322.114544436605;81.5514515418196
322.136162065203;81.3132770446407
322.157779693802;81.082047801106
322.1793973224;80.8485457364102
322.201014950999;80.6092659961296
322.222632579597;80.3622837579895
322.244250208196;80.0952281738668
322.265867836794;79.8068146183579
322.287485465393;79.5288917124764
322.309103093991;79.276107166163
322.33072072259;79.0253851148066
322.352338351188;78.7653260341696
322.373955979787;78.5219360831566
322.395573608385;78.3181416226983
322.417191236984;78.1411653009827
322.438808865582;77.9808010250122
322.460426494181;77.8395045084269
322.482044122779;77.7293133720084
322.503661751378;77.6644325156795
322.525279379976;77.6541057043406
322.546897008575;77.7034414201169
322.568514637173;77.8116796498085
322.590132265772;77.9704585075223
322.61174989437;78.1775036525298
322.633367522969;78.4419776401737
322.654985151567;78.7710569935656
322.676602780166;79.1702439941464
322.698220408764;79.6310656437833
322.719838037363;80.1322136371338
322.741455665961;80.6355573448669
322.76307329456;81.1408165248692
322.784690923158;81.662890309074
322.806308551757;82.1699514232967
322.827926180355;82.5923531705009
322.849543808954;82.9349397590061
322.871161437553;83.1810436033475
322.892779066151;83.3088306008821
322.91439669475;83.3361283068684
322.936014323348;83.259676768269
322.957631951947;83.0822366280232
322.979249580545;82.8150845857651
323.000867209144;82.5079514355308
323.022484837742;82.1815510240601
323.044102466341;81.8416830940663
323.065720094939;81.4994583092172
323.087337723538;81.2186077895098
323.108955352136;81.0468755659805
323.130572980735;80.9571208012906
323.152190609333;80.9224740084717
323.173808237932;80.9317424160788
323.19542586653;80.9735568459206
323.217043495129;81.0288079523213
323.238661123727;81.0664607414708
323.260278752326;81.0657684923979
323.281896380924;81.0221081885592
323.303514009523;80.9337006567957
323.325131638121;80.7981366199228
323.34674926672;80.6201017183795
323.368366895318;80.4152217706739
323.389984523917;80.1843720841603
323.411602152515;79.9314572590314
323.433219781114;79.6764188394958
323.454837409712;79.428413058728
323.476455038311;79.1797130411024
323.498072666909;78.9257795773725
323.519690295508;78.6688529119874
323.541307924106;78.4086670531625
323.562925552705;78.1207031385199
323.584543181303;77.7728084190042
323.606160809902;77.3647212934699
323.6277784385;76.9328114999478
323.649396067099;76.4667205640374
323.671013695697;75.9416803883965
323.692631324296;75.3424985641935
323.714248952894;74.6757827868767
323.735866581493;73.9478407203589
323.757484210092;73.174047671821
323.77910183869;72.3961551848014
323.800719467289;71.6246320253325
323.822337095887;70.8513814531937
323.843954724486;70.0819570936424
323.865572353084;69.3022308335478
323.887189981683;68.4976055566505
323.908807610281;67.7862243794264
323.93042523888;67.2263452621007
323.952042867478;66.7781652471337
323.973660496077;66.4112643333368
323.995278124675;66.1255144000993
324.016895753274;65.931114923787
324.038513381872;65.82480395082
324.060131010471;65.8051098455792
324.081748639069;65.8575787422503
324.103366267668;65.9564159817747
324.124983896266;66.0818191013305
324.146601524865;66.2134344196381
324.168219153463;66.3262435338262
324.189836782062;66.3924421082034
324.21145441066;66.3990495297306
324.233072039259;66.3463365088514
324.254689667857;66.2073388414799
324.276307296456;65.9466862958259
324.297924925054;65.5808141536574
324.319542553653;65.1672464044185
324.341160182251;64.7368293597182
324.36277781085;64.2840801372319
324.384395439448;63.7736602994261
324.406013068047;63.2079862002546
324.427630696645;62.6954213024153
324.449248325244;62.2615039728164
324.470865953842;61.8946276752818
324.492483582441;61.5862417976182
324.514101211039;61.3373857101056
324.535718839638;61.1462162526692
324.557336468236;61.0138675199382
324.578954096835;60.9429167374477
324.600571725434;60.9235346656351
324.622189354032;60.9420383075843
324.643806982631;60.99603529025
324.665424611229;61.0820346716776
324.687042239828;61.1897677622144
324.708659868426;61.3023062684756
324.730277497025;61.4120502689515
324.751895125623;61.5260207547615
324.773512754222;61.6426771817842
