Name;ESR_BC_1_359s_Y_gon_0dg_3

Recipe
Accumulations;5;Number of accumulations
RetryCount;0;Number of retries on error
AbortOnError;True;Abort on error
EnableQFactorMeasurement;False;Enable/Disable q-Factor measurement
Bfrom;313;B from
Bto;363;B to
SweepTime;60;Sweep time
Modulation;0.2;Modulation
ModulationFreq;100;Modulation
BHoldEnabled;False;B hold enabled
BHold;0;B hold
MicrowavePower;2;Microwave power
MarkerEnabled;False;
MarkerStartField;0;
MarkerEndField;0;
Mode;;
KineticGFact;0;
KineticTotalTransientTime;0;
KineticTimeResolution;0;
TempFrom;5;
TempUseSlope;False;
TempTo;5;
TempdT;1;
TempSetupTime;0;
GonFrom;0;
GonTo;180;
GonSteps;20;
XRayEnabled;False;
XRayTime;3;
XRayVoltage;40;
XRayCurrent;0.5;
UVEnabled;False;
UVIntensity;0;
UVTime;0;
UVLeadTime;0;
UVWavelength;0;
PowSweepFrom;1;
PowSweepTo;5;
PowSweepSteps;5;
AmpModSweepFrom;0;
AmpModSweepTo;1;
AmpModSweepSteps;10;
ExtTriggerEnabled;False;
ExtTrigLeadTime;0;
ExtTrigOnTime;5;

Meas
BField [mT];MW_Absorption []
313.024608383179;176.265291272636
313.046231247411;175.983109039323
313.067854111643;175.611482592092
313.089476975874;175.093001640004
313.111099840106;174.396928913711
313.132722704338;173.577364590938
313.15434556857;172.638613949401
313.175968432802;171.53122407557
313.197591297034;170.290201485905
313.219214161266;169.053235972995
313.240837025498;167.852409583966
313.26245988973;166.630888155606
313.284082753962;165.334538397241
313.305705618194;164.001489952604
313.327328482426;162.80461850614
313.348951346657;161.813869706588
313.370574210889;160.970546427384
313.392197075121;160.213617624444
313.413819939353;159.521288246991
313.435442803585;158.967270890213
313.457065667817;158.646945551616
313.478688532049;158.526662058983
313.500311396281;158.537687672484
313.521934260513;158.638755252579
313.543557124745;158.799022171647
313.565179988977;158.996140884918
313.586802853209;159.207801629115
313.608425717441;159.402820680471
313.630048581672;159.534897973089
313.651671445904;159.58493039352
313.673294310136;159.556800659228
313.694917174368;159.447342621751
313.7165400386;159.246579373859
313.738162902832;158.947927634359
313.759785767064;158.567348961625
313.781408631296;158.154390878138
313.803031495528;157.719900578127
313.82465435976;157.237807113987
313.846277223992;156.715677255131
313.867900088224;156.219181085039
313.889522952455;155.758250441945
313.911145816687;155.326090243251
313.932768680919;154.949317448011
313.954391545151;154.635787632737
313.976014409383;154.370640340522
313.997637273615;154.162633916775
314.019260137847;154.033725487605
314.040883002079;153.979574990425
314.062505866311;153.982163049526
314.084128730543;154.031676271574
314.105751594775;154.132375143122
314.127374459007;154.273739041299
314.148997323238;154.41965118367
314.17062018747;154.53695641822
314.192243051702;154.614386258994
314.213865915934;154.644873566416
314.235488780166;154.610172313568
314.257111644398;154.492012992561
314.27873450863;154.303897245413
314.300357372862;154.062573738341
314.321980237094;153.763803819154
314.343603101326;153.388309100389
314.365225965558;152.939220661775
314.38684882979;152.48023453106
314.408471694022;152.032212966101
314.430094558253;151.578202037634
314.451717422485;151.149903758482
314.473340286717;150.752871608634
314.494963150949;150.373389799376
314.516586015181;150.008729848747
314.538208879413;149.671814125518
314.559831743645;149.361725152226
314.581454607877;149.070574936872
314.603077472109;148.797657672641
314.624700336341;148.545707725064
314.646323200573;148.308337080135
314.667946064805;148.076055318394
314.689568929036;147.825986169955
314.711191793268;147.546904480711
314.7328146575;147.232082499464
314.754437521732;146.923903689184
314.776060385964;146.627412527145
314.797683250196;146.322936099618
314.819306114428;145.980625224551
314.84092897866;145.575917600335
314.862551842892;145.08247766724
314.884174707124;144.544006111258
314.905797571356;144.026542371088
314.927420435588;143.527231416785
314.949043299819;143.041267476861
314.970666164051;142.585856483137
314.992289028283;142.192797425625
315.013911892515;141.869680980201
315.035534756747;141.597490864
315.057157620979;141.359853485263
315.078780485211;141.171444274577
315.100403349443;141.066666343647
315.122026213675;141.05659138124
315.143649077907;141.115093246201
315.165271942139;141.226941923757
315.186894806371;141.396333669276
315.208517670602;141.620617055521
315.230140534834;141.881220680752
315.251763399066;142.146419150667
315.273386263298;142.403076652688
315.29500912753;142.648360315469
315.316631991762;142.869744405147
315.338254855994;143.062213416939
315.359877720226;143.228770112125
315.381500584458;143.375764280658
315.40312344869;143.507593653119
315.424746312922;143.629230484703
315.446369177154;143.747877813018
315.467992041386;143.86038765758
315.489614905617;143.950711753763
315.511237769849;144.005314464872
315.532860634081;144.009112947905
315.554483498313;143.945486017281
315.576106362545;143.803544072599
315.597729226777;143.578075066596
315.619352091009;143.266191417078
315.640974955241;142.861380592035
315.662597819473;142.339042635129
315.684220683705;141.679658110813
315.705843547937;140.923659779127
315.727466412169;140.178163167837
315.7490892764;139.438394444035
315.770712140632;138.658985685183
315.792335004864;137.856684209576
315.813957869096;137.09671660494
315.835580733328;136.380304863421
315.85720359756;135.670825305252
315.878826461792;135.004246542216
315.900449326024;134.424199213025
315.922072190256;133.919091696419
315.943695054488;133.453989108314
315.96531791872;132.98224077139
315.986940782952;132.50354561329
316.008563647184;132.053504725167
316.030186511415;131.689066651058
316.051809375647;131.419925454105
316.073432239879;131.236476161939
316.095055104111;131.130799389155
316.116677968343;131.107921029977
316.138300832575;131.178469512484
316.159923696807;131.354347917542
316.181546561039;131.620664575917
316.203169425271;131.932836077175
316.224792289503;132.255660905601
316.246415153735;132.584543229629
316.268038017967;132.932306241344
316.289660882198;133.296222783663
316.31128374643;133.642991175948
316.332906610662;133.944731963765
316.354529474894;134.199766368101
316.376152339126;134.378258052322
316.397775203358;134.413551119039
316.41939806759;134.311521539707
316.441020931822;134.105056282091
316.462643796054;133.79030880916
316.484266660286;133.348977904402
316.505889524518;132.810332971847
316.52751238875;132.251428822196
316.549135252981;131.735311273246
316.570758117213;131.265685227562
316.592380981445;130.822464393975
316.614003845677;130.416352928759
316.635626709909;130.10883202808
316.657249574141;129.91991796688
316.678872438373;129.835730174454
316.700495302605;129.826467536932
316.722118166837;129.864406522378
316.743741031069;129.928947600559
316.765363895301;129.99193354044
316.786986759533;130.020824478266
316.808609623764;129.993634275234
316.830232487996;129.900921146132
316.851855352228;129.753770299745
316.87347821646;129.600224715401
316.895101080692;129.447645329203
316.916723944924;129.307889314474
316.938346809156;129.194271476054
316.959969673388;129.125954113582
316.98159253762;129.119671425759
317.003215401852;129.19059917406
317.024838266084;129.335811834742
317.046461130316;129.548922352349
317.068083994548;129.823665360194
317.089706858779;130.131067536419
317.111329723011;130.419504837718
317.132952587243;130.683789836296
317.154575451475;130.927866311398
317.176198315707;131.145947031336
317.197821179939;131.324834125255
317.219444044171;131.440034820946
317.241066908403;131.46351571981
317.262689772635;131.400025342702
317.284312636867;131.256184775951
317.305935501099;131.023497377444
317.327558365331;130.710391034009
317.349181229562;130.345169616017
317.370804093794;129.990391111414
317.392426958026;129.667623019164
317.414049822258;129.385196612973
317.43567268649;129.150739183977
317.457295550722;128.960462018949
317.478918414954;128.802597474524
317.500541279186;128.683468233076
317.522164143418;128.617201456021
317.54378700765;128.589680259434
317.565409871882;128.576524324994
317.587032736114;128.558442053622
317.608655600346;128.521049555142
317.630278464577;128.451959150777
317.651901328809;128.329116012225
317.673524193041;128.139755615004
317.695147057273;127.85303337593
317.716769921505;127.438994586786
317.738392785737;126.909765910849
317.760015649969;126.315415812423
317.781638514201;125.698512069719
317.803261378433;125.067363807925
317.824884242665;124.417456856883
317.846507106897;123.764569322968
317.868129971129;123.127540010248
317.88975283536;122.508308433282
317.911375699592;121.897405662448
317.932998563824;121.268390986286
317.954621428056;120.650545597459
317.976244292288;120.102586311546
317.99786715652;119.629107281776
318.019490020752;119.230428771565
318.041112884984;118.903384928042
318.062735749216;118.647057639535
318.084358613448;118.473239560043
318.10598147768;118.384515418941
318.127604341912;118.37145295845
318.149227206143;118.41990503309
318.170850070375;118.533796705702
318.192472934607;118.714646792474
318.214095798839;118.960784820342
318.235718663071;119.252903524546
318.257341527303;119.54156212155
318.278964391535;119.776750893587
318.300587255767;119.928099372763
318.322210119999;119.995595219814
318.343832984231;119.978123648361
318.365455848463;119.867891515805
318.387078712695;119.67297192441
318.408701576926;119.420082862204
318.430324441158;119.123113292876
318.45194730539;118.788547991823
318.473570169622;118.440987220521
318.495193033854;118.107956498977
318.516815898086;117.792484750302
318.538438762318;117.487671650625
318.56006162655;117.194871903623
318.581684490782;116.932057383328
318.603307355014;116.701058484472
318.624930219246;116.47430598933
318.646553083478;116.241210285663
318.66817594771;116.005551415004
318.689798811941;115.759664704548
318.711421676173;115.488494533555
318.733044540405;115.176974497656
318.754667404637;114.825270197582
318.776290268869;114.450729819959
318.797913133101;114.056119336295
318.819535997333;113.642599957732
318.841158861565;113.234836012758
318.862781725797;112.845843409402
318.884404590029;112.474686675714
318.906027454261;112.151673972811
318.927650318493;111.9270505255
318.949273182724;111.796467007656
318.970896046956;111.748355872391
318.992518911188;111.78047038191
319.01414177542;111.876558408011
319.035764639652;112.017201181815
319.057387503884;112.189757958176
319.079010368116;112.369456024474
319.100633232348;112.537017880922
319.12225609658;112.67560700288
319.143878960812;112.770860441637
319.165501825044;112.799946848937
319.187124689276;112.759974135645
319.208747553507;112.652217369882
319.230370417739;112.479240456958
319.251993281971;112.267267129327
319.273616146203;112.017843434126
319.295239010435;111.743209192758
319.316861874667;111.463876823555
319.338484738899;111.198783265855
319.360107603131;110.941306408266
319.381730467363;110.690608011204
319.403353331595;110.471845852639
319.424976195827;110.30195852265
319.446599060059;110.161296844573
319.468221924291;110.03204572071
319.489844788522;109.901392098093
319.511467652754;109.759853385663
319.533090516986;109.603728542602
319.554713381218;109.429003401275
319.57633624545;109.234188430469
319.597959109682;109.007326716721
319.619581973914;108.748691814945
319.641204838146;108.46816309905
319.662827702378;108.169000995183
319.68445056661;107.867234416462
319.706073430842;107.591748050592
319.727696295074;107.351273882813
319.749319159305;107.145889595776
319.770942023537;106.98475940904
319.792564887769;106.86148283237
319.814187752001;106.775250015372
319.835810616233;106.721711910918
319.857433480465;106.68829562007
319.879056344697;106.658830161827
319.900679208929;106.616102407812
319.922302073161;106.54691778344
319.943924937393;106.430643340019
319.965547801625;106.24936118912
319.987170665857;105.997852009414
320.008793530089;105.669634862029
320.03041639432;105.279210603382
320.052039258552;104.846741928599
320.073662122784;104.366499091843
320.095284987016;103.830500019685
320.116907851248;103.248704815552
320.13853071548;102.644358809497
320.160153579712;102.071193492318
320.181776443944;101.547374419811
320.203399308176;101.066951342558
320.225022172408;100.650366472171
320.24664503664;100.321786358992
320.268267900871;100.064914265581
320.289890765103;99.8607664004095
320.311513629335;99.7056093061645
320.333136493567;99.6152033036867
320.354759357799;99.6025380611336
320.376382222031;99.6739368392195
320.398005086263;99.8050642767139
320.419627950495;99.9719696954684
320.441250814727;100.166643457915
320.462873678959;100.385729981771
320.484496543191;100.607028450385
320.506119407423;100.812878237688
320.527742271655;101.001598282104
320.549365135886;101.172567847649
320.570988000118;101.315040399331
320.59261086435;101.409032350699
320.614233728582;101.443998368327
320.635856592814;101.429155846963
320.657479457046;101.371813567494
320.679102321278;101.283532256334
320.70072518551;101.180880919164
320.722348049742;101.07023646023
320.743970913974;100.948481719971
320.765593778206;100.813725646078
320.787216642438;100.673686254881
320.808839506669;100.539918116621
320.830462370901;100.407465337431
320.852085235133;100.270341359807
320.873708099365;100.139420406354
320.895330963597;100.014376899409
320.916953827829;99.8885460440825
320.938576692061;99.7561101511003
320.960199556293;99.6041086673104
320.981822420525;99.4282568432155
321.003445284757;99.2683649159215
321.025068148989;99.1411728481637
321.046691013221;99.0360639526411
321.068313877453;98.9524976919995
321.089936741684;98.9001455331513
321.111559605916;98.8946403945411
321.133182470148;98.9371921337866
321.15480533438;99.0223561583883
321.176428198612;99.1474705106852
321.198051062844;99.310727810963
321.219673927076;99.5083499562473
321.241296791308;99.7305567132691
321.26291965554;99.9667535579892
321.284542519772;100.196474055789
321.306165384004;100.386833902539
321.327788248236;100.527217355496
321.349411112467;100.621197827852
321.371033976699;100.667925207277
321.392656840931;100.655993451432
321.414279705163;100.566931133747
321.435902569395;100.394723190998
321.457525433627;100.143978582492
321.479148297859;99.8103342525536
321.500771162091;99.3895825472366
321.522394026323;98.8836833528483
321.544016890555;98.2975920832359
321.565639754787;97.6318468274248
321.587262619019;96.8691270033313
321.60888548325;96.0196367093892
321.630508347482;95.1772617124992
321.652131211714;94.4049933361856
321.673754075946;93.7115852463086
321.695376940178;93.0891019312909
321.71699980441;92.5294008091763
321.738622668642;92.0321474151457
321.760245532874;91.6123334614338
321.781868397106;91.2753620119785
321.803491261338;91.0184439478717
321.82511412557;90.8371374099638
321.846736989802;90.7115051208551
321.868359854033;90.6159268192545
321.889982718265;90.5323492639994
321.911605582497;90.4480973601034
321.933228446729;90.3524464827605
321.954851310961;90.2312477164778
321.976474175193;90.0720733637315
321.998097039425;89.8796711503344
322.019719903657;89.6672827545655
322.041342767889;89.4294963820119
322.062965632121;89.15175460692
322.084588496353;88.8321998952702
322.106211360585;88.4889003769084
322.127834224817;88.1500782375604
322.149457089048;87.8273749143317
322.17107995328;87.516154533439
322.192702817512;87.2313788359229
322.214325681744;86.988439654081
322.235948545976;86.7857039928684
322.257571410208;86.6266652345762
322.27919427444;86.5148591537094
322.300817138672;86.4572559288325
322.322440002904;86.4554339816513
322.344062867136;86.4917022067615
322.365685731368;86.5498897273847
322.3873085956;86.6193682117695
322.408931459831;86.6851059929701
322.430554324063;86.72688015496
322.452177188295;86.7281353021816
322.473800052527;86.6738738062079
322.495422916759;86.5531159605367
322.517045780991;86.36680136083
322.538668645223;86.1073252005317
322.560291509455;85.7696574682893
322.581914373687;85.3921812240266
322.603537237919;85.0310064591645
322.625160102151;84.6861314359127
322.646782966383;84.3615391176894
322.668405830615;84.0740351290179
322.690028694846;83.8394475592291
322.711651559078;83.6578327627212
322.73327442331;83.5374165827535
322.754897287542;83.5097156788773
322.776520151774;83.6095309338434
322.798143016006;83.842812447489
322.819765880238;84.182819640475
322.84138874447;84.6235943805431
322.863011608702;85.141858398981
322.884634472934;85.732197905929
322.906257337166;86.3870794489283
322.927880201398;87.0476764139581
322.949503065629;87.6649206808119
322.971125929861;88.2065762376861
322.992748794093;88.6379176793041
323.014371658325;88.9498951374646
323.035994522557;89.145562807637
323.057617386789;89.2241928228058
323.079240251021;89.1948624202154
323.100863115253;89.0616725923804
323.122485979485;88.8456496948773
323.144108843717;88.5719791038393
323.165731707949;88.2697089590016
323.187354572181;87.9590259372913
323.208977436412;87.6520867619334
323.230600300644;87.3411227929642
323.252223164876;87.0300606744706
323.273846029108;86.7515211615938
323.29546889334;86.5094943990876
323.317091757572;86.2799387846231
323.338714621804;86.0399650847865
323.360337486036;85.7908446706404
323.381960350268;85.5396926530365
323.4035832145;85.2705162582367
323.425206078732;84.9700231879987
323.446828942964;84.6344831710322
323.468451807195;84.2600143912153
323.490074671427;83.8730229642351
323.511697535659;83.512332428361
323.533320399891;83.151028178822
323.554943264123;82.7656367321634
323.576566128355;82.3441164335594
323.598188992587;81.8741412941138
323.619811856819;81.3407034450099
323.641434721051;80.7380101562856
323.663057585283;80.0961590896162
323.684680449515;79.4778164909158
323.706303313747;78.8723823232231
323.727926177979;78.2333985404692
323.74954904221;77.5209763145685
323.771171906442;76.7500732366627
323.792794770674;76.0019983763213
323.814417634906;75.3156671118777
323.836040499138;74.6572066878246
323.85766336337;74.0028177329171
323.879286227602;73.3551266351819
323.900909091834;72.7501145097281
323.922531956066;72.1744600734178
323.944154820298;71.6169057540347
323.96577768453;71.1734157535549
323.987400548762;70.8401633749984
324.009023412993;70.5800648789029
324.030646277225;70.3670528449545
324.052269141457;70.1739756333153
324.073892005689;69.9840026753391
324.095514869921;69.7848769256438
324.117137734153;69.5874796408865
324.138760598385;69.3876828952376
324.160383462617;69.1698931961277
324.182006326849;68.929502620277
324.203629191081;68.6802393314613
324.225252055313;68.4340891623639
324.246874919545;68.1983658006363
324.268497783776;67.9744126743571
324.290120648008;67.7657500979429
324.31174351224;67.5915635540375
324.333366376472;67.523383552263
324.354989240704;67.5793039789339
324.376612104936;67.7310786576394
324.398234969168;67.9496602846356
324.4198578334;68.202993009804
324.441480697632;68.4752824089966
324.463103561864;68.7419775259224
324.484726426096;68.9669762612771
324.506349290328;69.1308539631071
324.52797215456;69.2063420093517
324.549595018791;69.1679330532669
324.571217883023;69.0086896616245
324.592840747255;68.7317264430993
324.614463611487;68.340581581937
324.636086475719;67.8538474055858
324.657709339951;67.3332127447184
324.679332204183;66.8696878701465
324.700955068415;66.4861617804521
324.722577932647;66.1701489219206
324.744200796879;65.9285442298312
324.765823661111;65.7994239445074
324.787446525343;65.8008626152402
