Name;ESR_BC_1_Natural_gon_80dg_result

Recipe
Accumulations;5;Number of accumulations
RetryCount;0;Number of retries on error
AbortOnError;True;Abort on error
EnableQFactorMeasurement;False;Enable/Disable q-Factor measurement
Bfrom;313;B from
Bto;363;B to
SweepTime;60;Sweep time
Modulation;0.2;Modulation
ModulationFreq;100;Modulation
BHoldEnabled;False;B hold enabled
BHold;0;B hold
MicrowavePower;2;Microwave power
MarkerEnabled;False;
MarkerStartField;0;
MarkerEndField;0;
Mode;;
KineticGFact;0;
KineticTotalTransientTime;0;
KineticTimeResolution;0;
TempFrom;5;
TempUseSlope;False;
TempTo;5;
TempdT;1;
TempSetupTime;0;
GonFrom;0;
GonTo;180;
GonSteps;20;
XRayEnabled;False;
XRayTime;3;
XRayVoltage;40;
XRayCurrent;0.5;
UVEnabled;False;
UVIntensity;0;
UVTime;0;
UVLeadTime;0;
UVWavelength;0;
PowSweepFrom;1;
PowSweepTo;5;
PowSweepSteps;5;
AmpModSweepFrom;0;
AmpModSweepTo;1;
AmpModSweepSteps;10;
ExtTriggerEnabled;False;
ExtTrigLeadTime;0;
ExtTrigOnTime;5;

Meas
BField [mT];MW_Absorption []
313.014710845947;591.195520177364
313.036336850385;590.716495032167
313.057962854823;590.303129799557
313.079588859261;589.955127913301
313.101214863699;589.663514799659
313.122840868137;589.408876144961
313.144466872574;589.182304617675
313.166092877012;588.974704019547
313.18771888145;588.772339879876
313.209344885888;588.562765962963
313.230970890326;588.351606453414
313.252596894764;588.138059889899
313.274222899202;587.913656479029
313.295848903639;587.675710813093
313.317474908077;587.429738492723
313.339100912515;587.178730779746
313.360726916953;586.915296591036
313.382352921391;586.619258478668
313.403978925829;586.264604912551
313.425604930267;585.852204894585
313.447230934705;585.412406558731
313.468856939142;584.94842247317
313.49048294358;584.435675113467
313.512108948018;583.850717218276
313.533734952456;583.177847774037
313.555360956894;582.41337545549
313.576986961332;581.570936039413
313.59861296577;580.69617421369
313.620238970207;579.831347422288
313.641864974645;578.987703756411
313.663490979083;578.169439649406
313.685116983521;577.369099482939
313.706742987959;576.566513541121
313.728368992397;575.760390606279
313.749994996835;574.981369137899
313.771621001272;574.289873327498
313.79324700571;573.69768729785
313.814873010148;573.194161917098
313.836499014586;572.75931040966
313.858125019024;572.350496207552
313.879751023462;571.952496545294
313.9013770279;571.570054821556
313.923003032338;571.220389872457
313.944629036775;570.89765220404
313.966255041213;570.591792985417
313.987881045651;570.298908366216
314.009507050089;570.018630901406
314.031133054527;569.751299739699
314.052759058965;569.498520593509
314.074385063403;569.26398131149
314.09601106784;569.041251094419
314.117637072278;568.81905212888
314.139263076716;568.597519552171
314.160889081154;568.373936331145
314.182515085592;568.140617618362
314.20414109003;567.882692199091
314.225767094468;567.593963294035
314.247393098905;567.275981338244
314.269019103343;566.918964974765
314.290645107781;566.511943950203
314.312271112219;566.05028517877
314.333897116657;565.527774192634
314.355523121095;564.927744482006
314.377149125533;564.2484258281
314.398775129971;563.514788036372
314.420401134408;562.737597883959
314.442027138846;561.908022637368
314.463653143284;561.035538961331
314.485279147722;560.139920492707
314.50690515216;559.225497916013
314.528531156598;558.283892969073
314.550157161036;557.335315638664
314.571783165473;556.405788895355
314.593409169911;555.48725083075
314.615035174349;554.588602223355
314.636661178787;553.743740385836
314.658287183225;552.971351829474
314.679913187663;552.276561047936
314.701539192101;551.664382721763
314.723165196539;551.117488399739
314.744791200976;550.627366152811
314.766417205414;550.191020143297
314.788043209852;549.800682313532
314.80966921429;549.455015688332
314.831295218728;549.153754261294
314.852921223166;548.889600522001
314.874547227604;548.658346071596
314.896173232041;548.456755020287
314.917799236479;548.280227290468
314.939425240917;548.121068003823
314.961051245355;547.972908689353
314.982677249793;547.826830300531
315.004303254231;547.668163690525
315.025929258669;547.484457473481
315.047555263106;547.266451774644
315.069181267544;546.998735240569
315.090807271982;546.663604275238
315.11243327642;546.246323721206
315.134059280858;545.747818188357
315.155685285296;545.181337475522
315.177311289734;544.559293576454
315.198937294171;543.886124815318
315.220563298609;543.163985728322
315.242189303047;542.406773330363
315.263815307485;541.631621343832
315.285441311923;540.851834425405
315.307067316361;540.096776875653
315.328693320799;539.369910877773
315.350319325237;538.66099929308
315.371945329674;537.970216205514
315.393571334112;537.301858415076
315.41519733855;536.652454479791
315.436823342988;536.013069817854
315.458449347426;535.375178921343
315.480075351864;534.757977304117
315.501701356302;534.163187310292
315.523327360739;533.569455005527
315.544953365177;532.960277973921
315.566579369615;532.322922728125
315.588205374053;531.642658027033
315.609831378491;530.921495034731
315.631457382929;530.179784781562
315.653083387367;529.425225895306
315.674709391804;528.652160329224
315.696335396242;527.855549616538
315.71796140068;527.013975702432
315.739587405118;526.101997278145
315.761213409556;525.16127750335
315.782839413994;524.249240266449
315.804465418432;523.373627561378
315.82609142287;522.510162587006
315.847717427307;521.654629878945
315.869343431745;520.851303253888
315.890969436183;520.095511099837
315.912595440621;519.350661834271
315.934221445059;518.619354619042
315.955847449497;517.927721337548
315.977473453935;517.279443281002
315.999099458372;516.644154774271
316.02072546281;516.026478827523
316.042351467248;515.460518745198
316.063977471686;514.936085842454
316.085603476124;514.428764080146
316.107229480562;513.933652384031
316.128855485;513.454709054299
316.150481489437;512.9572442589
316.172107493875;512.44525840756
316.193733498313;511.95440516238
316.215359502751;511.481158641789
316.236985507189;510.999949418001
316.258611511627;510.492628814598
316.280237516065;509.949041110807
316.301863520503;509.365113856348
316.32348952494;508.743316919165
316.345115529378;508.093128323952
316.366741533816;507.406209779948
316.388367538254;506.673710765461
316.409993542692;505.891643585586
316.43161954713;505.055160030745
316.453245551568;504.14014435577
316.474871556005;503.184208668902
316.496497560443;502.23017855842
316.518123564881;501.287278730714
316.539749569319;500.37914228062
316.561375573757;499.509539371776
316.583001578195;498.668152437292
316.604627582633;497.868084693429
316.62625358707;497.119812377791
316.647879591508;496.419351990528
316.669505595946;495.761821415999
316.691131600384;495.146725127108
316.712757604822;494.567491789545
316.73438360926;494.015773755865
316.756009613698;493.490554392722
316.777635618136;492.99426365778
316.799261622573;492.523200000704
316.820887627011;492.072474039222
316.842513631449;491.641219924229
316.864139635887;491.227725569471
316.885765640325;490.830147689752
316.907391644763;490.455112411567
316.929017649201;490.109043405504
316.950643653638;489.784230034172
316.972269658076;489.463421653801
316.993895662514;489.135746485745
317.015521666952;488.807594689203
317.03714767139;488.483197408262
317.058773675828;488.155569479083
317.080399680266;487.815972961783
317.102025684704;487.456272618794
317.123651689141;487.071574918113
317.145277693579;486.665889559195
317.166903698017;486.239726384273
317.188529702455;485.77880500596
317.210155706893;485.269186017411
317.231781711331;484.719218097178
317.253407715769;484.158460746714
317.275033720206;483.597864559025
317.296659724644;483.022873129306
317.318285729082;482.425261981946
317.33991173352;481.828910926649
317.361537737958;481.254990069163
317.383163742396;480.699480420816
317.404789746834;480.15559734187
317.426415751271;479.616617985253
317.448041755709;479.072392887513
317.469667760147;478.537378815294
317.491293764585;478.014095824183
317.512919769023;477.497394088426
317.534545773461;476.980473532049
317.556171777899;476.463566499073
317.577797782336;475.946331348067
317.599423786774;475.424096100084
317.621049791212;474.886387147034
317.64267579565;474.326159321952
317.664301800088;473.759877308785
317.685927804526;473.20038141677
317.707553808964;472.645912798175
317.729179813402;472.095538075094
317.750805817839;471.5362247824
317.772431822277;470.963652539096
317.794057826715;470.403148309749
317.815683831153;469.862643482109
317.837309835591;469.329452046771
317.858935840029;468.802075331156
317.880561844467;468.296757570981
317.902187848904;467.804055542739
317.923813853342;467.311773803042
317.94543985778;466.822570256452
317.967065862218;466.351343805685
317.988691866656;465.906259699032
318.010317871094;465.490447828567
318.031943875532;465.09923401941
318.053569879969;464.736826381211
318.075195884407;464.410249893738
318.096821888845;464.111224431417
318.118447893283;463.83958081878
318.140073897721;463.592807800274
318.161699902159;463.369077792574
318.183325906597;463.169310777291
318.204951911035;462.991727111948
318.226577915472;462.829036028893
318.24820391991;462.667478220632
318.269829924348;462.492331031801
318.291455928786;462.296051015814
318.313081933224;462.078367126671
318.334707937662;461.836467375614
318.3563339421;461.570609788062
318.377959946537;461.277529280652
318.399585950975;460.941508850891
318.421211955413;460.551684577097
318.442837959851;460.105907916943
318.464463964289;459.595833709695
318.486089968727;459.024708540725
318.507715973165;458.417927027545
318.529341977602;457.786583842115
318.55096798204;457.128105530812
318.572593986478;456.442701803623
318.594219990916;455.728760358697
318.615845995354;454.973910381695
318.637471999792;454.187543913105
318.65909800423;453.399545483471
318.680724008668;452.630603945497
318.702350013105;451.910330982163
318.723976017543;451.225321075739
318.745602021981;450.557307757198
318.767228026419;449.909261212047
318.788854030857;449.299866272184
318.810480035295;448.734577467444
318.832106039733;448.204525276133
318.85373204417;447.693876377993
318.875358048608;447.19291212967
318.896984053046;446.700232602175
318.918610057484;446.216906294918
318.940236061922;445.735048245668
318.96186206636;445.2385855265
318.983488070798;444.719665206628
319.005114075236;444.178420603956
319.026740079673;443.61796527102
319.048366084111;443.042128824014
319.069992088549;442.451775465593
319.091618092987;441.857489709166
319.113244097425;441.265924066107
319.134870101863;440.667683496935
319.156496106301;440.07025559561
319.178122110738;439.489522601164
319.199748115176;438.919883953247
319.221374119614;438.350408689623
319.243000124052;437.766481622296
319.26462612849;437.156104170166
319.286252132928;436.517350330511
319.307878137366;435.870424147685
319.329504141803;435.230771062882
319.351130146241;434.581757878724
319.372756150679;433.905609340325
319.394382155117;433.21268162859
319.416008159555;432.518770539463
319.437634163993;431.836915234389
319.459260168431;431.193981191266
319.480886172868;430.606777700091
319.502512177306;430.065453935573
319.524138181744;429.572460342835
319.545764186182;429.147770390397
319.56739019062;428.796705327398
319.589016195058;428.5143032573
319.610642199496;428.294314881163
319.632268203934;428.128251045193
319.653894208371;428.005928106448
319.675520212809;427.916760646844
319.697146217247;427.860551070194
319.718772221685;427.820856240024
319.740398226123;427.775819833268
319.762024230561;427.716489676893
319.783650234999;427.633096778689
319.805276239436;427.516334440485
319.826902243874;427.361902987481
319.848528248312;427.164988640183
319.87015425275;426.911911095273
319.891780257188;426.58801006383
319.913406261626;426.207572007744
319.935032266064;425.812052888432
319.956658270501;425.428885045293
319.978284274939;425.049253281061
319.999910279377;424.666426219671
320.021536283815;424.290782206081
320.043162288253;423.93551279045
320.064788292691;423.610664333046
320.086414297129;423.333783143271
320.108040301567;423.114921678785
320.129666306004;422.963483375358
320.151292310442;422.90071064513
320.17291831488;422.936173970935
320.194544319318;423.074204721095
320.216170323756;423.291320584215
320.237796328194;423.564994063217
320.259422332632;423.889516031717
320.281048337069;424.245302299997
320.302674341507;424.607150355606
320.324300345945;424.950173378488
320.345926350383;425.235990418108
320.367552354821;425.385739816843
320.389178359259;425.351667085846
320.410804363697;425.130580299214
320.432430368134;424.71314446105
320.454056372572;424.08567967093
320.47568237701;423.255543415667
320.497308381448;422.234192860043
320.518934385886;420.991637630829
320.540560390324;419.469138024931
320.562186394762;417.709843399899
320.5838123992;415.845877957677
320.605438403637;413.972632358774
320.627064408075;412.140110383839
320.648690412513;410.376560655106
320.670316416951;408.680224919844
320.691942421389;407.04571966119
320.713568425827;405.507228707707
320.735194430265;404.134823044703
320.756820434702;402.947456262394
320.77844643914;401.879195907357
320.800072443578;400.867731420174
320.821698448016;399.890629092827
320.843324452454;398.942541141177
320.864950456892;398.018375339029
320.88657646133;397.117658745283
320.908202465767;396.224400979086
320.929828470205;395.310568304408
320.951454474643;394.321479033789
320.973080479081;393.195195787432
320.994706483519;391.93347791813
321.016332487957;390.605606707219
321.037958492395;389.246946828478
321.059584496833;387.847017155857
321.08121050127;386.373090172047
321.102836505708;384.833189453599
321.124462510146;383.259408485971
321.146088514584;381.668431454133
321.167714519022;380.077219373674
321.18934052346;378.48877242626
321.210966527898;376.877695613559
321.232592532335;375.268413360248
321.254218536773;373.732425567136
321.275844541211;372.354593028595
321.297470545649;371.155664265347
321.319096550087;370.111027769471
321.340722554525;369.192001893193
321.362348558963;368.403112049555
321.383974563401;367.772180698005
321.405600567838;367.303103200791
321.427226572276;366.971497107464
321.448852576714;366.756905589405
321.470478581152;366.649234180137
321.49210458559;366.630085252889
321.513730590028;366.666479696824
321.535356594466;366.731024210804
321.556982598903;366.798914647823
321.578608603341;366.854414889652
321.600234607779;366.884347871749
321.621860612217;366.867634206368
321.643486616655;366.787475455908
321.665112621093;366.639908772307
321.686738625531;366.429083056663
321.708364629968;366.163886206735
321.729990634406;365.860465041779
321.751616638844;365.534304248564
321.773242643282;365.188675293088
321.79486864772;364.82678564402
321.816494652158;364.471310078435
321.838120656596;364.143698782162
321.859746661033;363.852373319143
321.881372665471;363.595510892347
321.902998669909;363.360589491443
321.924624674347;363.141321845682
321.946250678785;362.935404385706
321.967876683223;362.731463687012
321.989502687661;362.510991219991
322.011128692099;362.262896856859
322.032754696536;361.980162097925
322.054380700974;361.652682452585
322.076006705412;361.277571986442
322.09763270985;360.862819945025
322.119258714288;360.404000925317
322.140884718726;359.887500221541
322.162510723164;359.313651948516
322.184136727601;358.693834932319
322.205762732039;358.034774095565
322.227388736477;357.340389593822
322.249014740915;356.602567415087
322.270640745353;355.813216346559
322.292266749791;354.973333398699
322.313892754229;354.08399053778
322.335518758666;353.147606806553
322.357144763104;352.17650688982
322.378770767542;351.174722339191
322.40039677198;350.107325108609
322.422022776418;348.955652374174
322.443648780856;347.723694355729
322.465274785294;346.466545900471
322.486900789732;345.215671860617
322.508526794169;343.953674895914
322.530152798607;342.653135644034
322.551778803045;341.312690563877
322.573404807483;340.015958866971
322.595030811921;338.797108989921
322.616656816359;337.616499495895
322.638282820797;336.438780056282
322.659908825234;335.293431867787
322.681534829672;334.214793604499
322.70316083411;333.201581473198
322.724786838548;332.216448535281
322.746412842986;331.224648428313
322.768038847424;330.2358208736
322.789664851862;329.296714025696
322.811290856299;328.435066008748
322.832916860737;327.6412427666
322.854542865175;326.894749320679
322.876168869613;326.158957434363
322.897794874051;325.448043754135
322.919420878489;324.768025283022
322.941046882927;324.10099361621
322.962672887365;323.434849081364
322.984298891802;322.778392190646
323.00592489624;322.139841405829
323.027550900678;321.504986907971
323.049176905116;320.857615516415
323.070802909554;320.183096628078
323.092428913992;319.469159952375
323.11405491843;318.737212652145
323.135680922867;318.019854767236
323.157306927305;317.308309017285
323.178932931743;316.592576854859
323.200558936181;315.881668813209
323.222184940619;315.192181307132
323.243810945057;314.546373252705
323.265436949495;313.940692346461
323.287062953932;313.351218703442
323.30868895837;312.760688279391
323.330314962808;312.190405258695
323.351940967246;311.67235473423
323.373566971684;311.197120220211
323.395192976122;310.73401585151
323.41681898056;310.267607272823
323.438444984997;309.803405352277
323.460070989435;309.365983390177
323.481696993873;308.950497096164
323.503322998311;308.539907199023
323.524949002749;308.128692207243
323.546575007187;307.7189336254
323.568201011625;307.310394931789
323.589827016063;306.897857165405
323.6114530205;306.477066916366
323.633079024938;306.053524910324
323.654705029376;305.641726312978
323.676331033814;305.244894047511
323.697957038252;304.856466524901
323.71958304269;304.466259702567
323.741209047128;304.063229026434
323.762835051565;303.645597958406
323.784461056003;303.231425844313
323.806087060441;302.840465792008
323.827713064879;302.454130216015
323.849339069317;302.04775446733
323.870965073755;301.612729741333
323.892591078193;301.14185814623
323.914217082631;300.620146652777
323.935843087068;300.044115276352
323.957469091506;299.419893979843
323.979095095944;298.748564566181
324.000721100382;298.038779076112
324.02234710482;297.286666205524
324.043973109258;296.474309610536
324.065599113696;295.615739661353
324.087225118133;294.748775490526
324.108851122571;293.896156954745
324.130477127009;293.036855418395
324.152103131447;292.162986284196
324.173729135885;291.279857045285
324.195355140323;290.395388295509
324.216981144761;289.503456225116
324.238607149198;288.564384505491
324.260233153636;287.574415169922
324.281859158074;286.577827869186
324.303485162512;285.579100398181
324.32511116695;284.564733157277
324.346737171388;283.532803267533
324.368363175826;282.438576759608
324.389989180264;281.260298360557
324.411615184701;279.98989698897
324.433241189139;278.60223999899
324.454867193577;277.113688704672
324.476493198015;275.57319774445
324.498119202453;273.999122226134
324.519745206891;272.392822500415
324.541371211329;270.779139490273
324.562997215766;269.163020416112
324.584623220204;267.525530292607
324.606249224642;265.879376510028
324.62787522908;264.266125063781
324.649501233518;262.671219353329
324.671127237956;261.069627575139
324.692753242394;259.46185622783
324.714379246831;257.884964617524
324.736005251269;256.352483317922
324.757631255707;254.80278518903
324.779257260145;253.234501680524
