Name;ESR_BC_1_Natural_gon_180dg_result

Recipe
Accumulations;5;Number of accumulations
RetryCount;0;Number of retries on error
AbortOnError;True;Abort on error
EnableQFactorMeasurement;False;Enable/Disable q-Factor measurement
Bfrom;313;B from
Bto;363;B to
SweepTime;60;Sweep time
Modulation;0.2;Modulation
ModulationFreq;100;Modulation
BHoldEnabled;False;B hold enabled
BHold;0;B hold
MicrowavePower;2;Microwave power
MarkerEnabled;False;
MarkerStartField;0;
MarkerEndField;0;
Mode;;
KineticGFact;0;
KineticTotalTransientTime;0;
KineticTimeResolution;0;
TempFrom;5;
TempUseSlope;False;
TempTo;5;
TempdT;1;
TempSetupTime;0;
GonFrom;0;
GonTo;180;
GonSteps;20;
XRayEnabled;False;
XRayTime;3;
XRayVoltage;40;
XRayCurrent;0.5;
UVEnabled;False;
UVIntensity;0;
UVTime;0;
UVLeadTime;0;
UVWavelength;0;
PowSweepFrom;1;
PowSweepTo;5;
PowSweepSteps;5;
AmpModSweepFrom;0;
AmpModSweepTo;1;
AmpModSweepSteps;10;
ExtTriggerEnabled;False;
ExtTrigLeadTime;0;
ExtTrigOnTime;5;

Meas
BField [mT];MW_Absorption []
313.013287506104;529.643018696035
313.034914431254;528.742079863237
313.056541356405;527.805583655938
313.078168281555;526.882533410645
313.099795206706;526.064209612901
313.121422131856;525.338336707833
313.143049057007;524.677203516545
313.164675982157;524.078848149864
313.186302907308;523.554202834876
313.207929832459;523.106158862225
313.229556757609;522.728370728705
313.25118368276;522.406644781368
313.27281060791;522.118118711885
313.294437533061;521.852891856597
313.316064458211;521.622651397552
313.337691383362;521.421751255058
313.359318308512;521.224457725514
313.380945233663;521.015760287136
313.402572158814;520.793104292278
313.424199083964;520.551448207391
313.445826009115;520.279146553167
313.467452934265;519.955614106423
313.489079859416;519.56391194378
313.510706784566;519.102345125987
313.532333709717;518.579816493293
313.553960634867;518.007903392708
313.575587560018;517.374363838728
313.597214485168;516.695416874934
313.618841410319;516.016233265082
313.64046833547;515.347830602162
313.66209526062;514.667609466801
313.683722185771;513.953115214512
313.705349110921;513.250452176484
313.726976036072;512.60822164767
313.748602961222;511.997973764182
313.770229886373;511.417869936837
313.791856811523;510.887077189907
313.813483736674;510.408070174154
313.835110661825;509.976920150837
313.856737586975;509.573683611684
313.878364512126;509.156743056816
313.899991437276;508.701166210925
313.921618362427;508.218286311163
313.943245287577;507.705404498299
313.964872212728;507.139874202886
313.986499137878;506.499850915291
314.008126063029;505.777433639136
314.02975298818;504.971007352175
314.05137991333;504.083440056095
314.073006838481;503.120628340425
314.094633763631;502.103020501959
314.116260688782;501.086999263259
314.137887613932;500.102490912112
314.159514539083;499.106588513837
314.181141464233;498.075288739886
314.202768389384;497.048874583181
314.224395314535;496.071552309751
314.246022239685;495.141309018501
314.267649164836;494.209560350887
314.289276089986;493.251414649876
314.310903015137;492.301266426197
314.332529940287;491.373176559512
314.354156865438;490.455553102664
314.375783790588;489.553679607139
314.397410715739;488.653733680131
314.41903764089;487.746020774307
314.44066456604;486.858347167572
314.462291491191;486.038630266724
314.483918416341;485.296324129673
314.505545341492;484.578861874976
314.527172266642;483.855784416517
314.548799191793;483.153576483601
314.570426116943;482.502598374726
314.592053042094;481.902395319891
314.613679967244;481.342050659483
314.635306892395;480.810972202206
314.656933817546;480.290905669724
314.678560742696;479.781591523288
314.700187667847;479.298688688893
314.721814592997;478.843673387975
314.743441518148;478.391009189065
314.765068443298;477.922271545732
314.786695368449;477.438128839464
314.808322293599;476.940895023526
314.82994921875;476.438855581632
314.851576143901;475.944740573226
314.873203069051;475.455681160252
314.894829994202;474.95469315659
314.916456919352;474.422885581678
314.938083844503;473.865505077707
314.959710769653;473.316300144973
314.981337694804;472.789436141885
315.002964619954;472.281716193537
315.024591545105;471.797660635283
315.046218470256;471.348138483639
315.067845395406;470.931392130158
315.089472320557;470.532629450855
315.111099245707;470.14239837512
315.132726170858;469.757027022527
315.154353096008;469.380866613079
315.175980021159;469.018020076954
315.197606946309;468.662376361202
315.21923387146;468.301480109396
315.240860796611;467.931510673483
315.262487721761;467.560627594575
315.284114646912;467.180609063259
315.305741572062;466.774506168961
315.327368497213;466.321287948346
315.348995422363;465.824219841658
315.370622347514;465.296230124177
315.392249272664;464.726150738355
315.413876197815;464.095140272818
315.435503122966;463.407590773988
315.457130048116;462.696086099589
315.478756973267;461.976150510117
315.500383898417;461.247957507336
315.522010823568;460.506459423288
315.543637748718;459.740239162604
315.565264673869;458.936299305318
315.586891599019;458.101567364244
315.60851852417;457.275405940659
315.630145449321;456.473527255295
315.651772374471;455.682769973185
315.673399299622;454.867848545094
315.695026224772;454.011551411777
315.716653149923;453.141450401576
315.738280075073;452.276911637678
315.759907000224;451.400262558916
315.781533925374;450.484253207171
315.803160850525;449.542489480238
315.824787775675;448.609343832413
315.846414700826;447.687691540415
315.868041625977;446.755773723113
315.889668551127;445.783443256939
315.911295476278;444.770555488999
315.932922401428;443.743260881882
315.954549326579;442.76247078077
315.976176251729;441.858908612812
315.99780317688;441.009037643071
316.01943010203;440.184402348666
316.041057027181;439.379694803301
316.062683952332;438.618621338035
316.084310877482;437.916869940545
316.105937802633;437.267029297983
316.127564727783;436.653932660012
316.149191652934;436.083070799521
316.170818578084;435.571737461988
316.192445503235;435.125483513578
316.214072428385;434.737768125675
316.235699353536;434.391238532775
316.257326278687;434.069597960894
316.278953203837;433.759664597877
316.300580128988;433.452171568615
316.322207054138;433.140008120151
316.343833979289;432.814654396934
316.365460904439;432.468459400951
316.38708782959;432.088346177744
316.40871475474;431.667072568088
316.430341679891;431.21525458297
316.451968605042;430.723845369087
316.473595530192;430.187065889065
316.495222455343;429.62867108212
316.516849380493;429.074842238219
316.538476305644;428.524086638702
316.560103230794;427.957231474763
316.581730155945;427.35310333907
316.603357081095;426.712386769024
316.624984006246;426.042890799858
316.646610931397;425.342146115794
316.668237856547;424.641931248691
316.689864781698;423.971313000417
316.711491706848;423.301825820618
316.733118631999;422.589265850289
316.754745557149;421.847348076175
316.7763724823;421.126237308562
316.79799940745;420.410338587596
316.819626332601;419.670614514869
316.841253257751;418.908133071214
316.862880182902;418.144586649969
316.884507108053;417.418757219789
316.906134033203;416.753720256615
316.927760958354;416.137542818324
316.949387883504;415.544362143493
316.971014808655;414.958280681876
316.992641733805;414.415591726184
317.014268658956;413.963859064627
317.035895584106;413.60467072842
317.057522509257;413.337996168675
317.079149434408;413.145906738659
317.100776359558;413.004767835414
317.122403284709;412.895814414147
317.144030209859;412.804363100626
317.16565713501;412.714537285847
317.18728406016;412.612974346382
317.208910985311;412.491998408426
317.230537910461;412.341224581752
317.252164835612;412.147952177389
317.273791760763;411.914606543359
317.295418685913;411.660276848645
317.317045611064;411.392265235286
317.338672536214;411.101468112416
317.360299461365;410.783377154938
317.381926386515;410.457904974892
317.403553311666;410.139232751811
317.425180236816;409.821466277701
317.446807161967;409.491821987196
317.468434087118;409.150219584968
317.490061012268;408.807725721895
317.511687937419;408.466706030377
317.533314862569;408.118968485868
317.55494178772;407.75163912705
317.57656871287;407.355840231161
317.598195638021;406.928165636044
317.619822563171;406.468286318665
317.641449488322;405.970665811639
317.663076413473;405.438422899749
317.684703338623;404.877358860806
317.706330263774;404.281717020676
317.727957188924;403.639958869649
317.749584114075;402.974812223581
317.771211039225;402.305400083014
317.792837964376;401.627773897553
317.814464889526;400.933437157432
317.836091814677;400.209194916005
317.857718739828;399.45379384203
317.879345664978;398.727842131873
317.900972590129;398.054313236293
317.922599515279;397.408170278353
317.94422644043;396.768799419039
317.96585336558;396.138578795944
317.987480290731;395.52107960043
318.009107215881;394.905418142288
318.030734141032;394.286420624115
318.052361066182;393.665764739507
318.073987991333;393.034237058156
318.095614916484;392.388723647074
318.117241841634;391.727390360135
318.138868766785;391.054189037895
318.160495691935;390.379061264318
318.182122617086;389.695647147331
318.203749542236;388.983196498484
318.225376467387;388.232358023956
318.247003392537;387.46133426992
318.268630317688;386.694139211627
318.290257242839;385.949353962093
318.311884167989;385.236021004691
318.33351109314;384.54837876398
318.35513801829;383.87933426189
318.376764943441;383.227951419189
318.398391868591;382.59382362068
318.420018793742;381.975894949101
318.441645718892;381.362553822073
318.463272644043;380.738557095371
318.484899569194;380.122964898366
318.506526494344;379.542123742478
318.528153419495;378.970914026834
318.549780344645;378.383366408101
318.571407269796;377.793906561864
318.593034194946;377.219179296297
318.614661120097;376.643460820532
318.636288045247;376.069852377795
318.657914970398;375.522649513268
318.679541895549;375.03044002049
318.701168820699;374.593265117772
318.72279574585;374.198011257308
318.744422671;373.841912417457
318.766049596151;373.532893941361
318.787676521301;373.281074702141
318.809303446452;373.091226974901
318.830930371602;372.964516203037
318.852557296753;372.893365554258
318.874184221904;372.865729249061
318.895811147054;372.868259937962
318.917438072205;372.886073705728
318.939064997355;372.904908396598
318.960691922506;372.913388312332
318.982318847656;372.90071399124
319.003945772807;372.862603061616
319.025572697957;372.802225945422
319.047199623108;372.722471859957
319.068826548259;372.627988404754
319.090453473409;372.524584692971
319.11208039856;372.415183199963
319.13370732371;372.300052113544
319.155334248861;372.188300351933
319.176961174011;372.097760469292
319.198588099162;372.032696932642
319.220215024312;371.991162219976
319.241841949463;371.971509280683
319.263468874613;371.970502640955
319.285095799764;371.973310466712
319.306722724915;371.970253277539
319.328349650065;371.959480162766
319.349976575216;371.930834444438
319.371603500366;371.871520802334
319.393230425517;371.779859476745
319.414857350667;371.661690171796
319.436484275818;371.51346714814
319.458111200968;371.325086913822
319.479738126119;371.089246033249
319.50136505127;370.810501851041
319.52299197642;370.500058644372
319.544618901571;370.169284530963
319.566245826721;369.81793383553
319.587872751872;369.453004053916
319.609499677022;369.0783792551
319.631126602173;368.687312318409
319.652753527323;368.285241251441
319.674380452474;367.887722252154
319.696007377625;367.499765500714
319.717634302775;367.115823480771
319.739261227926;366.730876018284
319.760888153076;366.3354099166
319.782515078227;365.911809672974
319.804142003377;365.453921011805
319.825768928528;364.960791511275
319.847395853678;364.424196399807
319.869022778829;363.86363123757
319.89064970398;363.313574087917
319.91227662913;362.772943944452
319.933903554281;362.246440574737
319.955530479431;361.758393352044
319.977157404582;361.331815804425
319.998784329732;360.973569682701
320.020411254883;360.692463385855
320.042038180033;360.496702601597
320.063665105184;360.396125111986
320.085292030335;360.413820571303
320.106918955485;360.561241967715
320.128545880636;360.844227567598
320.150172805786;361.245561796493
320.171799730937;361.753344515947
320.193426656087;362.36156480582
320.215053581238;363.048770045713
320.236680506388;363.76906033409
320.258307431539;364.472662161023
320.279934356689;365.113745620801
320.30156128184;365.653947156735
320.323188206991;366.066788924205
320.344815132141;366.336844552548
320.366442057292;366.438995420091
320.388068982442;366.335954802135
320.409695907593;366.012569708278
320.431322832743;365.48681376701
320.452949757894;364.776916703121
320.474576683044;363.895257823759
320.496203608195;362.855030429008
320.517830533346;361.666139794949
320.539457458496;360.335335420878
320.561084383647;358.911977026812
320.582711308797;357.472207295811
320.604338233948;356.051030699127
320.625965159098;354.668603452874
320.647592084249;353.356439158908
320.669219009399;352.13480431881
320.69084593455;351.019535218882
320.712472859701;350.04912753735
320.734099784851;349.236884916197
320.755726710002;348.545071648232
320.777353635152;347.9244327753
320.798980560303;347.337767137976
320.820607485453;346.764552932655
320.842234410604;346.228887007417
320.863861335754;345.716494976545
320.885488260905;345.173618594857
320.907115186056;344.576534948284
320.928742111206;343.913859715756
320.950369036357;343.172022802096
320.971995961507;342.330010977469
320.993622886658;341.376680437633
321.015249811808;340.328894662633
321.036876736959;339.192053181543
321.058503662109;337.955386479289
321.08013058726;336.638734235493
321.101757512411;335.293848724323
321.123384437561;333.952500970442
321.145011362712;332.614983271384
321.166638287862;331.266380242844
321.188265213013;329.924620594628
321.209892138163;328.628517583876
321.231519063314;327.387861920437
321.253145988464;326.19234730733
321.274772913615;325.063686596985
321.296399838766;324.066281347881
321.318026763916;323.245402102478
321.339653689067;322.596679680295
321.361280614217;322.101483661069
321.382907539368;321.748126139374
321.404534464518;321.522967314681
321.426161389669;321.404895978058
321.447788314819;321.373561110679
321.46941523997;321.41451548655
321.49104216512;321.521256207502
321.512669090271;321.676868002969
321.534296015422;321.869279359197
321.555922940572;322.08960656782
321.577549865723;322.329038176433
321.599176790873;322.582305172292
321.620803716024;322.838944461535
321.642430641174;323.085223707382
321.664057566325;323.309913206737
321.685684491475;323.507303219064
321.707311416626;323.680684869624
321.728938341777;323.838933861878
321.750565266927;323.985959269931
321.772192192078;324.116567341712
321.793819117228;324.211734852957
321.815446042379;324.258219507077
321.837072967529;324.269586017492
321.85869989268;324.25824578682
321.88032681783;324.22493314412
321.901953742981;324.176515654959
321.923580668132;324.124267331924
321.945207593282;324.070712085545
321.966834518433;324.016078817534
321.988461443583;323.963373076885
322.010088368734;323.917151076419
322.031715293884;323.87418127821
322.053342219035;323.831155521722
322.074969144185;323.794826841472
322.096596069336;323.770142255174
322.118222994487;323.758145810547
322.139849919637;323.754090411704
322.161476844788;323.742986981857
322.183103769938;323.719938867674
322.204730695089;323.683088039839
322.226357620239;323.626312719318
322.24798454539;323.541425577054
322.26961147054;323.425271467169
322.291238395691;323.275176712407
322.312865320842;323.091662741211
322.334492245992;322.870355745215
322.356119171143;322.608036671079
322.377746096293;322.322668809286
322.399373021444;322.037433991428
322.420999946594;321.753862918861
322.442626871745;321.458422056601
322.464253796895;321.140942352095
322.485880722046;320.805172277488
322.507507647197;320.460477582152
322.529134572347;320.104111585473
322.550761497498;319.71838033823
322.572388422648;319.268845694766
322.594015347799;318.746035066806
322.615642272949;318.167346389578
322.6372691981;317.541033139891
322.65889612325;316.861931120231
322.680523048401;316.111523848069
322.702149973551;315.282405120026
322.723776898702;314.362523323322
322.745403823853;313.336238479211
322.767030749003;312.249532315584
322.788657674154;311.178863552504
322.810284599304;310.108609555129
322.831911524455;309.007205704573
322.853538449605;307.89094186548
322.875165374756;306.792163248337
322.896792299906;305.702518225851
322.918419225057;304.632723065908
322.940046150208;303.623776923649
322.961673075358;302.677366194912
322.983300000509;301.775238317134
323.004926925659;300.944186428049
323.02655385081;300.229207664978
323.04818077596;299.63198967286
323.069807701111;299.125384115727
323.091434626261;298.691638823303
323.113061551412;298.330763616023
323.134688476563;298.053043226835
323.156315401713;297.857066966302
323.177942326864;297.735503462352
323.199569252014;297.682980997164
323.221196177165;297.69030993648
323.242823102315;297.74108778035
323.264450027466;297.825228249454
323.286076952616;297.94151382328
323.307703877767;298.089168189735
323.329330802918;298.265807833072
323.350957728068;298.464835365691
323.372584653219;298.681027773488
323.394211578369;298.922939676923
323.41583850352;299.198880298798
323.43746542867;299.511247939031
323.459092353821;299.853591165936
323.480719278971;300.224616555941
323.502346204122;300.628974267827
323.523973129273;301.057805312919
323.545600054423;301.476610944725
323.567226979574;301.862365047727
323.588853904724;302.215419324673
323.610480829875;302.528933676332
323.632107755025;302.790574542501
323.653734680176;302.997140774725
323.675361605326;303.140050177746
323.696988530477;303.21033831801
323.718615455627;303.216672841059
323.740242380778;303.16610802708
323.761869305929;303.061950885071
323.783496231079;302.907619032447
323.80512315623;302.702117320218
323.82675008138;302.447437858511
323.848377006531;302.149761702636
323.870003931681;301.805038239582
323.891630856832;301.398448967958
323.913257781982;300.919449684665
323.934884707133;300.374125651441
323.956511632284;299.758072070104
323.978138557434;299.065045986304
323.999765482585;298.293973051414
324.021392407735;297.423920453449
324.043019332886;296.431322009886
324.064646258036;295.358648919783
324.086273183187;294.26359234975
324.107900108337;293.14631259118
324.129527033488;291.992250718197
324.151153958639;290.813239684673
324.172780883789;289.634887260988
324.19440780894;288.474524566671
324.21603473409;287.33088577209
324.237661659241;286.186984093273
324.259288584391;285.054062426961
324.280915509542;283.990166760148
324.302542434692;283.023148625702
324.324169359843;282.111637922296
324.345796284994;281.228433637884
324.367423210144;280.375488166177
324.389050135295;279.529365616595
324.410677060445;278.648531162884
324.432303985596;277.749958048252
324.453930910746;276.831161606501
324.475557835897;275.878661109835
324.497184761047;274.867812560037
324.518811686198;273.785161767621
324.540438611349;272.63457617126
324.562065536499;271.400814832728
324.58369246165;270.093169093911
324.6053193868;268.740165888193
324.626946311951;267.355379622744
324.648573237101;265.90975504267
324.670200162252;264.358197265996
324.691827087402;262.683626754484
324.713454012553;260.948548382854
324.735080937704;259.256644425083
324.756707862854;257.637582765575
