Name;ESR_BC_1_Natural_gon_20dg_result

Recipe
Accumulations;5;Number of accumulations
RetryCount;0;Number of retries on error
AbortOnError;True;Abort on error
EnableQFactorMeasurement;False;Enable/Disable q-Factor measurement
Bfrom;313;B from
Bto;363;B to
SweepTime;60;Sweep time
Modulation;0.2;Modulation
ModulationFreq;100;Modulation
BHoldEnabled;False;B hold enabled
BHold;0;B hold
MicrowavePower;2;Microwave power
MarkerEnabled;False;
MarkerStartField;0;
MarkerEndField;0;
Mode;;
KineticGFact;0;
KineticTotalTransientTime;0;
KineticTimeResolution;0;
TempFrom;5;
TempUseSlope;False;
TempTo;5;
TempdT;1;
TempSetupTime;0;
GonFrom;0;
GonTo;180;
GonSteps;20;
XRayEnabled;False;
XRayTime;3;
XRayVoltage;40;
XRayCurrent;0.5;
UVEnabled;False;
UVIntensity;0;
UVTime;0;
UVLeadTime;0;
UVWavelength;0;
PowSweepFrom;1;
PowSweepTo;5;
PowSweepSteps;5;
AmpModSweepFrom;0;
AmpModSweepTo;1;
AmpModSweepSteps;10;
ExtTriggerEnabled;False;
ExtTrigLeadTime;0;
ExtTrigOnTime;5;

Meas
BField [mT];MW_Absorption []
313.032503967285;508.335863454986
313.054128029362;507.809523160635
313.075752091439;507.270634773251
313.097376153516;506.731506202861
313.119000215592;506.185423588391
313.140624277669;505.630744878157
313.162248339746;505.053420417681
313.183872401823;504.452511366105
313.2054964639;503.854423403647
313.227120525976;503.269260399104
313.248744588053;502.679541301697
313.27036865013;502.073751846677
313.291992712207;501.464219862381
313.313616774284;500.874631720289
313.33524083636;500.299324681669
313.356864898437;499.709386104513
313.378488960514;499.098021722364
313.400113022591;498.483833047731
313.421737084668;497.882225044415
313.443361146744;497.294931828403
313.464985208821;496.715114370989
313.486609270898;496.134815916829
313.508233332975;495.545009978519
313.529857395052;494.941716222092
313.551481457128;494.328995887498
313.573105519205;493.738624471006
313.594729581282;493.203487577198
313.616353643359;492.710059600903
313.637977705436;492.238375652803
313.659601767512;491.792621388461
313.681225829589;491.402334438608
313.702849891666;491.060762764783
313.724473953743;490.754378785735
313.746098015819;490.480591390792
313.767722077896;490.232940803901
313.789346139973;490.005265235391
313.81097020205;489.780932568084
313.832594264127;489.545242242547
313.854218326203;489.306529640888
313.87584238828;489.060956796265
313.897466450357;488.789358212624
313.919090512434;488.477805831236
313.940714574511;488.127224982493
313.962338636588;487.748498669086
313.983962698664;487.334797002472
314.005586760741;486.860332996895
314.027210822818;486.334470235364
314.048834884895;485.79771815452
314.070458946971;485.254990772288
314.092083009048;484.696943656132
314.113707071125;484.132520295195
314.135331133202;483.569362397562
314.156955195279;482.996085000282
314.178579257355;482.42525348055
314.200203319432;481.886069201914
314.221827381509;481.385969176651
314.243451443586;480.925217596777
314.265075505663;480.499829663088
314.286699567739;480.09752006506
314.308323629816;479.711491485957
314.329947691893;479.325117884677
314.35157175397;478.920783214486
314.373195816047;478.505715786537
314.394819878123;478.091471747867
314.4164439402;477.65941681203
314.438068002277;477.183762898837
314.459692064354;476.669027225741
314.481316126431;476.121074186547
314.502940188507;475.52531308057
314.524564250584;474.845685699818
314.546188312661;474.088518759717
314.567812374738;473.28582588637
314.589436436815;472.457064129809
314.611060498891;471.64138870774
314.632684560968;470.848125195004
314.654308623045;470.06924209721
314.675932685122;469.33590719042
314.697556747199;468.674014692301
314.719180809275;468.082870835424
314.740804871352;467.549827049183
314.762428933429;467.079335172839
314.784052995506;466.670639296522
314.805677057583;466.305097055908
314.827301119659;465.957546683591
314.848925181736;465.615645590607
314.870549243813;465.275585713837
314.89217330589;464.933953265002
314.913797367967;464.576544474219
314.935421430043;464.179286896719
314.95704549212;463.726787849775
314.978669554197;463.225459377129
315.000293616274;462.694036838065
315.021917678351;462.148633225159
315.043541740427;461.600234920021
315.065165802504;461.057876206668
315.086789864581;460.544090998686
315.108413926658;460.08344192915
315.130037988735;459.693932003399
315.151662050811;459.378955620106
315.173286112888;459.1218580815
315.194910174965;458.9160588861
315.216534237042;458.760858632204
315.238158299119;458.650702852871
315.259782361195;458.572160586484
315.281406423272;458.514750554356
315.303030485349;458.458240881709
315.324654547426;458.395499624318
315.346278609503;458.303219946659
315.367902671579;458.15605322017
315.389526733656;457.956413065752
315.411150795733;457.73209752932
315.43277485781;457.475131247129
315.454398919887;457.149341486574
315.476022981963;456.758474222742
315.49764704404;456.313035585147
315.519271106117;455.832305582161
315.540895168194;455.332562811507
315.562519230271;454.831899297902
315.584143292347;454.338252617248
315.605767354424;453.85900984744
315.627391416501;453.412684203746
315.649015478578;453.001749818597
315.670639540655;452.624689580014
315.692263602731;452.28559809812
315.713887664808;451.974464330705
315.735511726885;451.688405598552
315.757135788962;451.434339686368
315.778759851039;451.20042585743
315.800383913115;450.954812091612
315.822007975192;450.676250288473
315.843632037269;450.352675775312
315.865256099346;449.977409292655
315.886880161423;449.543517108102
315.908504223499;449.030733874892
315.930128285576;448.41253919847
315.951752347653;447.692072675125
315.97337640973;446.889203237179
315.995000471807;446.037534437578
316.016624533883;445.131599280919
316.03824859596;444.153538800402
316.059872658037;443.171082131115
316.081496720114;442.241253600197
316.103120782191;441.364688821617
316.124744844267;440.53391998007
316.146368906344;439.738375671518
316.167992968421;438.98157227128
316.189617030498;438.287883149788
316.211241092574;437.680663182288
316.232865154651;437.143986221224
316.254489216728;436.662071700998
316.276113278805;436.253194182318
316.297737340882;435.924639231932
316.319361402958;435.65100521529
316.340985465035;435.40871045168
316.362609527112;435.188047267362
316.384233589189;434.991572202763
316.405857651266;434.817747879982
316.427481713343;434.650759481135
316.449105775419;434.450449050362
316.470729837496;434.193778359518
316.492353899573;433.886069782335
316.51397796165;433.54238480816
316.535602023726;433.159080553212
316.557226085803;432.720072744285
316.57885014788;432.221416488555
316.600474209957;431.659200879528
316.622098272034;431.054556941147
316.64372233411;430.451827267758
316.665346396187;429.874666594456
316.686970458264;429.313047775972
316.708594520341;428.76145355905
316.730218582418;428.23609570025
316.751842644494;427.770233650791
316.773466706571;427.385563383506
316.795090768648;427.079357628827
316.816714830725;426.844873610015
316.838338892802;426.675084586923
316.859962954878;426.564716943566
316.881587016955;426.507523005177
316.903211079032;426.479357421298
316.924835141109;426.462187615504
316.946459203186;426.43662324113
316.968083265262;426.392310003037
316.989707327339;426.307807799244
317.011331389416;426.171446197433
317.032955451493;425.979011252408
317.05457951357;425.724057026036
317.076203575646;425.406454530315
317.097827637723;425.03733397999
317.1194516998;424.630947836082
317.141075761877;424.196075203372
317.162699823954;423.748572259344
317.18432388603;423.302591460872
317.205947948107;422.879665714171
317.227572010184;422.516619238814
317.249196072261;422.238586758425
317.270820134338;422.047160267887
317.292444196414;421.935143968829
317.314068258491;421.904169885772
317.335692320568;421.94549120088
317.357316382645;422.035742169698
317.378940444722;422.150540427746
317.400564506798;422.260487404139
317.422188568875;422.328605476707
317.443812630952;422.331117258534
317.465436693029;422.258291686453
317.487060755106;422.090578461779
317.508684817182;421.810299279215
317.530308879259;421.419088778659
317.551932941336;420.918950070148
317.573557003413;420.307914120276
317.59518106549;419.58554544859
317.616805127566;418.770673986622
317.638429189643;417.898267732614
317.66005325172;416.977905720236
317.681677313797;416.00933500135
317.703301375874;415.01317622694
317.72492543795;414.015610882699
317.746549500027;413.046887049493
317.768173562104;412.113774267156
317.789797624181;411.198625477892
317.811421686258;410.277873765981
317.833045748334;409.346479063944
317.854669810411;408.432894018399
317.876293872488;407.584173458278
317.897917934565;406.836289486047
317.919541996642;406.18989773839
317.941166058718;405.62020570287
317.962790120795;405.114447265103
317.984414182872;404.663580328222
318.006038244949;404.273535822546
318.027662307026;403.953242310742
318.049286369102;403.688678323022
318.070910431179;403.465020900377
318.092534493256;403.266704904476
318.114158555333;403.087248409022
318.13578261741;402.919210462749
318.157406679486;402.74412059007
318.179030741563;402.551948687791
318.20065480364;402.341665259632
318.222278865717;402.113905535964
318.243902927794;401.864040341764
318.26552698987;401.590212872776
318.287151051947;401.304307806828
318.308775114024;401.020016533047
318.330399176101;400.743883183815
318.352023238178;400.473187791229
318.373647300254;400.199950232984
318.395271362331;399.919408957643
318.416895424408;399.632850959669
318.438519486485;399.33390449126
318.460143548562;399.005310604451
318.481767610638;398.632283014965
318.503391672715;398.210758816344
318.525015734792;397.743294012254
318.546639796869;397.232598014874
318.568263858946;396.681953533016
318.589887921022;396.092213863047
318.611511983099;395.461594643198
318.633136045176;394.80238006238
318.654760107253;394.146146708984
318.676384169329;393.513765181658
318.698008231406;392.87934140242
318.719632293483;392.237456844537
318.74125635556;391.614714387336
318.762880417637;391.030651564345
318.784504479713;390.472112598625
318.80612854179;389.918830626358
318.827752603867;389.381669225309
318.849376665944;388.88191376559
318.871000728021;388.413614837432
318.892624790098;387.963158852645
318.914248852174;387.521450398315
318.935872914251;387.089486908445
318.957496976328;386.671282089465
318.979121038405;386.260350698159
319.000745100481;385.849633928379
319.022369162558;385.447863961292
319.043993224635;385.067184669358
319.065617286712;384.698224494648
319.087241348789;384.321465237453
319.108865410865;383.945863876927
319.130489472942;383.58613608764
319.152113535019;383.238728763641
319.173737597096;382.894948723603
319.195361659173;382.549533888083
319.216985721249;382.217825535141
319.238609783326;381.915237509477
319.260233845403;381.632312885711
319.28185790748;381.347844596116
319.303481969557;381.059735830926
319.325106031633;380.76465435541
319.34673009371;380.455624150897
319.368354155787;380.138047609152
319.389978217864;379.820198078583
319.411602279941;379.504254986465
319.433226342017;379.188108573825
319.454850404094;378.868991502178
319.476474466171;378.549615381627
319.498098528248;378.232771219111
319.519722590325;377.912855724748
319.541346652401;377.596330121481
319.562970714478;377.286188694502
319.584594776555;376.984383953959
319.606218838632;376.686390907477
319.627842900709;376.396481870456
319.649466962785;376.118051708226
319.671091024862;375.86047850935
319.692715086939;375.625810892369
319.714339149016;375.406742694218
319.735963211093;375.200773016267
319.757587273169;375.018254329605
319.779211335246;374.864519391397
319.800835397323;374.732347014592
319.8224594594;374.623350346911
319.844083521477;374.547123024793
319.865707583553;374.501834494353
319.88733164563;374.478105026306
319.908955707707;374.466824177988
319.930579769784;374.465698620138
319.952203831861;374.478308744262
319.973827893937;374.506434977048
319.995451956014;374.544907583719
320.017076018091;374.58528822683
320.038700080168;374.622456413394
320.060324142245;374.655492692027
320.081948204321;374.68703677709
320.103572266398;374.713803162568
320.125196328475;374.734745000806
320.146820390552;374.765612783525
320.168444452629;374.828392693447
320.190068514705;374.924956835305
320.211692576782;375.038336832826
320.233316638859;375.168065827066
320.254940700936;375.327516402128
320.276564763013;375.520229496746
320.298188825089;375.735011051337
320.319812887166;375.946731391974
320.341436949243;376.134839070117
320.36306101132;376.297171805863
320.384685073397;376.429317341561
320.406309135473;376.479597898021
320.42793319755;376.407974348928
320.449557259627;376.212568191302
320.471181321704;375.888596997296
320.492805383781;375.423955351781
320.514429445857;374.818117424401
320.536053507934;374.079831149286
320.557677570011;373.222130298553
320.579301632088;372.262741850099
320.600925694165;371.228056017867
320.622549756241;370.156850781694
320.644173818318;369.061407129233
320.665797880395;367.944767958499
320.687421942472;366.814009153997
320.709046004549;365.694763441977
320.730670066625;364.62811835892
320.752294128702;363.632891001782
320.773918190779;362.712402210655
320.795542252856;361.866402296665
320.817166314933;361.061685355196
320.838790377009;360.255350969537
320.860414439086;359.434973480262
320.882038501163;358.624653684819
320.90366256324;357.848427349995
320.925286625317;357.10787033349
320.946910687393;356.377909318668
320.96853474947;355.615470514801
320.990158811547;354.778607582837
321.011782873624;353.846978781357
321.033406935701;352.842219993656
321.055030997777;351.788506857181
321.076655059854;350.66900937065
321.098279121931;349.448860547358
321.119903184008;348.083598262235
321.141527246084;346.547024457036
321.163151308161;344.908911145349
321.184775370238;343.280172056915
321.206399432315;341.683495563197
321.228023494392;340.074643406524
321.249647556468;338.46604906259
321.271271618545;336.899317052754
321.292895680622;335.43239127654
321.314519742699;334.100423561388
321.336143804776;332.907389538982
321.357767866852;331.873711067822
321.379391928929;331.016974529876
321.401015991006;330.34583216178
321.422640053083;329.867937851442
321.44426411516;329.591213805389
321.465888177236;329.499454035908
321.487512239313;329.56715579805
321.50913630139;329.776334209208
321.530760363467;330.107152852134
321.552384425544;330.512812921467
321.57400848762;330.946886085939
321.595632549697;331.389572153542
321.617256611774;331.822784140323
321.638880673851;332.230659096467
321.660504735928;332.595943366614
321.682128798004;332.896959614458
321.703752860081;333.10946742715
321.725376922158;333.219201186476
321.747000984235;333.223863836099
321.768625046312;333.137827036696
321.790249108388;332.976972800902
321.811873170465;332.749956202775
321.833497232542;332.441318855793
321.855121294619;332.073115955084
321.876745356696;331.668887621676
321.898369418772;331.250167986395
321.919993480849;330.82276869992
321.941617542926;330.397417108841
321.963241605003;329.983718409226
321.98486566708;329.596512724647
322.006489729156;329.241032700931
322.028113791233;328.91653549076
322.04973785331;328.622823682392
322.071361915387;328.360470515721
322.092985977464;328.12308668254
322.11461003954;327.894620172325
322.136234101617;327.678802871072
322.157858163694;327.4933293094
322.179482225771;327.33555428375
322.201106287848;327.19847741121
322.222730349924;327.074297743093
322.244354412001;326.954615542688
322.265978474078;326.842874248846
322.287602536155;326.747336407451
322.309226598232;326.662943937737
322.330850660308;326.579093278424
322.352474722385;326.477393621348
322.374098784462;326.34610870393
322.395722846539;326.193595268287
322.417346908616;326.035243625427
322.438970970692;325.8558433143
322.460595032769;325.642378245463
322.482219094846;325.399181542169
322.503843156923;325.132808176028
322.525467219;324.849100463846
322.547091281076;324.546125975699
322.568715343153;324.223647642998
322.59033940523;323.892128922655
322.611963467307;323.562804801986
322.633587529384;323.226159109938
322.65521159146;322.87516051072
322.676835653537;322.526796326439
322.698459715614;322.193200838376
322.720083777691;321.875020504974
322.741707839768;321.568962977099
322.763331901844;321.276936851772
322.784955963921;320.994064770296
322.806580025998;320.718834519198
322.828204088075;320.463015254302
322.849828150152;320.220071237473
322.871452212228;319.975313931452
322.893076274305;319.729637800401
322.914700336382;319.476591068863
322.936324398459;319.213820155821
322.957948460536;318.927760141912
322.979572522612;318.615253805565
323.001196584689;318.293221518968
323.022820646766;317.953595274297
323.044444708843;317.588719698526
323.06606877092;317.205102927155
323.087692832996;316.812514384219
323.109316895073;316.415902174875
323.13094095715;316.016350183786
323.152565019227;315.611082011439
323.174189081304;315.179998499083
323.19581314338;314.727527950194
323.217437205457;314.274560351209
323.239061267534;313.833910491533
323.260685329611;313.401813013348
323.282309391688;312.972926516757
323.303933453764;312.550704543539
323.325557515841;312.135306909435
323.347181577918;311.725562471815
323.368805639995;311.319449705228
323.390429702072;310.919173044218
323.412053764148;310.52581168244
323.433677826225;310.135674509465
323.455301888302;309.753937110142
323.476925950379;309.37219810043
323.498550012456;308.96661857662
323.520174074532;308.521781397126
323.541798136609;308.037969170534
323.563422198686;307.525138750297
323.585046260763;306.989376382284
323.606670322839;306.414862914691
323.628294384916;305.768717650633
323.649918446993;305.068705662997
323.67154250907;304.384484741421
323.693166571147;303.737928822901
323.714790633223;303.121420298402
323.7364146953;302.506315220658
323.758038757377;301.896633150474
323.779662819454;301.307663193591
323.801286881531;300.742617168982
323.822910943607;300.187759975521
323.844535005684;299.621894524368
323.866159067761;299.018327938976
323.887783129838;298.381817748775
323.909407191915;297.764701470701
323.931031253991;297.149936754209
323.952655316068;296.500635319104
323.974279378145;295.802119383787
323.995903440222;295.071934103815
324.017527502299;294.303448512045
324.039151564375;293.468167836673
324.060775626452;292.561066223991
324.082399688529;291.600949830526
324.104023750606;290.613838069879
324.125647812683;289.626536809651
324.147271874759;288.664048392091
324.168895936836;287.718472112044
324.190519998913;286.786558932761
324.21214406099;285.871427017442
324.233768123067;284.973997348894
324.255392185143;284.109823252435
324.27701624722;283.282616128079
324.298640309297;282.479506240651
324.320264371374;281.684996445796
324.341888433451;280.884924129868
324.363512495527;280.080268974147
324.385136557604;279.288747481933
324.406760619681;278.493955122967
324.428384681758;277.662068161313
324.450008743835;276.787576178405
324.471632805911;275.882619281942
324.493256867988;274.936556262162
324.514880930065;273.927853139265
324.536504992142;272.863735887886
324.558129054219;271.767102969281
324.579753116295;270.640873141173
324.601377178372;269.475251106575
324.623001240449;268.255958330349
324.644625302526;266.951860140871
324.666249364603;265.545922950325
324.687873426679;264.067870138365
324.709497488756;262.596958035038
324.731121550833;261.22257192434
324.75274561291;259.95270971386
324.774369674987;258.718806916695
324.795993737063;257.455398513548
