Name;ESR_BC_1_840s_X_gon_100dg_result

Recipe
Accumulations;5;Number of accumulations
RetryCount;0;Number of retries on error
AbortOnError;True;Abort on error
EnableQFactorMeasurement;False;Enable/Disable q-Factor measurement
Bfrom;313;B from
Bto;363;B to
SweepTime;60;Sweep time
Modulation;0.2;Modulation
ModulationFreq;100;Modulation
BHoldEnabled;False;B hold enabled
BHold;0;B hold
MicrowavePower;2;Microwave power
MarkerEnabled;False;
MarkerStartField;0;
MarkerEndField;0;
Mode;;
KineticGFact;0;
KineticTotalTransientTime;0;
KineticTimeResolution;0;
TempFrom;5;
TempUseSlope;False;
TempTo;5;
TempdT;1;
TempSetupTime;0;
GonFrom;0;
GonTo;180;
GonSteps;20;
XRayEnabled;False;
XRayTime;3;
XRayVoltage;40;
XRayCurrent;0.5;
UVEnabled;False;
UVIntensity;0;
UVTime;0;
UVLeadTime;0;
UVWavelength;0;
PowSweepFrom;1;
PowSweepTo;5;
PowSweepSteps;5;
AmpModSweepFrom;0;
AmpModSweepTo;1;
AmpModSweepSteps;10;
ExtTriggerEnabled;False;
ExtTrigLeadTime;0;
ExtTrigOnTime;5;

Meas
BField [mT];MW_Absorption []
313.008362960815;535.778260276995
313.029984037564;535.269523154436
313.051605114312;534.751536074698
313.07322619106;534.272058642461
313.094847267808;533.818167364899
313.116468344556;533.381784152643
313.138089421304;532.955539975477
313.159710498052;532.523557961257
313.1813315748;532.074682845726
313.202952651548;531.607245558654
313.224573728296;531.122536247017
313.246194805045;530.617994268151
313.267815881793;530.091370773359
313.289436958541;529.563092760955
313.311058035289;529.067346980895
313.332679112037;528.609878424336
313.354300188785;528.18395008523
313.375921265533;527.799228625
313.397542342281;527.460910905848
313.419163419029;527.165163752618
313.440784495778;526.923018776275
313.462405572526;526.731430902114
313.484026649274;526.575799937076
313.505647726022;526.446234991453
313.52726880277;526.328618750523
313.548889879518;526.209481195478
313.570510956266;526.083627664327
313.592132033014;525.941665875726
313.613753109762;525.76859766541
313.63537418651;525.555548529116
313.656995263259;525.302968902928
313.678616340007;525.016171296185
313.700237416755;524.682135593185
313.721858493503;524.313009430561
313.743479570251;523.923396514641
313.765100646999;523.498197600397
313.786721723747;523.020668146234
313.808342800495;522.50619651292
313.829963877243;521.972491545365
313.851584953991;521.416537053734
313.87320603074;520.820956829408
313.894827107488;520.16660993207
313.916448184236;519.447205055853
313.938069260984;518.676131380666
313.959690337732;517.872155335356
313.98131141448;517.030331791824
314.002932491228;516.156701610992
314.024553567976;515.267650779649
314.046174644724;514.355007306454
314.067795721473;513.417676584035
314.089416798221;512.483335728562
314.111037874969;511.585073936193
314.132658951717;510.713361890601
314.154280028465;509.858976287296
314.175901105213;509.068894746347
314.197522181961;508.339768148975
314.219143258709;507.6454566563
314.240764335457;506.991738223448
314.262385412205;506.397492532497
314.284006488954;505.839943682944
314.305627565702;505.30675035908
314.32724864245;504.790349709295
314.348869719198;504.285923440707
314.370490795946;503.798820456782
314.392111872694;503.333112458435
314.413732949442;502.85691451712
314.43535402619;502.329810713715
314.456975102938;501.74131647894
314.478596179686;501.146469176707
314.500217256435;500.581021535342
314.521838333183;500.031571061554
314.543459409931;499.479472709044
314.565080486679;498.914895254847
314.586701563427;498.346184120361
314.608322640175;497.788211011247
314.629943716923;497.244840472099
314.651564793671;496.715103876213
314.673185870419;496.19800170936
314.694806947168;495.693019609645
314.716428023916;495.19875586168
314.738049100664;494.726384203047
314.759670177412;494.291614606714
314.78129125416;493.901251023308
314.802912330908;493.54943695769
314.824533407656;493.220936009411
314.846154484404;492.90711131212
314.867775561152;492.614044585693
314.8893966379;492.357980951304
314.911017714649;492.141831962923
314.932638791397;491.953322585568
314.954259868145;491.784278968787
314.975880944893;491.62528275876
314.997502021641;491.456808175421
315.019123098389;491.268024187822
315.040744175137;491.062913824606
315.062365251885;490.845384234389
315.083986328633;490.599924614487
315.105607405381;490.302927876379
315.12722848213;489.956008010604
315.148849558878;489.574657335221
315.170470635626;489.170812530872
315.192091712374;488.742190945682
315.213712789122;488.29302884862
315.23533386587;487.834000646836
315.256954942618;487.363019242406
315.278576019366;486.871787083215
315.300197096114;486.366804691847
315.321818172863;485.85319432877
315.343439249611;485.32860665671
315.365060326359;484.792123310287
315.386681403107;484.259696432835
315.408302479855;483.754051912111
315.429923556603;483.280428708923
315.451544633351;482.847735598907
315.473165710099;482.466224247924
315.494786786847;482.138502757673
315.516407863595;481.865018710702
315.538028940344;481.62902446616
315.559650017092;481.420180319585
315.58127109384;481.238891956853
315.602892170588;481.067357403266
315.624513247336;480.883329152148
315.646134324084;480.670343050833
315.667755400832;480.421634381926
315.68937647758;480.125340941985
315.710997554328;479.768219011721
315.732618631076;479.352847997633
315.754239707825;478.898603836777
315.775860784573;478.415220495602
315.797481861321;477.898609006542
315.819102938069;477.34064818134
315.840724014817;476.732061085894
315.862345091565;476.065232698199
315.883966168313;475.380728762325
315.905587245061;474.730442310174
315.927208321809;474.117584335634
315.948829398558;473.507119820623
315.970450475306;472.862537288281
315.992071552054;472.178566350021
316.013692628802;471.474415193593
316.03531370555;470.763354459981
316.056934782298;470.031046479482
316.078555859046;469.281347734533
316.100176935794;468.528982370166
316.121798012542;467.757855116052
316.14341908929;466.9334625741
316.165040166039;466.041953292855
316.186661242787;465.104402147261
316.208282319535;464.16076321956
316.229903396283;463.223830353784
316.251524473031;462.290962924584
316.273145549779;461.368707421286
316.294766626527;460.469573823684
316.316387703275;459.582302773546
316.338008780023;458.708387605697
316.359629856772;457.878406590497
316.38125093352;457.129767407349
316.402872010268;456.473974456383
316.424493087016;455.895229823583
316.446114163764;455.371444725228
316.467735240512;454.888488395038
316.48935631726;454.431501517196
316.510977394008;453.982978410525
316.532598470756;453.545002798229
316.554219547504;453.129275739162
316.575840624253;452.731493176417
316.597461701001;452.343512947393
316.619082777749;451.972305382384
316.640703854497;451.624591927558
316.662324931245;451.301099401998
316.683946007993;451.013729542436
316.705567084741;450.777040538499
316.727188161489;450.593493407917
316.748809238237;450.458898664568
316.770430314986;450.366042122535
316.792051391734;450.31082975271
316.813672468482;450.293798074288
316.83529354523;450.311701085384
316.856914621978;450.356958099584
316.878535698726;450.418379911855
316.900156775474;450.488434695177
316.921777852222;450.561616957747
316.94339892897;450.631734491613
316.965020005718;450.693767313922
316.986641082467;450.747576902082
317.008262159215;450.79909649248
317.029883235963;450.855505759298
317.051504312711;450.921336581149
317.073125389459;450.994149951536
317.094746466207;451.067220583909
317.116367542955;451.132935351539
317.137988619703;451.18389482387
317.159609696451;451.215460924479
317.1812307732;451.224918924177
317.202851849948;451.204912929916
317.224472926696;451.142626513467
317.246094003444;451.025606915904
317.267715080192;450.851895471307
317.28933615694;450.622351893324
317.310957233688;450.341235176562
317.332578310436;450.030369425482
317.354199387184;449.709501300465
317.375820463932;449.378965390478
317.397441540681;449.02907985849
317.419062617429;448.661689486324
317.440683694177;448.294746843047
317.462304770925;447.944522096854
317.483925847673;447.622761688957
317.505546924421;447.325257994133
317.527168001169;447.039111036137
317.548789077917;446.750324017795
317.570410154665;446.452199116768
317.592031231413;446.141755922658
317.613652308162;445.803422925599
317.63527338491;445.419452452187
317.656894461658;444.992622513294
317.678515538406;444.520815148711
317.700136615154;443.982391282349
317.721757691902;443.361877015937
317.74337876865;442.683889764006
317.764999845398;441.986269500515
317.786620922146;441.273786009741
317.808241998895;440.53106377145
317.829863075643;439.766424741259
317.851484152391;439.006771596283
317.873105229139;438.27603280109
317.894726305887;437.572416888135
317.916347382635;436.890948899119
317.937968459383;436.248007292829
317.959589536131;435.662038781145
317.981210612879;435.144381252303
318.002831689627;434.686837500309
318.024452766376;434.26556920302
318.046073843124;433.853613319252
318.067694919872;433.428702454278
318.08931599662;432.987164102118
318.110937073368;432.536308815304
318.132558150116;432.056819970972
318.154179226864;431.526677283814
318.175800303612;430.948691654289
318.19742138036;430.338235220324
318.219042457108;429.677989467353
318.240663533857;428.972941864157
318.262284610605;428.254685133777
318.283905687353;427.546714968111
318.305526764101;426.849685972677
318.327147840849;426.153073886464
318.348768917597;425.454765690018
318.370389994345;424.769091705839
318.392011071093;424.125670471546
318.413632147841;423.552801828412
318.43525322459;423.028456358452
318.456874301338;422.511037628436
318.478495378086;421.98167948738
318.500116454834;421.425028118461
318.521737531582;420.819318067819
318.54335860833;420.14588422509
318.564979685078;419.397031368066
318.586600761826;418.561264355542
318.608221838574;417.632305676312
318.629842915322;416.636917365874
318.651463992071;415.600657637556
318.673085068819;414.528481371372
318.694706145567;413.435012701463
318.716327222315;412.347818883813
318.737948299063;411.277292117668
318.759569375811;410.214361459615
318.781190452559;409.193770560106
318.802811529307;408.230516821547
318.824432606055;407.323375701839
318.846053682803;406.473698558143
318.867674759552;405.678665162007
318.8892958363;404.94325954819
318.910916913048;404.274101288139
318.932537989796;403.659949643968
318.954159066544;403.079720905722
318.975780143292;402.532129788061
318.99740122004;402.033332929926
319.019022296788;401.574056993797
319.040643373536;401.137297253105
319.062264450285;400.717039707073
319.083885527033;400.316213560029
319.105506603781;399.921449668445
319.127127680529;399.522208969838
319.148748757277;399.1050649441
319.170369834025;398.659878931169
319.191990910773;398.187047312464
319.213611987521;397.69968150374
319.235233064269;397.212577125043
319.256854141017;396.730143278269
319.278475217766;396.241664482747
319.300096294514;395.727199798764
319.321717371262;395.178059954709
319.34333844801;394.598388519841
319.364959524758;393.988586808848
319.386580601506;393.348880632864
319.408201678254;392.705530651484
319.429822755002;392.076018146975
319.45144383175;391.471048300326
319.473064908498;390.894339831945
319.494685985247;390.342794750011
319.516307061995;389.804708253721
319.537928138743;389.2703708587
319.559549215491;388.750328706361
319.581170292239;388.262766506717
319.602791368987;387.814119709597
319.624412445735;387.391825821558
319.646033522483;386.985642478799
319.667654599231;386.589811381282
319.68927567598;386.195670130766
319.710896752728;385.79398550006
319.732517829476;385.38399498032
319.754138906224;384.965472841157
319.775759982972;384.530909274714
319.79738105972;384.079761075416
319.819002136468;383.621385869689
319.840623213216;383.168052879699
319.862244289964;382.724377316389
319.883865366712;382.288164526056
319.905486443461;381.86696587115
319.927107520209;381.472022781023
319.948728596957;381.119009999882
319.970349673705;380.818508310979
319.991970750453;380.564078917768
320.013591827201;380.344597948704
320.035212903949;380.175434029677
320.056833980697;380.089910071074
320.078455057445;380.089022128827
320.100076134194;380.157782818997
320.121697210942;380.29774458251
320.14331828769;380.524549247717
320.164939364438;380.832462531607
320.186560441186;381.201055927988
320.208181517934;381.618199898273
320.229802594682;382.080378697329
320.25142367143;382.580040177441
320.273044748178;383.107265362743
320.294665824926;383.630480178417
320.316286901675;384.08410490913
320.337907978423;384.440442508961
320.359529055171;384.696671522914
320.381150131919;384.842712406358
320.402771208667;384.861962154358
320.424392285415;384.728356182003
320.446013362163;384.417468808719
320.467634438911;383.919710457942
320.489255515659;383.256826466272
320.510876592408;382.463242274827
320.532497669156;381.538413843307
320.554118745904;380.442045685388
320.575739822652;379.145927108574
320.5973608994;377.691234443089
320.618981976148;376.157268990249
320.640603052896;374.598824799688
320.662224129644;373.023551839955
320.683845206392;371.478270101377
320.70546628314;370.008412645039
320.727087359889;368.626476930325
320.748708436637;367.336945922193
320.770329513385;366.174329097102
320.791950590133;365.163261923634
320.813571666881;364.286254112718
320.835192743629;363.497021101279
320.856813820377;362.762837885565
320.878434897125;362.079838429446
320.900055973873;361.456647477633
320.921677050621;360.869180544272
320.94329812737;360.274887062058
320.964919204118;359.634274179253
320.986540280866;358.92164059518
321.008161357614;358.163284832615
321.029782434362;357.321441084106
321.05140351111;356.358331497062
321.073024587858;355.250243078867
321.094645664606;353.983807121244
321.116266741354;352.581380734041
321.137887818103;351.07302496678
321.159508894851;349.47764468023
321.181129971599;347.789203564116
321.202751048347;346.007395629681
321.224372125095;344.184649065372
321.245993201843;342.361752719045
321.267614278591;340.529889551428
321.289235355339;338.75312880947
321.310856432087;337.084396226619
321.332477508835;335.539829232485
321.354098585584;334.123719460804
321.375719662332;332.86784061296
321.39734073908;331.820122912303
321.418961815828;330.969624029687
321.440582892576;330.260311115797
321.462203969324;329.688212266603
321.483825046072;329.270569226914
321.50544612282;329.000077601877
321.527067199568;328.868774096635
321.548688276316;328.884442641053
321.570309353065;329.00763108483
321.591930429813;329.19673361232
321.613551506561;329.433575618707
321.635172583309;329.713041228397
321.656793660057;330.020314292123
321.678414736805;330.345318458051
321.700035813553;330.6675074217
321.721656890301;330.965058226804
321.743277967049;331.220277396933
321.764899043798;331.416844338641
321.786520120546;331.55292250389
321.808141197294;331.641161429339
321.829762274042;331.68415069536
321.85138335079;331.68413172486
321.873004427538;331.652646737079
321.894625504286;331.60129128783
321.916246581034;331.536698268761
321.937867657782;331.463819885044
321.95948873453;331.394532674187
321.981109811279;331.342741291376
322.002730888027;331.295867281023
322.024351964775;331.238207117364
322.045973041523;331.169397287584
322.067594118271;331.086224243434
322.089215195019;330.971927531869
322.110836271767;330.813280310104
322.132457348515;330.594357483474
322.154078425263;330.308065168402
322.175699502011;329.966403029447
322.19732057876;329.567477672925
322.218941655508;329.084161627095
322.240562732256;328.5398131923
322.262183809004;327.99359015546
322.283804885752;327.426289758445
322.3054259625;326.814662999638
322.327047039248;326.153192602863
322.348668115996;325.484869299976
322.370289192744;324.833083308645
322.391910269493;324.171872008759
322.413531346241;323.509310166525
322.435152422989;322.883297027547
322.456773499737;322.301182019607
322.478394576485;321.745858039564
322.500015653233;321.203001193472
322.521636729981;320.663613677723
322.543257806729;320.126875137956
322.564878883477;319.593170864868
322.586499960225;319.087203661872
322.608121036974;318.628560942694
322.629742113722;318.214172756365
322.65136319047;317.82109618216
322.672984267218;317.421111318832
322.694605343966;316.999416713882
322.716226420714;316.566030563758
322.737847497462;316.111455478417
322.75946857421;315.602602772233
322.781089650958;315.066593569742
322.802710727706;314.491236035853
322.824331804455;313.851211218642
322.845952881203;313.134533151339
322.867573957951;312.343292332688
322.889195034699;311.518232215442
322.910816111447;310.683818687252
322.932437188195;309.832370233617
322.954058264943;308.945731005218
322.975679341691;308.01053916276
322.997300418439;307.036901613131
323.018921495188;306.077920368027
323.040542571936;305.157166207575
323.062163648684;304.26511175953
323.083784725432;303.411451933812
323.10540580218;302.603120098735
323.127026878928;301.829713498102
323.148647955676;301.067115160928
323.170269032424;300.299676747624
323.191890109172;299.544307907142
323.21351118592;298.824543837503
323.235132262669;298.135901616206
323.256753339417;297.478810706431
323.278374416165;296.835006233593
323.299995492913;296.206523330532
323.321616569661;295.614926014648
323.343237646409;295.066666897527
323.364858723157;294.561396663984
323.386479799905;294.09512469263
323.408100876653;293.660711868899
323.429721953402;293.255286533371
323.45134303015;292.882706959467
323.472964106898;292.541483095937
323.494585183646;292.218910402646
323.516206260394;291.903960119467
323.537827337142;291.591118223269
323.55944841389;291.270764655229
323.581069490638;290.935272785869
323.602690567386;290.58817972543
323.624311644134;290.233641853503
323.645932720883;289.864077836164
323.667553797631;289.467446018564
323.689174874379;289.042973876749
323.710795951127;288.593642860373
323.732417027875;288.116726755344
323.754038104623;287.610527317662
323.775659181371;287.073906192231
323.797280258119;286.495680419112
323.818901334867;285.859303996657
323.840522411616;285.163179923661
323.862143488364;284.43403985688
323.883764565112;283.689214254594
323.90538564186;282.90909773993
323.927006718608;282.086708797992
323.948627795356;281.259400907164
323.970248872104;280.440646687971
323.991869948852;279.611777793036
324.0134910256;278.753414275758
324.035112102348;277.856699691528
324.056733179097;276.932566802872
324.078354255845;275.983633892097
324.099975332593;275.021725453483
324.121596409341;274.048292951966
324.143217486089;273.044758896658
324.164838562837;272.008075067565
324.186459639585;270.933863057001
324.208080716333;269.783559742574
324.229701793081;268.574178711189
324.251322869829;267.414169890455
324.272943946578;266.330974958979
324.294565023326;265.302193049892
324.316186100074;264.320700248543
324.337807176822;263.382740806724
324.35942825357;262.465243999446
324.381049330318;261.563237766234
324.402670407066;260.717588648524
324.424291483814;259.924405209807
324.445912560562;259.140272193773
324.467533637311;258.340522551618
324.489154714059;257.513043451259
324.510775790807;256.62876884019
324.532396867555;255.653426619998
324.554017944303;254.575124966411
324.575639021051;253.420622841183
324.597260097799;252.192624712619
324.618881174547;250.862469968908
324.640502251295;249.428569060041
324.662123328043;247.944715240518
324.683744404792;246.429753750917
324.70536548154;244.882867448893
324.726986558288;243.328731026799
324.748607635036;241.785741188591
324.770228711784;240.227987660522
