Name;ESR_BC_1_3600s_Y_gon_140dg_result

Recipe
Accumulations;5;Number of accumulations
RetryCount;0;Number of retries on error
AbortOnError;True;Abort on error
EnableQFactorMeasurement;False;Enable/Disable q-Factor measurement
Bfrom;313;B from
Bto;363;B to
SweepTime;60;Sweep time
Modulation;0.2;Modulation
ModulationFreq;100;Modulation
BHoldEnabled;False;B hold enabled
BHold;0;B hold
MicrowavePower;2;Microwave power
MarkerEnabled;False;
MarkerStartField;0;
MarkerEndField;0;
Mode;;
KineticGFact;0;
KineticTotalTransientTime;0;
KineticTimeResolution;0;
TempFrom;5;
TempUseSlope;False;
TempTo;5;
TempdT;1;
TempSetupTime;0;
GonFrom;0;
GonTo;180;
GonSteps;20;
XRayEnabled;False;
XRayTime;3;
XRayVoltage;40;
XRayCurrent;0.5;
UVEnabled;False;
UVIntensity;0;
UVTime;0;
UVLeadTime;0;
UVWavelength;0;
PowSweepFrom;1;
PowSweepTo;5;
PowSweepSteps;5;
AmpModSweepFrom;0;
AmpModSweepTo;1;
AmpModSweepSteps;10;
ExtTriggerEnabled;False;
ExtTrigLeadTime;0;
ExtTrigOnTime;5;

Meas
BField [mT];MW_Absorption []
313.014374237061;153.509717045661
313.035998413416;153.090914786583
313.057622589772;152.58789687702
313.079246766128;151.99667705591
313.100870942483;151.325404143786
313.122495118839;150.589802595818
313.144119295195;149.779961678421
313.16574347155;148.874257793058
313.187367647906;147.886787422441
313.208991824262;146.8789425998
313.230616000617;145.947666160397
313.252240176973;145.112757064506
313.273864353329;144.343002464068
313.295488529684;143.649057556524
313.31711270604;143.043308736691
313.338736882396;142.527518100179
313.360361058751;142.114035450738
313.381985235107;141.801196371313
313.403609411463;141.574259333073
313.425233587818;141.416110309897
313.446857764174;141.314239976967
313.46848194053;141.25072806889
313.490106116885;141.211052407821
313.511730293241;141.187587910292
313.533354469597;141.182922811559
313.554978645952;141.195276776364
313.576602822308;141.217226923659
313.598226998664;141.238006745699
313.619851175019;141.253770786499
313.641475351375;141.265117541566
313.663099527731;141.263899908198
313.684723704086;141.241192889232
313.706347880442;141.200371851645
313.727972056798;141.142970456932
313.749596233153;141.062086578679
313.771220409509;140.958607187794
313.792844585865;140.841940663185
313.81446876222;140.720461034262
313.836092938576;140.602825584658
313.857717114932;140.492557187218
313.879341291287;140.385995970767
313.900965467643;140.285661694286
313.922589643999;140.196666002391
313.944213820354;140.117838596397
313.96583799671;140.045411062952
313.987462173066;139.975779227204
314.009086349421;139.913190886038
314.030710525777;139.856094021552
314.052334702133;139.796929637395
314.073958878488;139.72693034252
314.095583054844;139.640249502147
314.1172072312;139.540158786802
314.138831407555;139.433813418644
314.160455583911;139.323558867451
314.182079760267;139.205167783091
314.203703936622;139.075691976707
314.225328112978;138.936977328319
314.246952289334;138.791687980001
314.268576465689;138.64706803167
314.290200642045;138.514399798664
314.311824818401;138.397519550133
314.333448994756;138.294287993678
314.355073171112;138.200589196073
314.376697347468;138.109200276738
314.398321523823;138.011058551594
314.419945700179;137.903402429763
314.441569876535;137.794447212069
314.46319405289;137.702901961645
314.484818229246;137.635967495314
314.506442405602;137.585820596897
314.528066581957;137.545507674286
314.549690758313;137.519005708457
314.571314934669;137.510146839228
314.592939111024;137.51677074405
314.61456328738;137.537103074271
314.636187463736;137.572884078673
314.657811640091;137.62248529758
314.679435816447;137.677150923172
314.701059992803;137.728798374883
314.722684169158;137.768703120759
314.744308345514;137.782655772242
314.76593252187;137.772455443351
314.787556698225;137.757846305576
314.809180874581;137.758124443099
314.830805050937;137.746235406673
314.852429227292;137.709656872924
314.874053403648;137.667052388367
314.895677580004;137.63362693696
314.917301756359;137.615627844304
314.938925932715;137.615670893608
314.960550109071;137.638459312873
314.982174285426;137.685467827153
315.003798461782;137.765014806866
315.025422638138;137.88360407424
315.047046814493;138.03750549318
315.068670990849;138.218655909357
315.090295167205;138.419299711243
315.11191934356;138.624568034316
315.133543519916;138.819591791381
315.155167696272;138.994921953126
315.176791872627;139.141377639214
315.198416048983;139.250810978141
315.220040225339;139.319406559734
315.241664401694;139.350216298048
315.26328857805;139.344929319766
315.284912754406;139.297546330962
315.306536930761;139.212336336122
315.328161107117;139.105976605645
315.349785283473;138.99460673032
315.371409459828;138.880822051294
315.393033636184;138.759447275737
315.41465781254;138.628863883882
315.436281988895;138.488327562113
315.457906165251;138.335925509626
315.479530341607;138.170817659899
315.501154517962;137.9953670388
315.522778694318;137.823715561255
315.544402870674;137.657693576578
315.566027047029;137.488702018341
315.587651223385;137.311821241595
315.609275399741;137.14037036992
315.630899576096;136.99580268183
315.652523752452;136.884222821561
315.674147928808;136.797829830566
315.695772105163;136.727271574945
315.717396281519;136.665881926742
315.739020457875;136.62450185962
315.76064463423;136.601856051499
315.782268810586;136.586677184827
315.803892986942;136.569780299992
315.825517163297;136.560357420788
315.847141339653;136.562642622227
315.868765516009;136.574562481857
315.890389692364;136.585696548329
315.91201386872;136.587158917565
315.933638045076;136.584250064829
315.955262221431;136.580962195814
315.976886397787;136.562017159395
315.998510574143;136.518459570239
316.020134750498;136.463579709693
316.041758926854;136.401765144749
316.06338310321;136.327428799799
316.085007279565;136.243048974834
316.106631455921;136.158940647782
316.128255632277;136.083734102878
316.149879808632;136.027342398007
316.171503984988;135.988664871637
316.193128161344;135.963902012192
316.214752337699;135.950808008579
316.236376514055;135.949257116346
316.258000690411;135.961020236953
316.279624866766;135.99136195342
316.301249043122;136.033925723247
316.322873219478;136.076148665063
316.344497395833;136.10571877546
316.366121572189;136.116822684592
316.387745748545;136.104967600634
316.4093699249;136.065645984279
316.430994101256;135.998937477502
316.452618277612;135.900063543206
316.474242453967;135.766653775384
316.495866630323;135.600780827749
316.517490806679;135.406566310219
316.539114983034;135.192621894953
316.56073915939;134.962774533634
316.582363335746;134.711415109384
316.603987512101;134.436480425038
316.625611688457;134.14832104451
316.647235864813;133.864751868898
316.668860041168;133.606224294653
316.690484217524;133.383249888296
316.71210839388;133.194993283374
316.733732570235;133.047267335073
316.755356746591;132.957037761323
316.776980922947;132.93949291655
316.798605099302;132.996729626583
316.820229275658;133.123441753942
316.841853452014;133.316439731976
316.863477628369;133.572183180392
316.885101804725;133.87206477803
316.906725981081;134.190441508134
316.928350157436;134.5126643203
316.949974333792;134.819424159173
316.971598510148;135.097459918375
316.993222686503;135.329989127834
317.014846862859;135.514383484264
317.036471039215;135.652643620051
317.05809521557;135.737437241045
317.079719391926;135.75890739532
317.101343568282;135.717225670599
317.122967744637;135.625247434008
317.144591920993;135.495471763687
317.166216097349;135.329089022229
317.187840273704;135.121175084756
317.20946445006;134.872669262231
317.231088626416;134.602096978466
317.252712802771;134.32292140237
317.274336979127;134.025854238316
317.295961155483;133.713898885896
317.317585331838;133.399191194404
317.339209508194;133.089739965046
317.36083368455;132.792530710732
317.382457860905;132.51407254641
317.404082037261;132.247044370283
317.425706213617;131.986589856115
317.447330389972;131.74787844084
317.468954566328;131.534365476629
317.490578742684;131.346870148487
317.512202919039;131.190660230249
317.533827095395;131.072765954127
317.555451271751;130.991603716061
317.577075448106;130.939879719499
317.598699624462;130.904728460761
317.620323800818;130.883443678278
317.641947977173;130.873629819848
317.663572153529;130.871299553666
317.685196329885;130.874625797282
317.70682050624;130.876133136935
317.728444682596;130.862906839994
317.750068858952;130.835336297664
317.771693035307;130.799592673033
317.793317211663;130.766407654795
317.814941388019;130.744566368635
317.836565564374;130.735126953972
317.85818974073;130.734141800627
317.879813917086;130.742507538904
317.901438093441;130.768946817897
317.923062269797;130.815086905057
317.944686446153;130.878139727098
317.966310622508;130.965001044474
317.987934798864;131.086351517204
318.00955897522;131.228524674953
318.031183151575;131.38079321517
318.052807327931;131.551017197323
318.074431504287;131.743839160974
318.096055680642;131.954439424116
318.117679856998;132.174582438158
318.139304033354;132.399978672946
318.160928209709;132.627391740328
318.182552386065;132.8505608878
318.204176562421;133.063930468343
318.225800738776;133.270183001791
318.247424915132;133.471036873094
318.269049091488;133.649393184673
318.290673267843;133.795757348726
318.312297444199;133.903668381384
318.333921620555;133.97302164423
318.35554579691;134.016354082804
318.377169973266;134.046233173845
318.398794149622;134.067420926273
318.420418325977;134.072852731136
318.442042502333;134.064083272704
318.463666678689;134.056248753557
318.485290855044;134.05465116487
318.5069150314;134.063105350588
318.528539207756;134.086797349296
318.550163384111;134.121276845948
318.571787560467;134.155424781039
318.593411736823;134.175605855885
318.615035913178;134.171238469876
318.636660089534;134.139418736002
318.65828426589;134.076851388923
318.679908442245;133.975416125702
318.701532618601;133.826260132416
318.723156794957;133.628907130437
318.744780971312;133.39099250448
318.766405147668;133.120395072065
318.788029324024;132.825369814982
318.809653500379;132.520058049005
318.831277676735;132.225943124437
318.852901853091;131.969429696337
318.874526029446;131.756666595875
318.896150205802;131.583636727805
318.917774382158;131.463430595477
318.939398558513;131.413095276962
318.961022734869;131.4316067714
318.982646911225;131.509523602351
319.00427108758;131.637539105181
319.025895263936;131.809020307109
319.047519440292;132.016608061571
319.069143616647;132.247654745394
319.090767793003;132.485397107189
319.112391969359;132.717297269823
319.134016145714;132.93648181374
319.15564032207;133.144412995363
319.177264498426;133.342152527001
319.198888674781;133.524911694623
319.220512851137;133.68527196566
319.242137027493;133.815490093209
319.263761203848;133.913990503044
319.285385380204;133.983849145293
319.30700955656;134.019845362125
319.328633732915;134.013186420834
319.350257909271;133.961547449213
319.371882085627;133.881513701658
319.393506261982;133.785206669387
319.415130438338;133.67753861326
319.436754614694;133.560465544465
319.458378791049;133.443558775595
319.480002967405;133.340362142695
319.501627143761;133.258011892888
319.523251320116;133.197989230759
319.544875496472;133.169899798828
319.566499672828;133.184677716897
319.588123849183;133.242120182115
319.609748025539;133.335146185659
319.631372201895;133.452394767792
319.65299637825;133.584529113167
319.674620554606;133.722932028679
319.696244730962;133.854470750996
319.717868907318;133.960354760594
319.739493083673;134.021349079139
319.761117260029;134.036473917717
319.782741436384;133.999415048073
319.80436561274;133.912263255321
319.825989789096;133.785459014532
319.847613965452;133.62860380318
319.869238141807;133.446987009399
319.890862318163;133.251515761216
319.912486494518;133.061660176045
319.934110670874;132.890076816116
319.95573484723;132.73720254562
319.977359023586;132.606705405336
319.998983199941;132.501550265
320.020607376297;132.412301186216
320.042231552652;132.339164360689
320.063855729008;132.282618375967
320.085479905364;132.235843874716
320.10710408172;132.185863629998
320.128728258075;132.122501370761
320.150352434431;132.033438339089
320.171976610786;131.912665508305
320.193600787142;131.756391033104
320.215224963498;131.564311514225
320.236849139854;131.347539457261
320.258473316209;131.114410311299
320.280097492565;130.867783666444
320.30172166892;130.614281674804
320.323345845276;130.367447332003
320.344970021632;130.132130909599
320.366594197987;129.909074007484
320.388218374343;129.709327135394
320.409842550699;129.554095316486
320.431466727055;129.440036690589
320.45309090341;129.345357812569
320.474715079766;129.254942220759
320.496339256121;129.177039566666
320.517963432477;129.128762231625
320.539587608833;129.087845545291
320.561211785189;129.035379422006
320.582835961544;128.971954426178
320.6044601379;128.89986533872
320.626084314255;128.819065865855
320.647708490611;128.733320062319
320.669332666967;128.645406620471
320.690956843323;128.553673573296
320.712581019678;128.454669016177
320.734205196034;128.353054027403
320.755829372389;128.260650147965
320.777453548745;128.183751091823
320.799077725101;128.122603850541
320.820701901457;128.070329022561
320.842326077812;128.014969174432
320.863950254168;127.964766286344
320.885574430523;127.943287076655
320.907198606879;127.955491504343
320.928822783235;127.998296827517
320.950446959591;128.072317234178
320.972071135946;128.182054535676
320.993695312302;128.325683979576
321.015319488658;128.496366419665
321.036943665013;128.690843966414
321.058567841369;128.90559986297
321.080192017725;129.129306987702
321.10181619408;129.357713424788
321.123440370436;129.58786556381
321.145064546792;129.81720158718
321.166688723147;130.044523607527
321.188312899503;130.269570612193
321.209937075859;130.48816163708
321.231561252214;130.684213668799
321.25318542857;130.864118307361
321.274809604926;131.02684725066
321.296433781281;131.161557915695
321.318057957637;131.262473409516
321.339682133993;131.329761378097
321.361306310348;131.358449255802
321.382930486704;131.33416403471
321.40455466306;131.24629204749
321.426178839415;131.099919427246
321.447803015771;130.899782129252
321.469427192127;130.641004487885
321.491051368482;130.320831463003
321.512675544838;129.948967307276
321.534299721194;129.543524669715
321.555923897549;129.119503000959
321.577548073905;128.68770732596
321.599172250261;128.265032247621
321.620796426616;127.869021035586
321.642420602972;127.504873683848
321.664044779328;127.176702533198
321.685668955683;126.898983115366
321.707293132039;126.683424539585
321.728917308395;126.516957851158
321.75054148475;126.381948624054
321.772165661106;126.264001068695
321.793789837462;126.146068986545
321.815414013817;126.014905805448
321.837038190173;125.860673770621
321.858662366529;125.666104742599
321.880286542884;125.411860974426
321.90191071924;125.08317084293
321.923534895596;124.675480060449
321.945159071951;124.193590942426
321.966783248307;123.643927629442
321.988407424663;123.032771322162
322.010031601018;122.355527958047
322.031655777374;121.616853096602
322.05327995373;120.821838984163
322.074904130085;119.989077581946
322.096528306441;119.132171506033
322.118152482797;118.260082968601
322.139776659152;117.398720110734
322.161400835508;116.55268945506
322.183025011864;115.690375323562
322.204649188219;114.825706182342
322.226273364575;114.017597584753
322.247897540931;113.27089477854
322.269521717286;112.563056401528
322.291145893642;111.904506784905
322.312770069998;111.310872971402
322.334394246353;110.764688274423
322.356018422709;110.257582922926
322.377642599065;109.795191169334
322.39926677542;109.377766634143
322.420890951776;109.00854759368
322.442515128132;108.689441358724
322.464139304487;108.417125748412
322.485763480843;108.200634055682
322.507387657199;108.058491766764
322.529011833554;107.986928675365
322.55063600991;107.980248035004
322.572260186266;108.033431305251
322.593884362621;108.131798694451
322.615508538977;108.26518802244
322.637132715333;108.424443959012
322.658756891688;108.594272408762
322.680381068044;108.765789547748
322.7020052444;108.925978413388
322.723629420755;109.059798266016
322.745253597111;109.16279663168
322.766877773467;109.232624597817
322.788501949822;109.257611211809
322.810126126178;109.226354375082
322.831750302534;109.136290527269
322.853374478889;108.995560832589
322.874998655245;108.807869063463
322.896622831601;108.578139287069
322.918247007956;108.315154031153
322.939871184312;108.026406149223
322.961495360668;107.710308533353
322.983119537023;107.373101454218
323.004743713379;107.028903576857
323.026367889735;106.678397142239
323.04799206609;106.317682666602
323.069616242446;105.949410276139
323.091240418802;105.578607112714
323.112864595157;105.196346989605
323.134488771513;104.799170260644
323.156112947869;104.384274055351
323.177737124224;103.94195221257
323.19936130058;103.459336860954
323.220985476936;102.936169591045
323.242609653291;102.385631056107
323.264233829647;101.820603459886
323.285858006003;101.234674503256
323.307482182358;100.621893613714
323.329106358714;99.9784821417529
323.35073053507;99.2999764926697
323.372354711425;98.5960310186491
323.393978887781;97.865201060598
323.415603064137;97.1165380522588
323.437227240492;96.3756752445859
323.458851416848;95.6556299213818
323.480475593204;94.9486413036802
323.502099769559;94.2559073942122
323.523723945915;93.5840419359896
323.545348122271;92.934357077645
323.566972298626;92.3219665801465
323.588596474982;91.7546457672737
323.610220651338;91.2415650962299
323.631844827693;90.7928661279033
323.653469004049;90.3949038234347
323.675093180405;90.0428299163171
323.69671735676;89.7424008072142
323.718341533116;89.5038161228499
323.739965709472;89.330278308359
323.761589885827;89.221577506064
323.783214062183;89.1748255801859
323.804838238539;89.175690413954
323.826462414894;89.2158954317416
323.84808659125;89.2860205311789
323.869710767606;89.3682231328651
323.891334943961;89.4466587255932
323.912959120317;89.5132707114428
323.934583296673;89.5699598218035
323.956207473028;89.6260556908774
323.977831649384;89.6764774504377
323.99945582574;89.7071891763225
324.021080002095;89.7046478222083
324.042704178451;89.6687505070891
324.064328354807;89.6008083434548
324.085952531162;89.5038870232799
324.107576707518;89.3784517498885
324.129200883874;89.22148590326
324.150825060229;89.0206573375675
324.172449236585;88.7773670388337
324.194073412941;88.4912783968785
324.215697589296;88.1762933504102
324.237321765652;87.8458273526261
324.258945942008;87.4960412711968
324.280570118363;87.1194363158524
324.302194294719;86.7230139815005
324.323818471075;86.314973615678
324.34544264743;85.8951031943408
324.367066823786;85.4634852355372
324.388691000142;85.0354553728436
324.410315176497;84.6441988130625
324.431939352853;84.300568072817
324.453563529209;83.9917225187412
324.475187705564;83.7249615038838
324.49681188192;83.5126291613977
324.518436058276;83.351455256085
324.540060234631;83.233829585065
324.561684410987;83.1588580176104
324.583308587343;83.1243211778847
324.604932763698;83.1302140319026
324.626556940054;83.1735899230483
324.64818111641;83.2464824671322
324.669805292765;83.3373366835704
324.691429469121;83.4329056394849
324.713053645477;83.526675594289
324.734677821832;83.6186875799119
324.756301998188;83.706637462778
324.777926174544;83.7888085043734
