Name;ESR_BC_1_89s_Z_gon_160dg_result

Recipe
Accumulations;5;Number of accumulations
RetryCount;0;Number of retries on error
AbortOnError;True;Abort on error
EnableQFactorMeasurement;False;Enable/Disable q-Factor measurement
Bfrom;313;B from
Bto;363;B to
SweepTime;60;Sweep time
Modulation;0.2;Modulation
ModulationFreq;100;Modulation
BHoldEnabled;False;B hold enabled
BHold;0;B hold
MicrowavePower;2;Microwave power
MarkerEnabled;False;
MarkerStartField;0;
MarkerEndField;0;
Mode;;
KineticGFact;0;
KineticTotalTransientTime;0;
KineticTimeResolution;0;
TempFrom;5;
TempUseSlope;False;
TempTo;5;
TempdT;1;
TempSetupTime;0;
GonFrom;0;
GonTo;180;
GonSteps;20;
XRayEnabled;False;
XRayTime;3;
XRayVoltage;40;
XRayCurrent;0.5;
UVEnabled;False;
UVIntensity;0;
UVTime;0;
UVLeadTime;0;
UVWavelength;0;
PowSweepFrom;1;
PowSweepTo;5;
PowSweepSteps;5;
AmpModSweepFrom;0;
AmpModSweepTo;1;
AmpModSweepSteps;10;
ExtTriggerEnabled;False;
ExtTrigLeadTime;0;
ExtTrigOnTime;5;

Meas
BField [mT];MW_Absorption []
313.014791717529;86.301745453354
313.036417974937;85.5512808901649
313.058044232344;84.9066313274818
313.079670489752;84.387204878601
313.101296747159;84.0005773360094
313.122923004566;83.7379834043894
313.144549261974;83.5860922624301
313.166175519381;83.5342222421873
313.187801776789;83.5688140991445
313.209428034196;83.6777710541861
313.231054291603;83.8497124890284
313.252680549011;84.0861892555149
313.274306806418;84.3860162005126
313.295933063826;84.7268767177074
313.317559321233;85.0938812150031
313.33918557864;85.4861590929976
313.360811836048;85.9086604853574
313.382438093455;86.3653350840616
313.404064350863;86.8678664900726
313.42569060827;87.4281449885368
313.447316865678;88.0360002416047
313.468943123085;88.6597548227689
313.490569380492;89.2922743645544
313.5121956379;89.9379533204941
313.533821895307;90.5804200918634
313.555448152715;91.1899452313987
313.577074410122;91.7504706908185
313.598700667529;92.2837048701295
313.620326924937;92.8025564857892
313.641953182344;93.3087708065824
313.663579439752;93.780152622912
313.685205697159;94.1751680733616
313.706831954567;94.4905583451537
313.728458211974;94.7312539443422
313.750084469381;94.9013845188091
313.771710726789;95.0001164872162
313.793336984196;95.0266386655007
313.814963241604;94.9807268554246
313.836589499011;94.8533429856043
313.858215756418;94.651455089792
313.879842013826;94.4090685730685
313.901468271233;94.1409603202399
313.923094528641;93.8386282573437
313.944720786048;93.4983500028039
313.966347043455;93.1266744178097
313.987973300863;92.740867899478
314.00959955827;92.3586164981855
314.031225815678;91.9915476811838
314.052852073085;91.6343106827273
314.074478330493;91.2720992424353
314.0961045879;90.8978032981411
314.117730845307;90.5096383934482
314.139357102715;90.0966142793814
314.160983360122;89.6506610489861
314.18260961753;89.1869709095003
314.204235874937;88.7380041672313
314.225862132344;88.3096045095622
314.247488389752;87.9169374987057
314.269114647159;87.5640185073382
314.290740904567;87.2451151479149
314.312367161974;86.9641483223674
314.333993419381;86.748726484429
314.355619676789;86.6104242310493
314.377245934196;86.54676362095
314.398872191604;86.5509079226269
314.420498449011;86.6191934419503
314.442124706419;86.7403321760784
314.463750963826;86.8947730790387
314.485377221233;87.068434316108
314.507003478641;87.2515438351651
314.528629736048;87.4371232249386
314.550255993456;87.6251918097397
314.571882250863;87.8147250581221
314.59350850827;88.0029301783807
314.615134765678;88.1745694928541
314.636761023085;88.3226201568184
314.658387280493;88.4593827304233
314.6800135379;88.5858522960991
314.701639795307;88.7043697636114
314.723266052715;88.83313880749
314.744892310122;88.9884771025263
314.76651856753;89.1638242786361
314.788144824937;89.3403378821398
314.809771082345;89.5112715347011
314.831397339752;89.6862443911057
314.853023597159;89.8752028408262
314.874649854567;90.0706681302216
314.896276111974;90.2509055445024
314.917902369382;90.4117578203542
314.939528626789;90.556534693118
314.961154884196;90.6769990087282
314.982781141604;90.7587389514501
315.004407399011;90.7954434673792
315.026033656419;90.7924550343354
315.047659913826;90.7533337478455
315.069286171234;90.6843912742438
315.090912428641;90.5938751677627
315.112538686048;90.4824374760033
315.134164943456;90.3479101744316
315.155791200863;90.1920034588738
315.177417458271;90.0272037200037
315.199043715678;89.8669089240878
315.220669973085;89.706020595489
315.242296230493;89.5336428469715
315.2639224879;89.3439998920175
315.285548745308;89.1345984797799
315.307175002715;88.9022071448214
315.328801260122;88.6438776281736
315.35042751753;88.3558048974417
315.372053774937;88.0414089067072
315.393680032345;87.7147408343904
315.415306289752;87.3817380097795
315.43693254716;87.0422090387945
315.458558804567;86.7104284307363
315.480185061974;86.3959358567426
315.501811319382;86.0963093492443
315.523437576789;85.8128793601598
315.545063834197;85.5549981397887
315.566690091604;85.316560515122
315.588316349011;85.0875959892614
315.609942606419;84.8831082984276
315.631568863826;84.7220078463917
315.653195121234;84.6052762891843
315.674821378641;84.5268839170917
315.696447636048;84.4823691259138
315.718073893456;84.4675199404157
315.739700150863;84.4793841633904
315.761326408271;84.5164613521616
315.782952665678;84.5788136979874
315.804578923086;84.6623732102658
315.826205180493;84.7605653739104
315.8478314379;84.8652060315889
315.869457695308;84.9715655879923
315.891083952715;85.0696303770998
315.912710210123;85.1568810999275
315.93433646753;85.2282095366529
315.955962724937;85.2721857315262
315.977588982345;85.2752141757176
315.999215239752;85.2231192995955
316.02084149716;85.1037182848094
316.042467754567;84.91350742919
316.064094011974;84.6527451682087
316.085720269382;84.3185153744821
316.107346526789;83.9131627315749
316.128972784197;83.4553154486803
316.150599041604;82.9667890136344
316.172225299012;82.4513323416241
316.193851556419;81.9053166732227
316.215477813826;81.3453395748472
316.237104071234;80.8004448438331
316.258730328641;80.2888476895043
316.280356586049;79.8202888529003
316.301982843456;79.403573339751
316.323609100863;79.0573015402232
316.345235358271;78.7969086917403
316.366861615678;78.6327927554475
316.388487873086;78.578220242565
316.410114130493;78.6336273255869
316.431740387901;78.7898226438275
316.453366645308;79.0309093609996
316.474992902715;79.3433668220692
316.496619160123;79.726496112979
316.51824541753;80.1845196080756
316.539871674938;80.7042002516245
316.561497932345;81.2523527244072
316.583124189752;81.8077787642262
316.60475044716;82.3518922438388
316.626376704567;82.8539347479919
316.648002961975;83.3050960896135
316.669629219382;83.7072182555546
316.691255476789;84.0611683387057
316.712881734197;84.378919976248
316.734507991604;84.6705598551112
316.756134249012;84.940530803787
316.777760506419;85.1934359185694
316.799386763826;85.4146812971328
316.821013021234;85.6212805031387
316.842639278641;85.8264167582767
316.864265536049;86.0424653060342
316.885891793456;86.2874794220562
316.907518050864;86.5794081245398
316.929144308271;86.9199589309016
316.950770565678;87.3032986285612
316.972396823086;87.7084924481039
316.994023080493;88.1170256803474
317.015649337901;88.520758804228
317.037275595308;88.8883388961477
317.058901852715;89.2049807405536
317.080528110123;89.467382402365
317.10215436753;89.6820593620074
317.123780624938;89.8155486104307
317.145406882345;89.8739751845174
317.167033139753;89.8596129644116
317.18865939716;89.7805516087852
317.210285654567;89.625013350822
317.231911911975;89.3938963073232
317.253538169382;89.094225387263
317.27516442679;88.723896474922
317.296790684197;88.2904502060725
317.318416941604;87.8156147115917
317.340043199012;87.3156410667209
317.361669456419;86.8233666825488
317.383295713827;86.3613757853825
317.404921971234;85.9278458917254
317.426548228641;85.5191077406405
317.448174486049;85.1482267330302
317.469800743456;84.8318332851552
317.491427000864;84.5755066293078
317.513053258271;84.3749809010773
317.534679515679;84.2270161088565
317.556305773086;84.138349268142
317.577932030493;84.1025991340805
317.599558287901;84.0942369592451
317.621184545308;84.0949212431398
317.642810802716;84.0965945224292
317.664437060123;84.0851434241297
317.68606331753;84.0427647935687
317.707689574938;83.9634613439522
317.729315832345;83.8531230122726
317.750942089753;83.7099806584433
317.77256834716;83.5190276911922
317.794194604567;83.2743359286067
317.815820861975;82.9866395726522
317.837447119382;82.6705946945107
317.85907337679;82.3439327830763
317.880699634197;82.0171525540703
317.902325891605;81.6865994791421
317.923952149012;81.3484482144968
317.945578406419;81.0177449729167
317.967204663827;80.7150575078932
317.988830921234;80.4383080262403
318.010457178642;80.1719478965519
318.032083436049;79.9125299704978
318.053709693456;79.6818479083209
318.075335950864;79.4829651548785
318.096962208271;79.3107968897446
318.118588465679;79.1574104192686
318.140214723086;79.0141901238974
318.161840980493;78.8772693527139
318.183467237901;78.7458517530695
318.205093495308;78.6171013173104
318.226719752716;78.4846944392825
318.248346010123;78.3479205467968
318.269972267531;78.2280940782619
318.291598524938;78.1408595087661
318.313224782345;78.0719772586446
318.334851039753;78.0076434322944
318.35647729716;77.9449761137582
318.378103554568;77.8869010657345
318.399729811975;77.8338016143748
318.421356069382;77.7760308236373
318.44298232679;77.7030079831659
318.464608584197;77.6168920916166
318.486234841605;77.5310877878361
318.507861099012;77.4424849756003
318.52948735642;77.3303512062173
318.551113613827;77.1971579857512
318.572739871234;77.0562084143863
318.594366128642;76.9084080138289
318.615992386049;76.7561297261552
318.637618643457;76.6118424675142
318.659244900864;76.4761863009405
318.680871158271;76.3416533296029
318.702497415679;76.2047902009688
318.724123673086;76.0680374307775
318.745749930494;75.9352178812516
318.767376187901;75.8076131575889
318.789002445308;75.686365599816
318.810628702716;75.571560381086
318.832254960123;75.4587625987717
318.853881217531;75.3536414410079
318.875507474938;75.2617970736712
318.897133732345;75.1825432679954
318.918759989753;75.1124018092031
318.94038624716;75.0478431473043
318.962012504568;74.9955895075953
318.983638761975;74.9578513695345
319.005265019383;74.9320348392011
319.02689127679;74.9185126234961
319.048517534197;74.9174018567468
319.070143791605;74.9316886692808
319.091770049012;74.9645800479063
319.11339630642;75.0150771136316
319.135022563827;75.0796329582172
319.156648821234;75.1567017741393
319.178275078642;75.255995876127
319.199901336049;75.3804977086519
319.221527593457;75.5199532047028
319.243153850864;75.6642921928041
319.264780108272;75.7914169702174
319.286406365679;75.8926117524293
319.308032623086;75.9535368079181
319.329658880494;75.9696158304669
319.351285137901;75.9451217943648
319.372911395309;75.8884716613805
319.394537652716;75.798239911754
319.416163910123;75.6647652624344
319.437790167531;75.4839431720661
319.459416424938;75.2694355214014
319.481042682346;75.0383618929922
319.502668939753;74.7919807273301
319.52429519716;74.5194701729889
319.545921454568;74.2194617352753
319.567547711975;73.8994902305805
319.589173969383;73.5844290252009
319.61080022679;73.2827792659686
319.632426484198;72.9949587237396
319.654052741605;72.7172622864045
319.675678999012;72.4482242792885
319.69730525642;72.191407830853
319.718931513827;71.946086236552
319.740557771235;71.7130145129523
319.762184028642;71.5025031772444
319.783810286049;71.3264369566542
319.805436543457;71.1879393647221
319.827062800864;71.0868402713884
319.848689058272;71.0268794138245
319.870315315679;71.0211859409433
319.891941573086;71.0862496086087
319.913567830494;71.2278023949629
319.935194087901;71.4288666053011
319.956820345309;71.6794777683816
319.978446602716;71.9808434262158
320.000072860124;72.3305622721784
320.021699117531;72.722388234771
320.043325374938;73.1512719363803
320.064951632346;73.623553466153
320.086577889753;74.1309630919606
320.108204147161;74.6129660779582
320.129830404568;75.0191769327422
320.151456661975;75.3585818223515
320.173082919383;75.6420635418085
320.19470917679;75.8573866554131
320.216335434198;75.9871285096951
320.237961691605;76.0212031553508
320.259587949012;75.9489580691499
320.28121420642;75.7889378633582
320.302840463827;75.5680561062947
320.324466721235;75.289516989009
320.346092978642;74.9492821027463
320.36771923605;74.5561882529077
320.389345493457;74.1251377572234
320.410971750864;73.6724284452546
320.432598008272;73.2156393032888
320.454224265679;72.7761353935844
320.475850523087;72.3801070731776
320.497476780494;72.0368415633982
320.519103037901;71.7392306809876
320.540729295309;71.4860354031599
320.562355552716;71.2853996853811
320.583981810124;71.141300994215
320.605608067531;71.0546277047195
320.627234324939;71.0204701716979
320.648860582346;71.0273762297117
320.670486839753;71.0643379149038
320.692113097161;71.1287323451458
320.713739354568;71.2255039494902
320.735365611976;71.361569532394
320.756991869383;71.5341498290398
320.77861812679;71.7344892615958
320.800244384198;71.9545575026658
320.821870641605;72.1912220789958
320.843496899013;72.4499365037599
320.86512315642;72.7355956679417
320.886749413827;73.0386082187053
320.908375671235;73.354071250272
320.930001928642;73.6905938617769
320.95162818605;74.0388884771553
320.973254443457;74.3753533998941
320.994880700864;74.6924573179456
321.016506958272;74.9962604754299
321.038133215679;75.2895195287247
321.059759473087;75.5689394990993
321.081385730494;75.8288538342689
321.103011987902;76.0688786261058
321.124638245309;76.2907779227709
321.146264502716;76.495736979072
321.167890760124;76.672625150295
321.189517017531;76.8127376574448
321.211143274939;76.9217615108803
321.232769532346;77.000465316158
321.254395789753;77.0432577914809
321.276022047161;77.0456944926356
321.297648304568;77.0046948974788
321.319274561976;76.9142732148754
321.340900819383;76.7726534914591
321.362527076791;76.5859246408829
321.384153334198;76.3567715288033
321.405779591605;76.0785163077818
321.427405849013;75.7493727652521
321.44903210642;75.3616686697845
321.470658363828;74.9068943134812
321.492284621235;74.3889650792929
321.513910878642;73.8202029244498
321.53553713605;73.2228446257115
321.557163393457;72.5812671377476
321.578789650865;71.8757677775359
321.600415908272;71.1348865741591
321.622042165679;70.3830984445112
321.643668423087;69.61368159576
321.665294680494;68.8335798361286
321.686920937902;68.051075777342
321.708547195309;67.2607298756097
321.730173452717;66.4555439594513
321.751799710124;65.6428621783027
321.773425967531;64.8592253543881
321.795052224939;64.1209732214485
321.816678482346;63.4211899411895
321.838304739754;62.770173072944
321.859930997161;62.1665703981246
321.881557254568;61.6007134114371
321.903183511976;61.0651194792184
321.924809769383;60.5487282108542
321.946436026791;60.0632420992994
321.968062284198;59.6303685698878
321.989688541605;59.2408513915989
322.011314799013;58.8964825430861
322.03294105642;58.6140866517676
322.054567313828;58.3808919471786
322.076193571235;58.1753318880129
322.097819828643;58.0001688149851
322.11944608605;57.8752867356253
322.141072343457;57.8126038445176
322.162698600865;57.808788365364
322.184324858272;57.8560217031802
322.20595111568;57.9505976403667
322.227577373087;58.0996735751556
322.249203630494;58.30309337833
322.270829887902;58.558571802664
322.292456145309;58.867500882442
322.314082402717;59.2294550097364
322.335708660124;59.6381991802784
322.357334917531;60.0775364396027
322.378961174939;60.5215688294182
322.400587432346;60.9578888517693
322.422213689754;61.3799526631683
322.443839947161;61.7797396162493
322.465466204569;62.1585769951946
322.487092461976;62.5118479510687
322.508718719383;62.8220332987103
322.530344976791;63.0684785245333
322.551971234198;63.2518196472206
322.573597491606;63.3498409132065
322.595223749013;63.3626600949485
322.61685000642;63.2913948361123
322.638476263828;63.1463853627807
322.660102521235;62.9377290125772
322.681728778643;62.6658608697137
322.70335503605;62.3295259735356
322.724981293458;61.9393759641823
322.746607550865;61.5183164970232
322.768233808272;61.0970630567593
322.78986006568;60.6729077025687
322.811486323087;60.2456058023647
322.833112580495;59.8238437098624
322.854738837902;59.4262053015041
322.876365095309;59.0642995517233
322.897991352717;58.7330659588815
322.919617610124;58.4143868765557
322.941243867532;58.1016623826654
322.962870124939;57.8066610564807
322.984496382346;57.5289828162698
323.006122639754;57.2638530287996
323.027748897161;57.0049422459833
323.049375154569;56.7479043987353
323.071001411976;56.5016899536455
323.092627669384;56.2812067986492
323.114253926791;56.0981533085561
323.135880184198;55.9595730830572
323.157506441606;55.8661051576993
323.179132699013;55.8152173214998
323.200758956421;55.8022188520835
323.222385213828;55.815470577654
323.244011471235;55.8403326491299
323.265637728643;55.8632148967412
323.28726398605;55.8766471844575
323.308890243458;55.8711102824375
323.330516500865;55.8351276160826
323.352142758272;55.749391588502
323.37376901568;55.5967458434984
323.395395273087;55.378638759064
323.417021530495;55.1064443075985
323.438647787902;54.7921551231317
323.46027404531;54.4528675354612
323.481900302717;54.1029852967318
323.503526560124;53.7528724794387
323.525152817532;53.4143782806699
323.546779074939;53.1035975768609
323.568405332347;52.8331142816837
323.590031589754;52.6041737034261
323.611657847161;52.4189392737863
323.633284104569;52.276597271513
323.654910361976;52.1793666579693
323.676536619384;52.1397034657458
323.698162876791;52.1447420732841
323.719789134198;52.1784695015977
323.741415391606;52.2339947085604
323.763041649013;52.3067605279245
323.784667906421;52.3975867010638
323.806294163828;52.5090778676006
323.827920421236;52.6401069359101
323.849546678643;52.7833795375075
323.87117293605;52.9306244965141
323.892799193458;53.080562940443
323.914425450865;53.2398072886955
323.936051708273;53.4110933276499
323.95767796568;53.5967416809218
323.979304223087;53.7996638597514
324.000930480495;54.0149762583753
324.022556737902;54.2256945861736
324.04418299531;54.4137788807766
324.065809252717;54.5654362782324
324.087435510125;54.666290898143
324.109061767532;54.7242408340857
324.130688024939;54.741595933457
324.152314282347;54.7149179644127
324.173940539754;54.6484954988892
324.195566797162;54.5504191520495
324.217193054569;54.4242722794901
324.238819311976;54.2692225712319
324.260445569384;54.0845353039276
324.282071826791;53.8806306245264
324.303698084199;53.6689445568686
324.325324341606;53.4563412005434
324.346950599013;53.2496841768139
324.368576856421;53.0560367263959
324.390203113828;52.8771744570687
324.411829371236;52.7073970966688
324.433455628643;52.5372431903603
324.45508188605;52.3589484940432
324.476708143458;52.177162000861
324.498334400865;52.0000538279865
324.519960658273;51.8245170134376
324.54158691568;51.6477721267457
324.563213173088;51.4644194450012
324.584839430495;51.2669633114566
324.606465687902;51.0513313213732
324.62809194531;50.8220984438625
324.649718202717;50.5909755530478
324.671344460125;50.3615639613676
324.692970717532;50.1286500792058
324.714596974939;49.8883548736999
324.736223232347;49.6588475591055
324.757849489754;49.4533383221484
324.779475747162;49.2650574139209
