Name;ESR_BC_1_7200s_X_gon_120dg_result

Recipe
Accumulations;5;Number of accumulations
RetryCount;0;Number of retries on error
AbortOnError;True;Abort on error
EnableQFactorMeasurement;False;Enable/Disable q-Factor measurement
Bfrom;313;B from
Bto;363;B to
SweepTime;60;Sweep time
Modulation;0.2;Modulation
ModulationFreq;100;Modulation
BHoldEnabled;False;B hold enabled
BHold;0;B hold
MicrowavePower;2;Microwave power
MarkerEnabled;False;
MarkerStartField;0;
MarkerEndField;0;
Mode;;
KineticGFact;0;
KineticTotalTransientTime;0;
KineticTimeResolution;0;
TempFrom;5;
TempUseSlope;False;
TempTo;5;
TempdT;1;
TempSetupTime;0;
GonFrom;0;
GonTo;180;
GonSteps;20;
XRayEnabled;False;
XRayTime;3;
XRayVoltage;40;
XRayCurrent;0.5;
UVEnabled;False;
UVIntensity;0;
UVTime;0;
UVLeadTime;0;
UVWavelength;0;
PowSweepFrom;1;
PowSweepTo;5;
PowSweepSteps;5;
AmpModSweepFrom;0;
AmpModSweepTo;1;
AmpModSweepSteps;10;
ExtTriggerEnabled;False;
ExtTrigLeadTime;0;
ExtTrigOnTime;5;

Meas
BField [mT];MW_Absorption []
313.018114547729;541.377217526213
313.039735161422;540.724551900684
313.061355775115;540.016842771184
313.082976388807;539.245289781797
313.1045970025;538.404740844892
313.126217616193;537.478641257293
313.147838229885;536.482364340787
313.169458843578;535.461311164046
313.191079457271;534.431109003075
313.212700070963;533.374421787121
313.234320684656;532.31162944229
313.255941298349;531.297516766006
313.277561912041;530.318569095593
313.299182525734;529.357982818741
313.320803139426;528.429713264413
313.342423753119;527.588294882827
313.364044366812;526.853759276418
313.385664980504;526.212961141089
313.407285594197;525.662069541127
313.42890620789;525.197605674075
313.450526821582;524.811845352964
313.472147435275;524.482559166231
313.493768048968;524.178262975433
313.51538866266;523.900550094378
313.537009276353;523.648734278305
313.558629890046;523.402657665739
313.580250503738;523.146366313903
313.601871117431;522.874415576256
313.623491731123;522.592974573107
313.645112344816;522.287848110198
313.666732958509;521.941604217971
313.688353572201;521.566511646565
313.709974185894;521.179643328075
313.731594799587;520.788618711329
313.753215413279;520.395013864737
313.774836026972;519.98581096588
313.796456640665;519.564146394448
313.818077254357;519.140772307844
313.83969786805;518.715884606551
313.861318481743;518.272416811011
313.882939095435;517.795951911432
313.904559709128;517.284801866413
313.92618032282;516.738003845194
313.947800936513;516.142599381095
313.969421550206;515.50020748414
313.991042163898;514.839419930492
314.012662777591;514.195424515904
314.034283391284;513.572072989318
314.055904004976;512.953654259849
314.077524618669;512.337868687815
314.099145232362;511.731781267102
314.120765846054;511.122870289066
314.142386459747;510.493190273792
314.16400707344;509.842277122235
314.185627687132;509.174584396443
314.207248300825;508.486336459806
314.228868914517;507.770307800636
314.25048952821;507.010237098835
314.272110141903;506.206188288131
314.293730755595;505.381116626723
314.315351369288;504.547375440973
314.336971982981;503.696548885664
314.358592596673;502.803397119584
314.380213210366;501.874412975771
314.401833824059;500.935734373786
314.423454437751;499.976170381001
314.445075051444;498.973641222894
314.466695665137;497.929697467747
314.488316278829;496.858248036468
314.509936892522;495.762749602848
314.531557506214;494.64984600676
314.553178119907;493.504431330836
314.5747987336;492.284878835707
314.596419347292;490.967786658773
314.618039960985;489.615231166111
314.639660574678;488.264290064078
314.66128118837;486.924275004164
314.682901802063;485.630029557437
314.704522415756;484.381642532763
314.726143029448;483.170616108711
314.747763643141;482.0331423886
314.769384256834;480.980963816912
314.791004870526;479.99844282669
314.812625484219;479.072069011844
314.834246097911;478.210704037075
314.855866711604;477.437728156168
314.877487325297;476.759174159864
314.899107938989;476.154291807313
314.920728552682;475.59543987369
314.942349166375;475.06052379732
314.963969780067;474.536564184795
314.98559039376;474.003072722597
315.007211007453;473.447462209056
315.028831621145;472.865408942616
315.050452234838;472.245612201377
315.072072848531;471.585444198504
315.093693462223;470.89847471798
315.115314075916;470.192714087163
315.136934689608;469.473883532968
315.158555303301;468.742040721813
315.180175916994;467.988616010148
315.201796530686;467.213227583804
315.223417144379;466.452171441687
315.245037758072;465.730214766094
315.266658371764;465.01176551742
315.288278985457;464.299932881246
315.30989959915;463.613402332306
315.331520212842;462.940403739431
315.353140826535;462.260748291257
315.374761440228;461.557309055318
315.39638205392;460.811556208463
315.418002667613;460.009242859134
315.439623281305;459.176846116358
315.461243894998;458.361342206116
315.482864508691;457.565295588974
315.504485122383;456.778137450003
315.526105736076;455.993774232449
315.547726349769;455.190664288721
315.569346963461;454.363714770535
315.590967577154;453.497066840131
315.612588190847;452.581206658741
315.634208804539;451.609240919029
315.655829418232;450.56913428607
315.677450031925;449.476787790462
315.699070645617;448.371353107797
315.72069125931;447.253191292277
315.742311873002;446.087123843483
315.763932486695;444.848910203526
315.785553100388;443.571000985958
315.80717371408;442.318415427719
315.828794327773;441.091120780413
315.850414941466;439.868020526892
315.872035555158;438.647802665594
315.893656168851;437.437417462079
315.915276782544;436.237711748886
315.936897396236;435.052013795686
315.958518009929;433.889968258587
315.980138623622;432.796270474988
316.001759237314;431.795765378626
316.023379851007;430.851693687454
316.045000464699;429.948396796127
316.066621078392;429.144487034926
316.088241692085;428.456558022473
316.109862305777;427.844683831148
316.13148291947;427.284946866421
316.153103533163;426.766562250286
316.174724146855;426.278546611832
316.196344760548;425.804867425998
316.217965374241;425.337119660345
316.239585987933;424.871429095125
316.261206601626;424.399395488083
316.282827215318;423.909433569096
316.304447829011;423.397326723792
316.326068442704;422.862825638587
316.347689056396;422.291780562255
316.369309670089;421.670556453717
316.390930283782;421.013806900385
316.412550897474;420.35335424616
316.434171511167;419.702108158398
316.45579212486;419.060874454248
316.477412738552;418.423713221195
316.499033352245;417.776015353647
316.520653965938;417.105443796828
316.54227457963;416.414602576497
316.563895193323;415.714982447211
316.585515807016;414.991105732377
316.607136420708;414.219346908212
316.628757034401;413.408812197978
316.650377648093;412.581878406144
316.671998261786;411.754804204044
316.693618875479;410.92100140123
316.715239489171;410.06629725302
316.736860102864;409.222218685704
316.758480716557;408.402030737498
316.780101330249;407.599002347826
316.801721943942;406.838492574884
316.823342557635;406.124599116191
316.844963171327;405.43537439098
316.86658378502;404.743152378782
316.888204398713;404.054258210131
316.909825012405;403.397904587426
316.931445626098;402.760598469699
316.95306623979;402.128008494627
316.974686853483;401.515307685768
316.996307467176;400.934242159908
317.017928080868;400.378787501701
317.039548694561;399.834205045204
317.061169308254;399.296156758569
317.082789921946;398.798860474407
317.104410535639;398.368520049143
317.126031149332;398.004275244537
317.147651763024;397.693394229934
317.169272376717;397.428681602476
317.19089299041;397.204473880478
317.212513604102;397.015983821091
317.234134217795;396.860602092257
317.255754831487;396.724311316942
317.27737544518;396.596722889198
317.298996058873;396.485518441408
317.320616672565;396.390809682964
317.342237286258;396.298961212033
317.363857899951;396.197410966007
317.385478513643;396.077003956422
317.407099127336;395.931165814718
317.428719741029;395.747447044183
317.450340354721;395.520722456473
317.471960968414;395.262487179294
317.493581582107;394.990379039708
317.515202195799;394.700820812233
317.536822809492;394.377841304482
317.558443423184;394.000422816773
317.580064036877;393.557794511462
317.60168465057;393.06612363831
317.623305264262;392.54615355038
317.644925877955;391.984582646701
317.666546491648;391.365831725155
317.68816710534;390.666700620136
317.709787719033;389.871887027601
317.731408332726;388.984872811145
317.753028946418;388.020461597555
317.774649560111;386.988999428677
317.796270173804;385.884732478203
317.817890787496;384.704265878569
317.839511401189;383.502266469578
317.861132014881;382.352009213659
317.882752628574;381.257152024872
317.904373242267;380.202802408196
317.925993855959;379.208987247786
317.947614469652;378.296996065783
317.969235083345;377.467114637496
317.990855697037;376.730964410311
318.01247631073;376.095349504063
318.034096924423;375.545789380505
318.055717538115;375.066815494124
318.077338151808;374.639994378
318.098958765501;374.241627547523
318.120579379193;373.851968709208
318.142199992886;373.465542659074
318.163820606578;373.082666082489
318.185441220271;372.698609885928
318.207061833964;372.307504738397
318.228682447656;371.911525138914
318.250303061349;371.512231140402
318.271923675042;371.118844064161
318.293544288734;370.749526120335
318.315164902427;370.411951190227
318.33678551612;370.103611319575
318.358406129812;369.825935228542
318.380026743505;369.590849303266
318.401647357198;369.407061705021
318.42326797089;369.271122398061
318.444888584583;369.175993055993
318.466509198275;369.124695462786
318.488129811968;369.126339479004
318.509750425661;369.161857459315
318.531371039353;369.208545480708
318.552991653046;369.257193019213
318.574612266739;369.29379858264
318.596232880431;369.298569050313
318.617853494124;369.250867756988
318.639474107817;369.141460204445
318.661094721509;368.967027285662
318.682715335202;368.702791743596
318.704335948895;368.317047083274
318.725956562587;367.831786211574
318.74757717628;367.26298325513
318.769197789972;366.57763979386
318.790818403665;365.770064399523
318.812439017358;364.846419220922
318.83405963105;363.867978171691
318.855680244743;362.87592414513
318.877300858436;361.845119132412
318.898921472128;360.783981322834
318.920542085821;359.73437758406
318.942162699514;358.775550564718
318.963783313206;357.921810136299
318.985403926899;357.163848261917
319.007024540591;356.502291714329
319.028645154284;355.930968420888
319.050265767977;355.430270250248
319.071886381669;354.982325072225
319.093506995362;354.595843694031
319.115127609055;354.279191069921
319.136748222747;354.022555615366
319.15836883644;353.80793755211
319.179989450133;353.622178575035
319.201610063825;353.447422588207
319.223230677518;353.275601914131
319.244851291211;353.100446375649
319.266471904903;352.907087248029
319.288092518596;352.690172374628
319.309713132288;352.467840814346
319.331333745981;352.256772568305
319.352954359674;352.054496086543
319.374574973366;351.854158026365
319.396195587059;351.654209660495
319.417816200752;351.4510176163
319.439436814444;351.233429561842
319.461057428137;350.987702247861
319.48267804183;350.705925917565
319.504298655522;350.396632836585
319.525919269215;350.07126300918
319.547539882908;349.723745371352
319.5691604966;349.35259388189
319.590781110293;348.970760674068
319.612401723986;348.591268684948
319.634022337678;348.210463888884
319.655642951371;347.82057466128
319.677263565063;347.453673753033
319.698884178756;347.153762182291
319.720504792449;346.913079965336
319.742125406141;346.734398884573
319.763746019834;346.637881432689
319.785366633527;346.612457436715
319.806987247219;346.655687994697
319.828607860912;346.773423652282
319.850228474605;346.960112099845
319.871849088297;347.183973839617
319.89346970199;347.438319217289
319.915090315683;347.718524470265
319.936710929375;348.007601565824
319.958331543068;348.28915606813
319.97995215676;348.554886558988
320.001572770453;348.800104139539
320.023193384146;349.005419439016
320.044813997838;349.159020655438
320.066434611531;349.276338386642
320.088055225224;349.375803030118
320.109675838916;349.466676035711
320.131296452609;349.55158698693
320.152917066302;349.641879116434
320.174537679994;349.758461242624
320.196158293687;349.914866325365
320.21777890738;350.116110180135
320.239399521072;350.367968718312
320.261020134765;350.665549157803
320.282640748457;350.984057550482
320.30426136215;351.296159594418
320.325881975843;351.571802664489
320.347502589535;351.772435907914
320.369123203228;351.862636974813
320.390743816921;351.800748590493
320.412364430613;351.547964136526
320.433985044306;351.081377475848
320.455605657999;350.393605834268
320.477226271691;349.470867290164
320.498846885384;348.316343465247
320.520467499077;346.941280715343
320.542088112769;345.356168165804
320.563708726462;343.61692764687
320.585329340154;341.776346235908
320.606949953847;339.83233916402
320.62857056754;337.797480954874
320.650191181232;335.788561696668
320.671811794925;333.871546452142
320.693432408618;332.128406138264
320.71505302231;330.640670793101
320.736673636003;329.407608798018
320.758294249696;328.383650728856
320.779914863388;327.531745989379
320.801535477081;326.841679817912
320.823156090774;326.297009258955
320.844776704466;325.866162415219
320.866397318159;325.516008963563
320.888017931851;325.207450684015
320.909638545544;324.905806903871
320.931259159237;324.579568725512
320.952879772929;324.186225418357
320.974500386622;323.669902936733
320.996121000315;323.001237541817
321.017741614007;322.196353644997
321.0393622277;321.254231971781
321.060982841393;320.157669923561
321.082603455085;318.902580568088
321.104224068778;317.496771863893
321.125844682471;315.966940638187
321.147465296163;314.337473613253
321.169085909856;312.597914406864
321.190706523548;310.738960537237
321.212327137241;308.822601059027
321.233947750934;306.920948735337
321.255568364626;305.069355669734
321.277188978319;303.320838877218
321.298809592012;301.7777500501
321.320430205704;300.472575950698
321.342050819397;299.376220655085
321.36367143309;298.463034191123
321.385292046782;297.754707709901
321.406912660475;297.284214530441
321.428533274168;297.02668446194
321.45015388786;296.952181849007
321.471774501553;297.029769894494
321.493395115245;297.238486481831
321.515015728938;297.556205583095
321.536636342631;297.950352357142
321.558256956323;298.392227793998
321.579877570016;298.856199734478
321.601498183709;299.306173933294
321.623118797401;299.715256282282
321.644739411094;300.078577759799
321.666360024787;300.398529060362
321.687980638479;300.67442090112
321.709601252172;300.897869259939
321.731221865864;301.058571430569
321.752842479557;301.154274341072
321.77446309325;301.18276322663
321.796083706942;301.13628872513
321.817704320635;301.015840093981
321.839324934328;300.832083570451
321.86094554802;300.592981715069
321.882566161713;300.29916908726
321.904186775406;299.954691690116
321.925807389098;299.569274517628
321.947428002791;299.152148043732
321.969048616484;298.719721632494
321.990669230176;298.293320675106
322.012289843869;297.878679843988
322.033910457561;297.475435875702
322.055531071254;297.084608191562
322.077151684947;296.706927035903
322.098772298639;296.347678734366
322.120392912332;296.00739933825
322.142013526025;295.683098483392
322.163634139717;295.374811469856
322.18525475341;295.079861180995
322.206875367103;294.80432136377
322.228495980795;294.546880163563
322.250116594488;294.301739965648
322.271737208181;294.072878420786
322.293357821873;293.860257624813
322.314978435566;293.649532141805
322.336599049259;293.433143086918
322.358219662951;293.223473947123
322.379840276644;293.023068534317
322.401460890336;292.821121368392
322.423081504029;292.610412136494
322.444702117722;292.397080769948
322.466322731414;292.181409689989
322.487943345107;291.968778174479
322.5095639588;291.752729516383
322.531184572492;291.518087138184
322.552805186185;291.261281897982
322.574425799878;290.989931953385
322.59604641357;290.69363854755
322.617667027263;290.34957915537
322.639287640956;289.945179471842
322.660908254648;289.482217795806
322.682528868341;288.968501280656
322.704149482033;288.411281494069
322.725770095726;287.818670169495
322.747390709419;287.174335174351
322.769011323111;286.449095656975
322.790631936804;285.666854914683
322.812252550497;284.879513420848
322.833873164189;284.10675872764
322.855493777882;283.315904671284
322.877114391575;282.506216700984
322.898735005267;281.707652822829
322.92035561896;280.917755219122
322.941976232653;280.151359382414
322.963596846345;279.440007950011
322.985217460038;278.793205006741
323.00683807373;278.202571355448
323.028458687423;277.647725472263
323.050079301116;277.109948104655
323.071699914808;276.578137007317
323.093320528501;276.069947578299
323.114941142194;275.621949666643
323.136561755886;275.242267365966
323.158182369579;274.929153041788
323.179802983272;274.681607559782
323.201423596964;274.507858739398
323.223044210657;274.374944726628
323.24466482435;274.284731866877
323.266285438042;274.259883284742
323.287906051735;274.326845846375
323.309526665427;274.448876818752
323.33114727912;274.603273960712
323.352767892813;274.791810577667
323.374388506505;274.998309171549
323.396009120198;275.200068694056
323.417629733891;275.364014970917
323.439250347583;275.473541112712
323.460870961276;275.530052558066
323.482491574969;275.531300306611
323.504112188661;275.467959920231
323.525732802354;275.339564351544
323.547353416047;275.162656348047
323.568974029739;274.941901343465
323.590594643432;274.678579067362
323.612215257124;274.362557971513
323.633835870817;274.008172740876
323.65545648451;273.639138476279
323.677077098202;273.269229799365
323.698697711895;272.897357273423
323.720318325588;272.50916599827
323.74193893928;272.096634878686
323.763559552973;271.676146802546
323.785180166666;271.264403644703
323.806800780358;270.867271474902
323.828421394051;270.482799456202
323.850042007744;270.108159879201
323.871662621436;269.725890522774
323.893283235129;269.315313986179
323.914903848821;268.887596341362
323.936524462514;268.464546635266
323.958145076207;268.040871940083
323.979765689899;267.613804800324
324.001386303592;267.190888322651
324.023006917285;266.780599910745
324.044627530977;266.391464438434
324.06624814467;266.028250301377
324.087868758363;265.684804599168
324.109489372055;265.355169687241
324.131109985748;265.041152994228
324.15273059944;264.736296305149
324.174351213133;264.430560219979
324.195971826826;264.121998039748
324.217592440518;263.806231850404
324.239213054211;263.459864196495
324.260833667904;263.041949318155
324.282454281596;262.534440448689
324.304074895289;261.949810453408
324.325695508982;261.291399428241
324.347316122674;260.550713898173
324.368936736367;259.737109733977
324.39055735006;258.831100796229
324.412177963752;257.79097825174
324.433798577445;256.641303194947
324.455419191137;255.409085285383
324.47703980483;254.113066260676
324.498660418523;252.805063527671
324.520281032215;251.521003447911
324.541901645908;250.227228269355
324.563522259601;248.870835149449
324.585142873293;247.470700827164
324.606763486986;246.101709452271
324.628384100679;244.806022995957
324.650004714371;243.542812516128
324.671625328064;242.239864315488
324.693245941757;240.853261630852
324.714866555449;239.397159569067
324.736487169142;237.931577209984
324.758107782834;236.502893153144
