Name;ESR_BC_1_29min_X_gon_0dg_result

Recipe
Accumulations;5;Number of accumulations
RetryCount;0;Number of retries on error
AbortOnError;True;Abort on error
EnableQFactorMeasurement;False;Enable/Disable q-Factor measurement
Bfrom;313;B from
Bto;363;B to
SweepTime;60;Sweep time
Modulation;0.2;Modulation
ModulationFreq;100;Modulation
BHoldEnabled;False;B hold enabled
BHold;0;B hold
MicrowavePower;2;Microwave power
MarkerEnabled;False;
MarkerStartField;0;
MarkerEndField;0;
Mode;;
KineticGFact;0;
KineticTotalTransientTime;0;
KineticTimeResolution;0;
TempFrom;5;
TempUseSlope;False;
TempTo;5;
TempdT;1;
TempSetupTime;0;
GonFrom;0;
GonTo;180;
GonSteps;20;
XRayEnabled;False;
XRayTime;3;
XRayVoltage;40;
XRayCurrent;0.5;
UVEnabled;False;
UVIntensity;0;
UVTime;0;
UVLeadTime;0;
UVWavelength;0;
PowSweepFrom;1;
PowSweepTo;5;
PowSweepSteps;5;
AmpModSweepFrom;0;
AmpModSweepTo;1;
AmpModSweepSteps;10;
ExtTriggerEnabled;False;
ExtTrigLeadTime;0;
ExtTrigOnTime;5;

Meas
BField [mT];MW_Absorption []
313.027114181519;514.47399318164
313.048738690562;514.146356841957
313.070363199606;513.777943001732
313.091987708649;513.340217775221
313.113612217693;512.82423201638
313.135236726736;512.238022597702
313.15686123578;511.603827198561
313.178485744823;510.961637333486
313.200110253867;510.303352124546
313.22173476291;509.609416270167
313.243359271954;508.885409575355
313.264983780997;508.145287924858
313.286608290041;507.440967945171
313.308232799084;506.81155294034
313.329857308128;506.240858081579
313.351481817171;505.710469237593
313.373106326215;505.202360207137
313.394730835258;504.716605274178
313.416355344302;504.257900131768
313.437979853345;503.81937788157
313.459604362389;503.391409232647
313.481228871432;502.965405874737
313.502853380476;502.534402440585
313.524477889519;502.094604476433
313.546102398563;501.646998481284
313.567726907606;501.2010797929
313.58935141665;500.768457632896
313.610975925693;500.355547291853
313.632600434737;499.970690475095
313.65422494378;499.619839278381
313.675849452824;499.310929706996
313.697473961867;499.05080636793
313.719098470911;498.84221019697
313.740722979954;498.689684051911
313.762347488998;498.594849827959
313.783971998041;498.544352843679
313.805596507085;498.514556323837
313.827221016128;498.515510383403
313.848845525172;498.568001780486
313.870470034215;498.658674806604
313.892094543259;498.747896034197
313.913719052302;498.81414117051
313.935343561346;498.859929917921
313.956968070389;498.874436942782
313.978592579433;498.841688289084
314.000217088476;498.75973036388
314.02184159752;498.631859830107
314.043466106563;498.460572808645
314.065090615607;498.248928844857
314.08671512465;498.002717799433
314.108339633694;497.731716239548
314.129964142737;497.439881227904
314.151588651781;497.12876406621
314.173213160825;496.807177971897
314.194837669868;496.498303955298
314.216462178912;496.210468692558
314.238086687955;495.931128840735
314.259711196999;495.650482416621
314.281335706042;495.383051987949
314.302960215086;495.146949317157
314.324584724129;494.936488026674
314.346209233173;494.744118806715
314.367833742216;494.562208731559
314.38945825126;494.389358295014
314.411082760303;494.233385666259
314.432707269347;494.096872492749
314.45433177839;493.972650665605
314.475956287434;493.852582635973
314.497580796477;493.732244012801
314.519205305521;493.609458671707
314.540829814564;493.472949704971
314.562454323608;493.30273853892
314.584078832651;493.080001310625
314.605703341695;492.81583508125
314.627327850738;492.522397494951
314.648952359782;492.20017480172
314.670576868825;491.839643052714
314.692201377869;491.424081700022
314.713825886912;490.952343416798
314.735450395956;490.42012902565
314.757074904999;489.830161359261
314.778699414043;489.218199364267
314.800323923086;488.601030295725
314.82194843213;487.95802140647
314.843572941173;487.27863798637
314.865197450217;486.580753486864
314.88682195926;485.868007459517
314.908446468304;485.120341439153
314.930070977347;484.301831457287
314.951695486391;483.479773103142
314.973319995434;482.719032559368
314.994944504478;481.970868186842
315.016569013521;481.201893702404
315.038193522565;480.411079840163
315.059818031608;479.626499265643
315.081442540652;478.883848062623
315.103067049695;478.220375011885
315.124691558739;477.637664603664
315.146316067782;477.105278721866
315.167940576826;476.622177393636
315.189565085869;476.191520334661
315.211189594913;475.815172237755
315.232814103956;475.495759628209
315.254438613;475.230177612489
315.276063122043;475.003470125275
315.297687631087;474.809060389667
315.31931214013;474.658733196366
315.340936649174;474.547606580306
315.362561158217;474.457416285828
315.384185667261;474.380660489869
315.405810176304;474.311850883029
315.427434685348;474.239277996667
315.449059194391;474.146229823264
315.470683703435;474.02861426565
315.492308212478;473.89698234482
315.513932721522;473.745025620582
315.535557230565;473.546887703811
315.557181739609;473.278559019813
315.578806248652;472.908388571531
315.600430757696;472.420928235859
315.622055266739;471.847095646069
315.643679775783;471.232340727496
315.665304284827;470.57647708644
315.68692879387;469.867544487727
315.708553302914;469.127302689147
315.730177811957;468.363770926446
315.751802321001;467.563645292413
315.773426830044;466.734660733839
315.795051339088;465.934370583952
315.816675848131;465.199464161223
315.838300357175;464.521401633023
315.859924866218;463.880993691037
315.881549375262;463.272307024373
315.903173884305;462.718754488628
315.924798393349;462.247354648098
315.946422902392;461.847558505122
315.968047411436;461.503511357669
315.989671920479;461.20136549255
316.011296429523;460.935998622309
316.032920938566;460.725854643859
316.05454544761;460.568606512607
316.076169956653;460.460577645401
316.097794465697;460.398209472346
316.11941897474;460.365299934892
316.141043483784;460.343455660209
316.162667992827;460.320664787043
316.184292501871;460.287727487228
316.205917010914;460.237830984359
316.227541519958;460.157958545973
316.249166029001;460.035557623357
316.270790538045;459.868261062626
316.292415047088;459.663523846692
316.314039556132;459.422298390384
316.335664065175;459.124515254719
316.357288574219;458.761701056951
316.378913083262;458.343208472745
316.400537592306;457.875087314966
316.422162101349;457.359615586021
316.443786610393;456.810654537488
316.465411119436;456.260742869073
316.48703562848;455.733683791527
316.508660137523;455.238337616816
316.530284646567;454.774563177277
316.55190915561;454.346135130728
316.573533664654;453.955249145678
316.595158173697;453.604337985752
316.616782682741;453.30369545568
316.638407191784;453.055636609334
316.660031700828;452.849991786417
316.681656209871;452.672899938141
316.703280718915;452.512750815137
316.724905227958;452.360668340268
316.746529737002;452.213057959836
316.768154246045;452.069048390053
316.789778755089;451.918666073885
316.811403264132;451.745857469014
316.833027773176;451.540034447395
316.854652282219;451.28710594705
316.876276791263;450.984269530382
316.897901300306;450.639219170198
316.91952580935;450.253105884675
316.941150318394;449.825463301551
316.962774827437;449.358570353753
316.984399336481;448.854880779574
317.006023845524;448.317632056902
317.027648354568;447.751310048532
317.049272863611;447.145348561747
317.070897372655;446.485938784795
317.092521881698;445.803411454406
317.114146390742;445.150354140812
317.135770899785;444.549788721447
317.157395408829;443.984913976073
317.179019917872;443.437844843043
317.200644426916;442.903755105796
317.222268935959;442.390150660486
317.243893445003;441.910458368422
317.265517954046;441.486406389
317.28714246309;441.126502406865
317.308766972133;440.823795807932
317.330391481177;440.559085283437
317.35201599022;440.308939130302
317.373640499264;440.059581494081
317.395265008307;439.803748402028
317.416889517351;439.533738665665
317.438514026394;439.246461197647
317.460138535438;438.955794022054
317.481763044481;438.658857105852
317.503387553525;438.338121422386
317.525012062568;437.982734267837
317.546636571612;437.595991811788
317.568261080655;437.177705219584
317.589885589699;436.746516627408
317.611510098742;436.322573598132
317.633134607786;435.905073818167
317.654759116829;435.511120248852
317.676383625873;435.163497949332
317.698008134916;434.860695189229
317.71963264396;434.596144825806
317.741257153003;434.374011912854
317.762881662047;434.201106066396
317.78450617109;434.077450034466
317.806130680134;433.992836528996
317.827755189177;433.930136136814
317.849379698221;433.874669142257
317.871004207264;433.821161594822
317.892628716308;433.755794299583
317.914253225351;433.668790253402
317.935877734395;433.544588463268
317.957502243438;433.369921067755
317.979126752482;433.146169270495
318.000751261525;432.880389030466
318.022375770569;432.558094867128
318.044000279612;432.166321368223
318.065624788656;431.723920239966
318.087249297699;431.232416063463
318.108873806743;430.678426279432
318.130498315786;430.059822220919
318.15212282483;429.380404314831
318.173747333873;428.65062314545
318.195371842917;427.884653099424
318.21699635196;427.086501283609
318.238620861004;426.258107541436
318.260245370047;425.423253953808
318.281869879091;424.616672223759
318.303494388134;423.857676108369
318.325118897178;423.141377335972
318.346743406221;422.451940134054
318.368367915265;421.795686337764
318.389992424309;421.18925016762
318.411616933352;420.626008579102
318.433241442396;420.08796970106
318.454865951439;419.567703292084
318.476490460483;419.07624352713
318.498114969526;418.624344450342
318.51973947857;418.208081579318
318.541363987613;417.816467164119
318.562988496657;417.446437330377
318.5846130057;417.106667547188
318.606237514744;416.802745591748
318.627862023787;416.52736420859
318.649486532831;416.265511641034
318.671111041874;415.995763022247
318.692735550918;415.706513712503
318.714360059961;415.424931262094
318.735984569005;415.16434027796
318.757609078048;414.916934564695
318.779233587092;414.677927642466
318.800858096135;414.44613255026
318.822482605179;414.220970348879
318.844107114222;414.005098020956
318.865731623266;413.805452341285
318.887356132309;413.627617193637
318.908980641353;413.480506407177
318.930605150396;413.370439721974
318.95222965944;413.292660380854
318.973854168483;413.24205109
318.995478677527;413.213817582519
319.01710318657;413.205508191097
319.038727695614;413.210319320542
319.060352204657;413.21163658212
319.081976713701;413.206982786092
319.103601222744;413.205715524337
319.125225731788;413.205303017234
319.146850240831;413.194943184996
319.168474749875;413.167314425614
319.190099258918;413.124116819584
319.211723767962;413.072680709478
319.233348277005;413.010781763951
319.254972786049;412.928594131505
319.276597295092;412.823631928852
319.298221804136;412.707138248212
319.319846313179;412.589381167788
319.341470822223;412.466877834989
319.363095331266;412.33263209526
319.38471984031;412.189045452422
319.406344349353;412.054277023006
319.427968858397;411.935621986947
319.44959336744;411.830709747277
319.471217876484;411.737762350897
319.492842385527;411.655291840785
319.514466894571;411.585180139671
319.536091403614;411.520594195823
319.557715912658;411.453250956982
319.579340421701;411.376374573258
319.600964930745;411.267448229014
319.622589439788;411.108339690743
319.644213948832;410.884072979521
319.665838457875;410.566498422491
319.687462966919;410.138293979121
319.709087475962;409.599753123999
319.730711985006;408.922986970092
319.752336494049;408.101779828167
319.773961003093;407.171603883051
319.795585512136;406.126179655247
319.81721002118;404.8791560489
319.838834530224;403.493210523189
319.860459039267;402.125358728518
319.882083548311;400.820831044899
319.903708057354;399.563776262957
319.925332566398;398.307808585325
319.946957075441;397.040950649282
319.968581584485;395.846006790482
319.990206093528;394.759258875527
320.011830602572;393.782208695398
320.033455111615;392.919938852988
320.055079620659;392.155032797756
320.076704129702;391.467605716185
320.098328638746;390.856166493303
320.119953147789;390.332795261977
320.141577656833;389.885201707837
320.163202165876;389.489625258603
320.18482667492;389.130472992406
320.206451183963;388.797443274149
320.228075693007;388.474488208916
320.24970020205;388.146247121113
320.271324711094;387.805107736265
320.292949220137;387.438541146831
320.314573729181;387.015948025085
320.336198238224;386.521970171697
320.357822747268;385.974622280545
320.379447256311;385.385123774489
320.401071765355;384.748505393556
320.422696274398;384.058730509683
320.444320783442;383.306682005601
320.465945292485;382.487973994769
320.487569801529;381.603769817003
320.509194310572;380.668220538476
320.530818819616;379.707396033101
320.552443328659;378.763049808944
320.574067837703;377.864499234495
320.595692346746;377.012429488582
320.61731685579;376.196887442809
320.638941364833;375.431742936403
320.660565873877;374.768629924056
320.68219038292;374.234166543294
320.703814891964;373.831348066399
320.725439401007;373.554123533353
320.747063910051;373.387113584267
320.768688419094;373.323267221233
320.790312928138;373.351073035617
320.811937437181;373.448996682848
320.833561946225;373.59728280053
320.855186455268;373.777061250385
320.876810964312;373.964673573249
320.898435473355;374.133235826151
320.920059982399;374.273297642345
320.941684491442;374.377118813759
320.963309000486;374.436583185945
320.984933509529;374.449459159777
321.006558018573;374.41756921763
321.028182527616;374.334626991386
321.04980703666;374.190393338863
321.071431545703;373.995256819065
321.093056054747;373.764685617092
321.114680563791;373.50163663501
321.136305072834;373.215791684469
321.157929581878;372.915183298606
321.179554090921;372.599645454857
321.201178599965;372.265132296155
321.222803109008;371.912623477342
321.244427618052;371.546479970298
321.266052127095;371.168095531836
321.287676636139;370.779729746716
321.309301145182;370.386449924697
321.330925654226;369.988300659886
321.352550163269;369.569134664898
321.374174672313;369.124207247945
321.395799181356;368.65710619038
321.4174236904;368.170841755446
321.439048199443;367.668643640545
321.460672708487;367.143292891183
321.48229721753;366.579487630929
321.503921726574;365.983851447135
321.525546235617;365.378859451146
321.547170744661;364.776767419306
321.568795253704;364.197665222444
321.590419762748;363.676576294008
321.612044271791;363.206837669336
321.633668780835;362.759970565128
321.655293289878;362.311613079886
321.676917798922;361.888919165736
321.698542307965;361.495909213305
321.720166817009;361.107047391886
321.741791326052;360.701882966715
321.763415835096;360.300733684078
321.785040344139;359.921463641853
321.806664853183;359.542082570239
321.828289362226;359.140215875056
321.84991387127;358.712907111833
321.871538380313;358.268438336979
321.893162889357;357.813164232452
321.9147873984;357.334203319698
321.936411907444;356.828064245567
321.958036416487;356.323967101999
321.979660925531;355.832255235706
322.001285434574;355.348913205981
322.022909943618;354.876686900871
322.044534452661;354.424397203181
322.066158961705;353.987135138483
322.087783470748;353.547822537099
322.109407979792;353.09298181647
322.131032488835;352.626672621671
322.152656997879;352.152986408632
322.174281506922;351.684716777835
322.195906015966;351.23420509183
322.217530525009;350.78979100536
322.239155034053;350.339755938124
322.260779543096;349.902585387042
322.28240405214;349.501886963302
322.304028561183;349.122020739151
322.325653070227;348.741334970946
322.34727757927;348.346878427078
322.368902088314;347.939125220807
322.390526597357;347.518964053638
322.412151106401;347.081271239758
322.433775615444;346.626669944101
322.455400124488;346.151118309047
322.477024633531;345.655617647906
322.498649142575;345.140907393993
322.520273651618;344.613785226762
322.541898160662;344.093143165271
322.563522669705;343.585864234192
322.585147178749;343.100672518318
322.606771687793;342.663289942037
322.628396196836;342.298091983348
322.65002070588;342.008573602516
322.671645214923;341.774823477418
322.693269723967;341.578727571913
322.71489423301;341.412009570647
322.736518742054;341.281403458311
322.758143251097;341.177060157665
322.779767760141;341.076345471049
322.801392269184;340.972194707376
322.823016778228;340.85670573809
322.844641287271;340.712872996778
322.866265796315;340.529664853754
322.887890305358;340.303578613307
322.909514814402;340.038504954872
322.931139323445;339.743891254881
322.952763832489;339.424065831942
322.974388341532;339.078715317823
322.996012850576;338.709108564432
323.017637359619;338.314380567107
323.039261868663;337.892278711295
323.060886377706;337.45191127998
323.08251088675;336.988077890697
323.104135395793;336.487073660762
323.125759904837;335.933198485971
323.14738441388;335.33440917312
323.169008922924;334.688908198789
323.190633431967;333.984460485806
323.212257941011;333.240947390382
323.233882450054;332.443295569863
323.255506959098;331.537769461454
323.277131468141;330.492856544103
323.298755977185;329.339631852812
323.320380486228;328.097653921196
323.342004995272;326.757559514537
323.363629504315;325.372274804707
323.385254013359;323.970453557427
323.406878522402;322.546771106581
323.428503031446;321.131520177544
323.450127540489;319.764486599731
323.471752049533;318.460280287875
323.493376558576;317.227767648526
323.51500106762;316.072047996727
323.536625576663;315.01111455019
323.558250085707;314.054016509858
323.57987459475;313.173415448935
323.601499103794;312.326810528103
323.623123612837;311.475452605406
323.644748121881;310.648253917685
323.666372630924;309.915962450245
323.687997139968;309.220548854457
323.709621649011;308.505111843531
323.731246158055;307.749347429225
323.752870667098;306.966881629381
323.774495176142;306.143637622831
323.796119685185;305.254406885968
323.817744194229;304.310366823992
323.839368703272;303.321340759834
323.860993212316;302.274661928001
323.882617721359;301.167971353032
323.904242230403;300.005416398252
323.925866739447;298.791628811864
323.94749124849;297.521379358636
323.969115757534;296.177653249893
323.990740266577;294.736928180766
324.012364775621;293.218394486952
324.033989284664;291.705744403887
324.055613793708;290.2416741058
324.077238302751;288.818694970947
324.098862811795;287.443084899539
324.120487320838;286.105206635114
324.142111829882;284.817143343437
324.163736338925;283.625784786927
324.185360847969;282.569705584869
324.206985357012;281.647773994089
324.228609866056;280.854587384835
324.250234375099;280.178737890646
324.271858884143;279.597195879656
324.293483393186;279.076923525717
324.31510790223;278.62387939193
324.336732411273;278.239570488421
324.358356920317;277.89702708251
324.37998142936;277.565984509703
324.401605938404;277.237956215283
324.423230447447;276.91801885328
324.444854956491;276.600033829422
324.466479465534;276.248886174919
324.488103974578;275.84231993779
324.509728483621;275.422568716772
324.531352992665;275.011539202355
324.552977501708;274.590375289688
324.574602010752;274.138925280391
324.596226519795;273.662150968132
324.617851028839;273.167319407675
324.639475537882;272.650241933692
324.661100046926;272.083411388796
324.682724555969;271.461255973838
324.704349065013;270.767318795995
324.725973574056;269.980285397303
324.7475980831;269.119497318385
324.769222592143;268.207238935613
