Name;ESR_BC_1_840s_Y_gon_20dg_result

Recipe
Accumulations;5;Number of accumulations
RetryCount;0;Number of retries on error
AbortOnError;True;Abort on error
EnableQFactorMeasurement;False;Enable/Disable q-Factor measurement
Bfrom;313;B from
Bto;363;B to
SweepTime;60;Sweep time
Modulation;0.2;Modulation
ModulationFreq;100;Modulation
BHoldEnabled;False;B hold enabled
BHold;0;B hold
MicrowavePower;2;Microwave power
MarkerEnabled;False;
MarkerStartField;0;
MarkerEndField;0;
Mode;;
KineticGFact;0;
KineticTotalTransientTime;0;
KineticTimeResolution;0;
TempFrom;5;
TempUseSlope;False;
TempTo;5;
TempdT;1;
TempSetupTime;0;
GonFrom;0;
GonTo;180;
GonSteps;20;
XRayEnabled;False;
XRayTime;3;
XRayVoltage;40;
XRayCurrent;0.5;
UVEnabled;False;
UVIntensity;0;
UVTime;0;
UVLeadTime;0;
UVWavelength;0;
PowSweepFrom;1;
PowSweepTo;5;
PowSweepSteps;5;
AmpModSweepFrom;0;
AmpModSweepTo;1;
AmpModSweepSteps;10;
ExtTriggerEnabled;False;
ExtTrigLeadTime;0;
ExtTrigOnTime;5;

Meas
BField [mT];MW_Absorption []
313.019549179077;146.733969647504
313.041172960356;146.386995844985
313.062796741634;145.818529393043
313.084420522913;145.219596019424
313.106044304191;144.581482224324
313.12766808547;143.899972155089
313.149291866748;143.176889031664
313.170915648027;142.428025054777
313.192539429305;141.676695815406
313.214163210584;140.94549908475
313.235786991862;140.245375150778
313.257410773141;139.55988145818
313.27903455442;138.880854180639
313.300658335698;138.206874456615
313.322282116977;137.549867654665
313.343905898255;136.942454946524
313.365529679534;136.407005610877
313.387153460812;135.942908603707
313.408777242091;135.546336292733
313.430401023369;135.223372944384
313.452024804648;134.979138785299
313.473648585926;134.809533784091
313.495272367205;134.700712603402
313.516896148483;134.63351171811
313.538519929762;134.600339052108
313.560143711041;134.589342936288
313.581767492319;134.575656025374
313.603391273598;134.541411988303
313.625015054876;134.475322520913
313.646638836155;134.368684752038
313.668262617433;134.21797398513
313.689886398712;134.021812915785
313.71151017999;133.793950733476
313.733133961269;133.549872893622
313.754757742547;133.295424286791
313.776381523826;133.025299513096
313.798005305104;132.740268185982
313.819629086383;132.475934264876
313.841252867661;132.248707127065
313.86287664894;132.057056997918
313.884500430219;131.889172477119
313.906124211497;131.736622354217
313.927747992776;131.614130668647
313.949371774054;131.536031627506
313.970995555333;131.494169803701
313.992619336611;131.46434306963
314.01424311789;131.439461956246
314.035866899168;131.422047765887
314.057490680447;131.41187979213
314.079114461725;131.402238229945
314.100738243004;131.385915409929
314.122362024282;131.357719084484
314.143985805561;131.324621919569
314.165609586839;131.293691879925
314.187233368118;131.255323430271
314.208857149397;131.202337977865
314.230480930675;131.136714672354
314.252104711954;131.074103997462
314.273728493232;131.01526638617
314.295352274511;130.944572875543
314.316976055789;130.853089633819
314.338599837068;130.742285402445
314.360223618346;130.610708749368
314.381847399625;130.470212205733
314.403471180903;130.338985803727
314.425094962182;130.21965581595
314.44671874346;130.103795438364
314.468342524739;129.989968542148
314.489966306018;129.878983352103
314.511590087296;129.764835893232
314.533213868575;129.633359524917
314.554837649853;129.468906823817
314.576461431132;129.272561594352
314.59808521241;129.051007770113
314.619708993689;128.806349422271
314.641332774967;128.547747614365
314.662956556246;128.284141276201
314.684580337524;128.017433102691
314.706204118803;127.752852127841
314.727827900081;127.507410282814
314.74945168136;127.296487244145
314.771075462639;127.117116795856
314.792699243917;126.968429098239
314.814323025196;126.841739071343
314.835946806474;126.732953551824
314.857570587753;126.639057682693
314.879194369031;126.550277625302
314.90081815031;126.46033548028
314.922441931588;126.369224367085
314.944065712867;126.282982603403
314.965689494145;126.20120486978
314.987313275424;126.120780252342
315.008937056702;126.040581794685
315.030560837981;125.960906126769
315.052184619259;125.888401913811
315.073808400538;125.842137701069
315.095432181817;125.833110533826
315.117055963095;125.838418806005
315.138679744374;125.833311353397
315.160303525652;125.816549292814
315.181927306931;125.800452867481
315.203551088209;125.780736407665
315.225174869488;125.737375088601
315.246798650766;125.654704699333
315.268422432045;125.526416371459
315.290046213323;125.352069127855
315.311669994602;125.131058028563
315.33329377588;124.85975142579
315.354917557159;124.538035909244
315.376541338438;124.168400549917
315.398165119716;123.749358085741
315.419788900995;123.283370819022
315.441412682273;122.801205451441
315.463036463552;122.337088699798
315.48466024483;121.895368018942
315.506284026109;121.482972559997
315.527907807387;121.109199933153
315.549531588666;120.763749459314
315.571155369944;120.437917260553
315.592779151223;120.133093263558
315.614402932501;119.880357632827
315.63602671378;119.683475253006
315.657650495058;119.529285733521
315.679274276337;119.403366073095
315.700898057616;119.29534043154
315.722521838894;119.198117824676
315.744145620173;119.10309907553
315.765769401451;119.003102012189
315.78739318273;118.899438091149
315.809016964008;118.781075987846
315.830640745287;118.640900584045
315.852264526565;118.475133933277
315.873888307844;118.291462758705
315.895512089122;118.105972952881
315.917135870401;117.92573046838
315.938759651679;117.747402425191
315.960383432958;117.567128500946
315.982007214237;117.39038334926
316.003630995515;117.231281523646
316.025254776794;117.080051300827
316.046878558072;116.930636671071
316.068502339351;116.778932919213
316.090126120629;116.618614219482
316.111749901908;116.438108081816
316.133373683186;116.242919572609
316.154997464465;116.039906965528
316.176621245743;115.830940061948
316.198245027022;115.62282305428
316.2198688083;115.422055581844
316.241492589579;115.23042958105
316.263116370858;115.049810302903
316.284740152136;114.88554489368
316.306363933415;114.746214775141
316.327987714693;114.639365663593
316.349611495972;114.564785591594
316.37123527725;114.520670874566
316.392859058529;114.507682630289
316.414482839807;114.526104768797
316.436106621086;114.570520599364
316.457730402364;114.629557537415
316.479354183643;114.693302395424
316.500977964921;114.752117341726
316.5226017462;114.796102862421
316.544225527478;114.818099702799
316.565849308757;114.809490919284
316.587473090036;114.762585180704
316.609096871314;114.679652829453
316.630720652593;114.565378224815
316.652344433871;114.421736975023
316.67396821515;114.252718658222
316.695591996428;114.062757254014
316.717215777707;113.864239452309
316.738839558985;113.666267510768
316.760463340264;113.466881168914
316.782087121542;113.259295068719
316.803710902821;113.043597210263
316.825334684099;112.817097599337
316.846958465378;112.581649693966
316.868582246657;112.366567555072
316.890206027935;112.18323281836
316.911829809214;112.024066110076
316.933453590492;111.878380204052
316.955077371771;111.735864398743
316.976701153049;111.592193711185
316.998324934328;111.458321935644
317.019948715606;111.333906516572
317.041572496885;111.2078550104
317.063196278163;111.074223459847
317.084820059442;110.94574242082
317.10644384072;110.83382886344
317.128067621999;110.720626760744
317.149691403277;110.594228846474
317.171315184556;110.458085731566
317.192938965835;110.312451268669
317.214562747113;110.153692998434
317.236186528392;109.980672943055
317.25781030967;109.795716147787
317.279434090949;109.605657845125
317.301057872227;109.423719415929
317.322681653506;109.255755449142
317.344305434784;109.103378807318
317.365929216063;108.971344398625
317.387552997341;108.864651296103
317.40917677862;108.784234847888
317.430800559898;108.723415989767
317.452424341177;108.677524339684
317.474048122455;108.654901207623
317.495671903734;108.662178031419
317.517295685013;108.695601740068
317.538919466291;108.737443034353
317.56054324757;108.766328558953
317.582167028848;108.779717307016
317.603790810127;108.783176216236
317.625414591405;108.777986431102
317.647038372684;108.760407104393
317.668662153962;108.726653946866
317.690285935241;108.672525728433
317.711909716519;108.595201629611
317.733533497798;108.493459943188
317.755157279076;108.362579815883
317.776781060355;108.197054933018
317.798404841634;108.001032655103
317.820028622912;107.789500257266
317.841652404191;107.569809940099
317.863276185469;107.332830892639
317.884899966748;107.08202387899
317.906523748026;106.830249915766
317.928147529305;106.580744383729
317.949771310583;106.347455285877
317.971395091862;106.146776197156
317.99301887314;106.006000727743
318.014642654419;105.935506540357
318.036266435697;105.926076617863
318.057890216976;105.97530352017
318.079513998255;106.079633366507
318.101137779533;106.223297419689
318.122761560812;106.397492254065
318.14438534209;106.600822159684
318.166009123369;106.830382068893
318.187632904647;107.070851750401
318.209256685926;107.305490077746
318.230880467204;107.522674810518
318.252504248483;107.713713125848
318.274128029761;107.870204834864
318.29575181104;107.985894804514
318.317375592318;108.063212704371
318.338999373597;108.106397537426
318.360623154876;108.117925883106
318.382246936154;108.104250149498
318.403870717433;108.078181425103
318.425494498711;108.056572225744
318.44711827999;108.044308442092
318.468742061268;108.039304568387
318.490365842547;108.042684223364
318.511989623825;108.056654050852
318.533613405104;108.089335295326
318.555237186382;108.138623792686
318.576860967661;108.192880136402
318.598484748939;108.244320461427
318.620108530218;108.285680096712
318.641732311496;108.305415944711
318.663356092775;108.300420044086
318.684979874054;108.277887009377
318.706603655332;108.243152143008
318.728227436611;108.195361597586
318.749851217889;108.130525081372
318.771474999168;108.048801948328
318.793098780446;107.958285910276
318.814722561725;107.870418107551
318.836346343003;107.790366362091
318.857970124282;107.718294688489
318.87959390556;107.658236609947
318.901217686839;107.609716851142
318.922841468117;107.563777413344
318.944465249396;107.509744526844
318.966089030674;107.440495108047
318.987712811953;107.360497302141
319.009336593232;107.272110286215
319.03096037451;107.170077612777
319.052584155789;107.0515364964
319.074207937067;106.910805728717
319.095831718346;106.744854929732
319.117455499624;106.552930848453
319.139079280903;106.331770057384
319.160703062181;106.076132885218
319.18232684346;105.780792872406
319.203950624738;105.445190392972
319.225574406017;105.086162436805
319.247198187295;104.724821365386
319.268821968574;104.365805481061
319.290445749852;104.008157744418
319.312069531131;103.653311022205
319.33369331241;103.312744601118
319.355317093688;102.986112520503
319.376940874967;102.672291926737
319.398564656245;102.379980714685
319.420188437524;102.123194036101
319.441812218802;101.906095113035
319.463436000081;101.71580565868
319.485059781359;101.53976405615
319.506683562638;101.382180920328
319.528307343916;101.253028426617
319.549931125195;101.149800871452
319.571554906473;101.059063748947
319.593178687752;100.979543840504
319.614802469031;100.920789577082
319.636426250309;100.885945926726
319.658050031588;100.876428758038
319.679673812866;100.891198963604
319.701297594145;100.928081880301
319.722921375423;100.987207432105
319.744545156702;101.070134368624
319.76616893798;101.178942053551
319.787792719259;101.313909452221
319.809416500537;101.465891920321
319.831040281816;101.62305054326
319.852664063094;101.784179907215
319.874287844373;101.951520724434
319.895911625652;102.119388669824
319.91753540693;102.272480333535
319.939159188209;102.396445583501
319.960782969487;102.481560825934
319.982406750766;102.51797617477
320.004030532044;102.500694346297
320.025654313323;102.43067121866
320.047278094601;102.309024002377
320.06890187588;102.136775896588
320.090525657158;101.92272546462
320.112149438437;101.678999718633
320.133773219715;101.415578276599
320.155397000994;101.138875859307
320.177020782273;100.856638589469
320.198644563551;100.578017370033
320.22026834483;100.306125527402
320.241892126108;100.037294486768
320.263515907387;99.7627037998238
320.285139688665;99.4744108955432
320.306763469944;99.1750362416307
320.328387251222;98.8685929218204
320.350011032501;98.5471069153675
320.371634813779;98.2010315109084
320.393258595058;97.8240082011541
320.414882376336;97.4141241876669
320.436506157615;96.9780497917302
320.458129938893;96.5308747716328
320.479753720172;96.084563404647
320.501377501451;95.6367440556308
320.523001282729;95.1924497836598
320.544625064008;94.7844499462656
320.566248845286;94.4346888317957
320.587872626565;94.1363881765711
320.609496407843;93.8789280810513
320.631120189122;93.6736815064297
320.6527439704;93.5386839471971
320.674367751679;93.4695817236622
320.695991532957;93.4560401643571
320.717615314236;93.4910820737679
320.739239095514;93.5689992638673
320.760862876793;93.6812232610129
320.782486658071;93.8202670511027
320.80411043935;93.9813693280424
320.825734220629;94.1671976084996
320.847358001907;94.3806417572234
320.868981783186;94.623208041467
320.890605564464;94.8908428005467
320.912229345743;95.1727910761522
320.933853127021;95.4774861398836
320.9554769083;95.8039972973118
320.977100689578;96.1388110953534
320.998724470857;96.4832684668636
321.020348252135;96.840708638372
321.041972033414;97.2040574009867
321.063595814692;97.5606236425095
321.085219595971;97.9014260919678
321.10684337725;98.2123676863328
321.128467158528;98.4823752785809
321.150090939807;98.7261932796029
321.171714721085;98.9581111309075
321.193338502364;99.1691570939263
321.214962283642;99.3574215823943
321.236586064921;99.5327576859323
321.258209846199;99.7025054879902
321.279833627478;99.8740449660774
321.301457408756;100.050307266761
321.323081190035;100.217872028066
321.344704971313;100.358778434825
321.366328752592;100.471816751001
321.387952533871;100.554746578598
321.409576315149;100.598177550659
321.431200096428;100.590822868533
321.452823877706;100.518297151435
321.474447658985;100.368071714839
321.496071440263;100.132868628806
321.517695221542;99.7984722284803
321.53931900282;99.367754217453
321.560942784099;98.8734859078512
321.582566565377;98.3313301056646
321.604190346656;97.7422800405098
321.625814127934;97.1197249226432
321.647437909213;96.5166363677918
321.669061690491;95.9656257189072
321.69068547177;95.4506160006913
321.712309253049;94.9517248786275
321.733933034327;94.4883090194637
321.755556815606;94.0942446810918
321.777180596884;93.7748974419916
321.798804378163;93.5226970631589
321.820428159441;93.3365048030673
321.84205194072;93.2084683983166
321.863675721998;93.123361929847
321.885299503277;93.0669909803615
321.906923284555;93.0303679539604
321.928547065834;93.006579451357
321.950170847112;92.9830688545039
321.971794628391;92.9439533339289
321.99341840967;92.8785900922477
322.015042190948;92.7847080232499
322.036665972227;92.6600398059684
322.058289753505;92.5036853203704
322.079913534784;92.3153631374228
322.101537316062;92.098698401517
322.123161097341;91.8527343205396
322.144784878619;91.5781818671165
322.166408659898;91.2751182308111
322.188032441176;90.9483866439446
322.209656222455;90.6024741267776
322.231280003733;90.2512248549288
322.252903785012;89.8867608516869
322.27452756629;89.5042111906989
322.296151347569;89.1291260807207
322.317775128848;88.7789913197524
322.339398910126;88.4536374202648
322.361022691405;88.1492159559461
322.382646472683;87.866615100688
322.404270253962;87.6125242350002
322.42589403524;87.3887745839213
322.447517816519;87.195837956477
322.469141597797;87.049310775113
322.490765379076;86.9515846416277
322.512389160354;86.8927191369926
322.534012941633;86.8590194264591
322.555636722911;86.852025831809
322.57726050419;86.8849022997121
322.598884285469;86.944934560216
322.620508066747;87.0050646359264
322.642131848026;87.0715665716388
322.663755629304;87.129576995881
322.685379410583;87.1490505992815
322.707003191861;87.1292065520129
322.72862697314;87.0851783970505
322.750250754418;87.0219491127688
322.771874535697;86.9362852597207
322.793498316975;86.8256002451399
322.815122098254;86.6945937162672
322.836745879532;86.5460916864702
322.858369660811;86.3815065550506
322.879993442089;86.2008934650211
322.901617223368;86.0153919840938
322.923241004647;85.8412438238322
322.944864785925;85.6766508788456
322.966488567204;85.5183748028729
322.988112348482;85.3724735341503
323.009736129761;85.2337119318028
323.031359911039;85.0927716034101
323.052983692318;84.9509947055224
323.074607473596;84.8082800082054
323.096231254875;84.6547007736574
323.117855036153;84.4861447930461
323.139478817432;84.3083711258487
323.16110259871;84.1235322342777
323.182726379989;83.9332328435448
323.204350161268;83.7367555028729
323.225973942546;83.5306794757467
323.247597723825;83.3112832753184
323.269221505103;83.0837152827914
323.290845286382;82.8526911454523
323.31246906766;82.6131435206141
323.334092848939;82.3594096643554
323.355716630217;82.0879306676715
323.377340411496;81.8007578454806
323.398964192774;81.4982793971938
323.420587974053;81.1845225517401
323.442211755331;80.8567454264676
323.46383553661;80.5051244777336
323.485459317889;80.1419438558696
323.507083099167;79.793472063687
323.528706880446;79.4665131732867
323.550330661724;79.1610295193273
323.571954443003;78.8814190455527
323.593578224281;78.6285858314793
323.61520200556;78.4047402285428
323.636825786838;78.2165163265952
323.658449568117;78.0642418814762
323.680073349395;77.9391531665751
323.701697130674;77.8327281202518
323.723320911952;77.7392660963479
323.744944693231;77.652916992071
323.766568474509;77.5694674469552
323.788192255788;77.4838863351066
323.809816037067;77.3864838701396
323.831439818345;77.2655622139751
323.853063599624;77.1172764808284
323.874687380902;76.9447262606914
323.896311162181;76.7537941522787
323.917934943459;76.5511484428129
323.939558724738;76.3392314817683
323.961182506016;76.1136657313679
323.982806287295;75.87214715361
324.004430068573;75.6205629472963
324.026053849852;75.3655638614063
324.04767763113;75.1213272373502
324.069301412409;74.8868219559885
324.090925193688;74.6490532571516
324.112548974966;74.4248266411585
324.134172756245;74.2400101891533
324.155796537523;74.0963552645415
324.177420318802;73.9845289484236
324.19904410008;73.903164689211
324.220667881359;73.8516241247576
324.242291662637;73.8213236226296
324.263915443916;73.8030965561337
324.285539225194;73.7886383973207
324.307163006473;73.7750830723187
324.328786787751;73.7638205606508
324.35041056903;73.7494542300499
324.372034350308;73.7252746424039
324.393658131587;73.6975983867944
324.415281912866;73.6765146586093
324.436905694144;73.6653990576818
324.458529475423;73.6658134632309
324.480153256701;73.6819541350762
324.50177703798;73.7195456476636
324.523400819258;73.7779446401441
324.545024600537;73.8517960771092
324.566648381815;73.9360284862985
324.588272163094;74.0179505384444
324.609895944372;74.0862872496216
324.631519725651;74.134006302081
324.653143506929;74.1544026183978
324.674767288208;74.1370943738327
324.696391069486;74.0731173732465
324.718014850765;73.9655095008816
324.739638632044;73.819931169918
324.761262413322;73.6433559186614
