Name;ESR_BC_1_14400s_Y_gon_0dg_result

Recipe
Accumulations;5;Number of accumulations
RetryCount;0;Number of retries on error
AbortOnError;True;Abort on error
EnableQFactorMeasurement;False;Enable/Disable q-Factor measurement
Bfrom;313;B from
Bto;363;B to
SweepTime;60;Sweep time
Modulation;0.2;Modulation
ModulationFreq;100;Modulation
BHoldEnabled;False;B hold enabled
BHold;0;B hold
MicrowavePower;2;Microwave power
MarkerEnabled;False;
MarkerStartField;0;
MarkerEndField;0;
Mode;;
KineticGFact;0;
KineticTotalTransientTime;0;
KineticTimeResolution;0;
TempFrom;5;
TempUseSlope;False;
TempTo;5;
TempdT;1;
TempSetupTime;0;
GonFrom;0;
GonTo;180;
GonSteps;20;
XRayEnabled;False;
XRayTime;3;
XRayVoltage;40;
XRayCurrent;0.5;
UVEnabled;False;
UVIntensity;0;
UVTime;0;
UVLeadTime;0;
UVWavelength;0;
PowSweepFrom;1;
PowSweepTo;5;
PowSweepSteps;5;
AmpModSweepFrom;0;
AmpModSweepTo;1;
AmpModSweepSteps;10;
ExtTriggerEnabled;False;
ExtTrigLeadTime;0;
ExtTrigOnTime;5;

Meas
BField [mT];MW_Absorption []
313.033750534058;148.300049705315
313.055368407047;147.686944323964
313.076986280037;147.044748938871
313.098604153026;146.328398244176
313.120222026016;145.508625142249
313.141839899005;144.620504083978
313.163457771995;143.691789233333
313.185075644984;142.726631422449
313.206693517974;141.737030887205
313.228311390963;140.711928125502
313.249929263953;139.662734481322
313.271547136943;138.65611275805
313.293165009932;137.721798847522
313.314782882922;136.847377238942
313.336400755911;136.028000634486
313.358018628901;135.304183941495
313.37963650189;134.710032491529
313.40125437488;134.253784905951
313.422872247869;133.938481720545
313.444490120859;133.749813182597
313.466107993848;133.662745823547
313.487725866838;133.672567585872
313.509343739828;133.7764816397
313.530961612817;133.962597229756
313.552579485807;134.195020196242
313.574197358796;134.443479118368
313.595815231786;134.694514244279
313.617433104775;134.939599765078
313.639050977765;135.164101642998
313.660668850754;135.348322172941
313.682286723744;135.480682508175
313.703904596733;135.561559580643
313.725522469723;135.591161063115
313.747140342712;135.573131019839
313.768758215702;135.526960877872
313.790376088691;135.483440767322
313.811993961681;135.459086995124
313.833611834671;135.457691002928
313.85522970766;135.482112708714
313.87684758065;135.538600712786
313.898465453639;135.62693004927
313.920083326629;135.726561139851
313.941701199618;135.821760643345
313.963319072608;135.905224595023
313.984936945597;135.964967931992
314.006554818587;135.997581386533
314.028172691576;136.004204071983
314.049790564566;135.987786023631
314.071408437555;135.940512274059
314.093026310545;135.856509691019
314.114644183535;135.750570323578
314.136262056524;135.628720396253
314.157879929514;135.492736379318
314.179497802503;135.365236234621
314.201115675493;135.269302682627
314.222733548482;135.204329587617
314.244351421472;135.161945909987
314.265969294461;135.134266866629
314.287587167451;135.120300547123
314.30920504044;135.123950854185
314.33082291343;135.137006775471
314.352440786419;135.145318244632
314.374058659409;135.144508291787
314.395676532399;135.13308268026
314.417294405388;135.104924789245
314.438912278378;135.047817645387
314.460530151367;134.966017851939
314.482148024357;134.878243077664
314.503765897346;134.796557729417
314.525383770336;134.719121599573
314.547001643325;134.646773663642
314.568619516315;134.586272356631
314.590237389304;134.546366978332
314.611855262294;134.536438076148
314.633473135284;134.558624361933
314.655091008273;134.606529094656
314.676708881263;134.67731569205
314.698326754252;134.764552141428
314.719944627242;134.845950898178
314.741562500231;134.912623602792
314.763180373221;134.971350549873
314.78479824621;135.009654565505
314.8064161192;134.995098068532
314.828033992189;134.914819675911
314.849651865179;134.768375377828
314.871269738168;134.557006377964
314.892887611158;134.290688948981
314.914505484148;133.983301121512
314.936123357137;133.634916619827
314.957741230127;133.244087000769
314.979359103116;132.816566885196
315.000976976106;132.3911060762
315.022594849095;131.9968969811
315.044212722085;131.632234958454
315.065830595074;131.301572266283
315.087448468064;131.022410141448
315.109066341053;130.798427741656
315.130684214043;130.622437586752
315.152302087032;130.490863930453
315.173919960022;130.397163952154
315.195537833011;130.335136929639
315.217155706001;130.296408797748
315.238773578991;130.267816812406
315.26039145198;130.237285264661
315.28200932497;130.198456094193
315.303627197959;130.147333288713
315.325245070949;130.086334169334
315.346862943938;130.018546644445
315.368480816928;129.949925837348
315.390098689917;129.887481275516
315.411716562907;129.836777026292
315.433334435896;129.801100203927
315.454952308886;129.781520025435
315.476570181876;129.776954407518
315.498188054865;129.797659574715
315.519805927855;129.858709429085
315.541423800844;129.962593014749
315.563041673834;130.094670386983
315.584659546823;130.237095269412
315.606277419813;130.390077165483
315.627895292802;130.563843766265
315.649513165792;130.746049931072
315.671131038781;130.910321508875
315.692748911771;131.058666334046
315.71436678476;131.193770566734
315.73598465775;131.306902473599
315.75760253074;131.399094397706
315.779220403729;131.487203750379
315.800838276719;131.572631838336
315.822456149708;131.650732811653
315.844074022698;131.72387913569
315.865691895687;131.801768966434
315.887309768677;131.883750666128
315.908927641666;131.962367603666
315.930545514656;132.037301964274
315.952163387645;132.111238840561
315.973781260635;132.184728655436
315.995399133624;132.24872545667
316.017017006614;132.294554752756
316.038634879604;132.3316442466
316.060252752593;132.355895451218
316.081870625583;132.36255062051
316.103488498572;132.354610090309
316.125106371562;132.339759095223
316.146724244551;132.324975676659
316.168342117541;132.315309181378
316.18995999053;132.314908367011
316.21157786352;132.344912563001
316.233195736509;132.410340234614
316.254813609499;132.50783272433
316.276431482488;132.630769030776
316.298049355478;132.77575765836
316.319667228468;132.942336901126
316.341285101457;133.135979048092
316.362902974447;133.353907413258
316.384520847436;133.576166835215
316.406138720426;133.784963058602
316.427756593415;133.97921144098
316.449374466405;134.15552338591
316.470992339394;134.306310166768
316.492610212384;134.425628419908
316.514228085373;134.502692086306
316.535845958363;134.532890644197
316.557463831352;134.517720200365
316.579081704342;134.464067441177
316.600699577332;134.378845353039
316.622317450321;134.26231801024
316.643935323311;134.111364606001
316.6655531963;133.937585072724
316.68717106929;133.753272959877
316.708788942279;133.559090517932
316.730406815269;133.350550504321
316.752024688258;133.124178742792
316.773642561248;132.890237290046
316.795260434237;132.670438052917
316.816878307227;132.468857943298
316.838496180216;132.286602141337
316.860114053206;132.128488885742
316.881731926196;131.98869579559
316.903349799185;131.855170456839
316.924967672175;131.717472444774
316.946585545164;131.568932083914
316.968203418154;131.405213911937
316.989821291143;131.228970450815
317.011439164133;131.037642318623
317.033057037122;130.835400539838
317.054674910112;130.636236837799
317.076292783101;130.435224354535
317.097910656091;130.230717346676
317.11952852908;130.02479033434
317.14114640207;129.82783500383
317.16276427506;129.650662194564
317.184382148049;129.496070831619
317.206000021039;129.366759893117
317.227617894028;129.258933987621
317.249235767018;129.164513367131
317.270853640007;129.08697910599
317.292471512997;129.030123219348
317.314089385986;128.990529524479
317.335707258976;128.964752036436
317.357325131965;128.949142854363
317.378943004955;128.952319463918
317.400560877944;128.982264574218
317.422178750934;129.037994860735
317.443796623924;129.116435986832
317.465414496913;129.220489712523
317.487032369903;129.346236717454
317.508650242892;129.483467420076
317.530268115882;129.626341854352
317.551885988871;129.773133633483
317.573503861861;129.915660121628
317.59512173485;130.04273115383
317.61673960784;130.145678537281
317.638357480829;130.221951140553
317.659975353819;130.280343335522
317.681593226809;130.331666464085
317.703211099798;130.366993723364
317.724828972788;130.360363621165
317.746446845777;130.319227762398
317.768064718767;130.259413160321
317.789682591756;130.17038295429
317.811300464746;130.027824845158
317.832918337735;129.854344200907
317.854536210725;129.671987965644
317.876154083714;129.478733038376
317.897771956704;129.271966731263
317.919389829693;129.058134637697
317.941007702683;128.840738736513
317.962625575673;128.616247951465
317.984243448662;128.386250876444
318.005861321652;128.166392267932
318.027479194641;127.966011383735
318.049097067631;127.794045001767
318.07071494062;127.650153004121
318.09233281361;127.527355472577
318.113950686599;127.4179102651
318.135568559589;127.323574478361
318.157186432578;127.254008277307
318.178804305568;127.206676280482
318.200422178557;127.184217652606
318.222040051547;127.185928773064
318.243657924536;127.20598272453
318.265275797526;127.232974338788
318.286893670516;127.260818497487
318.308511543505;127.302214390736
318.330129416495;127.370578356333
318.351747289484;127.459501771213
318.373365162474;127.555324686539
318.394983035463;127.653153721802
318.416600908453;127.750565555188
318.438218781442;127.844593061914
318.459836654432;127.927925687177
318.481454527421;128.000420638083
318.503072400411;128.068980844282
318.5246902734;128.133096858824
318.54630814639;128.185642640687
318.56792601938;128.216505679403
318.589543892369;128.224166113856
318.611161765359;128.221127159528
318.632779638348;128.213969067789
318.654397511338;128.197687266108
318.676015384327;128.166080511424
318.697633257317;128.12110517254
318.719251130306;128.065286956483
318.740869003296;127.991777477091
318.762486876285;127.891205854675
318.784104749275;127.760270334451
318.805722622265;127.604464096868
318.827340495254;127.429670954006
318.848958368244;127.240682739491
318.870576241233;127.038166145618
318.892194114223;126.820999421431
318.913811987212;126.596086173656
318.935429860202;126.366406751164
318.957047733191;126.13650257747
318.978665606181;125.916377001409
319.00028347917;125.705076268971
319.02190135216;125.492280261865
319.043519225149;125.264788113335
319.065137098139;125.024259320605
319.086754971129;124.777402738164
319.108372844118;124.519063383828
319.129990717108;124.245150267346
319.151608590097;123.952773853345
319.173226463087;123.631957582663
319.194844336076;123.283545818947
319.216462209066;122.925307351688
319.238080082055;122.563148040225
319.259697955045;122.209101138031
319.281315828034;121.869540806067
319.302933701024;121.550444593146
319.324551574013;121.249948396873
319.346169447003;120.962849207789
319.367787319993;120.690777956671
319.389405192982;120.441653224192
319.411023065972;120.220068070337
319.432640938961;120.023180244092
319.454258811951;119.848684049626
319.47587668494;119.688646796012
319.49749455793;119.525836634497
319.519112430919;119.342619348755
319.540730303909;119.129315129265
319.562348176898;118.892023155963
319.583966049888;118.633511142918
319.605583922877;118.348995086562
319.627201795867;118.037331361837
319.648819668857;117.701816727733
319.670437541846;117.354936214534
319.692055414836;117.005930381007
319.713673287825;116.66550599107
319.735291160815;116.340177193521
319.756909033804;116.03255044313
319.778526906794;115.74225945193
319.800144779783;115.468963048967
319.821762652773;115.218623154521
319.843380525762;114.990099531471
319.864998398752;114.775486612571
319.886616271741;114.565534041717
319.908234144731;114.350430374716
319.929852017721;114.116563900026
319.95146989071;113.858886708117
319.9730877637;113.590500642882
319.994705636689;113.308004333189
320.016323509679;113.006446114881
320.037941382668;112.684550280102
320.059559255658;112.344608508578
320.081177128647;112.005027610974
320.102795001637;111.694196657626
320.124412874626;111.407581759288
320.146030747616;111.141138322361
320.167648620605;110.925783035657
320.189266493595;110.775626186951
320.210884366585;110.682468337138
320.232502239574;110.632206835446
320.254120112564;110.61304655622
320.275737985553;110.621455995457
320.297355858543;110.656201911965
320.318973731532;110.705706491843
320.340591604522;110.753755237965
320.362209477511;110.7894615796
320.383827350501;110.807114308539
320.40544522349;110.804661976026
320.42706309648;110.778770325788
320.448680969469;110.721012584867
320.470298842459;110.626057825346
320.491916715449;110.490686194412
320.513534588438;110.329673699059
320.535152461428;110.153801035721
320.556770334417;109.96187833043
320.578388207407;109.764500737247
320.600006080396;109.574220749489
320.621623953386;109.385949604602
320.643241826375;109.18840621438
320.664859699365;108.984582997641
320.686477572354;108.787979507979
320.708095445344;108.59460318221
320.729713318333;108.392744955479
320.751331191323;108.169381154583
320.772949064313;107.935357847275
320.794566937302;107.705640949265
320.816184810292;107.47366613921
320.837802683281;107.231609823461
320.859420556271;106.985616557413
320.88103842926;106.741489882285
320.90265630225;106.498242190294
320.924274175239;106.257502130014
320.945892048229;106.03162073108
320.967509921218;105.824215942984
320.989127794208;105.637746190084
321.010745667198;105.478898270776
321.032363540187;105.36476450276
321.053981413177;105.304717400449
321.075599286166;105.291752870564
321.097217159156;105.32092710472
321.118835032145;105.394971611091
321.140452905135;105.514973554808
321.162070778124;105.676359712568
321.183688651114;105.857203453335
321.205306524103;106.029919462022
321.226924397093;106.184291721209
321.248542270082;106.316526392635
321.270160143072;106.416260762793
321.291778016061;106.463986916776
321.313395889051;106.454974561009
321.335013762041;106.389531384047
321.35663163503;106.259238004801
321.37824950802;106.061053267439
321.399867381009;105.803794121302
321.421485253999;105.483866139441
321.443103126988;105.089266665805
321.464720999978;104.621398589714
321.486338872967;104.102890283699
321.507956745957;103.556192660665
321.529574618946;102.975824733264
321.551192491936;102.337228551389
321.572810364925;101.656769113991
321.594428237915;100.973886049908
321.616046110905;100.320960192014
321.637663983894;99.7010164074138
321.659281856884;99.100433223634
321.680899729873;98.5131174982291
321.702517602863;97.9743204799468
321.724135475852;97.5126241540451
321.745753348842;97.1125579012072
321.767371221831;96.7574482226865
321.788989094821;96.4538540503748
321.81060696781;96.2202936294911
321.8322248408;96.0373025088926
321.85384271379;95.8757760814757
321.875460586779;95.7171771909688
321.897078459769;95.5485737315968
321.918696332758;95.357892293785
321.940314205748;95.1375544279432
321.961932078737;94.8961341073699
321.983549951727;94.6420484008098
322.005167824716;94.3633453044464
322.026785697706;94.0379832861258
322.048403570695;93.6646536359668
322.070021443685;93.2641570362949
322.091639316674;92.8186672630174
322.113257189664;92.3196527824613
322.134875062654;91.7906354063714
322.156492935643;91.2514028085486
322.178110808633;90.7003196325009
322.199728681622;90.1309166639477
322.221346554612;89.5396488067661
322.242964427601;88.9255219785814
322.264582300591;88.3011759963743
322.28620017358;87.691369884039
322.30781804657;87.1231767221938
322.329435919559;86.6087058962022
322.351053792549;86.1522649227091
322.372671665538;85.7575238148031
322.394289538528;85.42227223274
322.415907411518;85.1469537083911
322.437525284507;84.9390030612115
322.459143157497;84.8068798775655
322.480761030486;84.7662881489697
322.502378903476;84.8322674438399
322.523996776465;84.9873187573875
322.545614649455;85.205869827064
322.567232522444;85.4749068018854
322.588850395434;85.7905579826214
322.610468268423;86.147511448689
322.632086141413;86.5339711513825
322.653704014402;86.9263741507403
322.675321887392;87.2934680811285
322.696939760382;87.6177419720208
322.718557633371;87.8887398433961
322.740175506361;88.0973148580273
322.76179337935;88.2381451837642
322.78341125234;88.3063495345063
322.805029125329;88.300351153424
322.826646998319;88.2261185199976
322.848264871308;88.0872419780485
322.869882744298;87.8920029386976
322.891500617287;87.6536809974098
322.913118490277;87.3725689825699
322.934736363266;87.0380301595989
322.956354236256;86.6648897858921
322.977972109246;86.2743840612198
322.999589982235;85.8651470360007
323.021207855225;85.4316251760592
323.042825728214;84.9810347400991
323.064443601204;84.5357218534177
323.086061474193;84.1120271041326
323.107679347183;83.7061046855706
323.129297220172;83.3063008829911
323.150915093162;82.9093472434542
323.172532966151;82.528134705407
323.194150839141;82.1769917390654
323.21576871213;81.864539207995
323.23738658512;81.5899631001469
323.25900445811;81.3438291465911
323.280622331099;81.1197623934862
323.302240204089;80.9196873236394
323.323858077078;80.7420199343998
323.345475950068;80.577338299644
323.367093823057;80.4143629186705
323.388711696047;80.2431989494789
323.410329569036;80.0605130663535
323.431947442026;79.8669298264039
323.453565315015;79.6571460012072
323.475183188005;79.4216366557474
323.496801060994;79.1506429315632
323.518418933984;78.8366644159245
323.540036806974;78.4858260210321
323.561654679963;78.1221090854587
323.583272552953;77.7567566929557
323.604890425942;77.3827367821488
323.626508298932;77.001203558432
323.648126171921;76.6208508199683
323.669744044911;76.2574654630514
323.6913619179;75.9287759006147
323.71297979089;75.6420600742262
323.734597663879;75.4001728955237
323.756215536869;75.1962672850287
323.777833409858;75.0226850377949
323.799451282848;74.8954769446455
323.821069155838;74.8185668324058
323.842687028827;74.7802893790244
323.864304901817;74.7730038969447
323.885922774806;74.8033942129208
323.907540647796;74.8720935519742
323.929158520785;74.9763717273584
323.950776393775;75.105941855005
323.972394266764;75.2543847405855
323.994012139754;75.4184108749539
324.015630012743;75.5929053979621
324.037247885733;75.7699587302175
324.058865758723;75.9430521114767
324.080483631712;76.1111003208261
324.102101504702;76.2676339062085
324.123719377691;76.3983770057412
324.145337250681;76.493885671638
324.16695512367;76.5606080640813
324.18857299666;76.6055770112414
324.210190869649;76.6295017395428
324.231808742639;76.6310257006758
324.253426615628;76.6084914146863
324.275044488618;76.5659886768796
324.296662361607;76.5159763283293
324.318280234597;76.4705829060679
324.339898107586;76.4289654241917
324.361515980576;76.388114861576
324.383133853566;76.3471647900679
324.404751726555;76.3103441250963
324.426369599545;76.2781165579575
324.447987472534;76.2466354054331
324.469605345524;76.2121136515976
324.491223218513;76.17069551581
324.512841091503;76.1104646961141
324.534458964492;76.0214979299985
324.556076837482;75.9054535645296
324.577694710471;75.7673631999029
324.599312583461;75.6054900190982
324.62093045645;75.4191662311326
324.64254832944;75.2222575884095
324.66416620243;75.0258206772248
324.685784075419;74.8348953372634
324.707401948409;74.6520354152904
324.729019821398;74.4787630040614
324.750637694388;74.3152085095546
324.772255567377;74.1709303622765
324.793873440367;74.0637660811615
