Name;ESR_BC_1_Natural_Z_gon_180dg_result

Recipe
Accumulations;5;Number of accumulations
RetryCount;0;Number of retries on error
AbortOnError;True;Abort on error
EnableQFactorMeasurement;False;Enable/Disable q-Factor measurement
Bfrom;313;B from
Bto;363;B to
SweepTime;60;Sweep time
Modulation;0.2;Modulation
ModulationFreq;100;Modulation
BHoldEnabled;False;B hold enabled
BHold;0;B hold
MicrowavePower;2;Microwave power
MarkerEnabled;False;
MarkerStartField;0;
MarkerEndField;0;
Mode;;
KineticGFact;0;
KineticTotalTransientTime;0;
KineticTimeResolution;0;
TempFrom;5;
TempUseSlope;False;
TempTo;5;
TempdT;1;
TempSetupTime;0;
GonFrom;0;
GonTo;180;
GonSteps;20;
XRayEnabled;False;
XRayTime;3;
XRayVoltage;40;
XRayCurrent;0.5;
UVEnabled;False;
UVIntensity;0;
UVTime;0;
UVLeadTime;0;
UVWavelength;0;
PowSweepFrom;1;
PowSweepTo;5;
PowSweepSteps;5;
AmpModSweepFrom;0;
AmpModSweepTo;1;
AmpModSweepSteps;10;
ExtTriggerEnabled;False;
ExtTrigLeadTime;0;
ExtTrigOnTime;5;

Meas
BField [mT];MW_Absorption []
313.016920776367;90.8533311293799
313.038538210319;90.3455951452959
313.06015564427;89.9291133810843
313.081773078222;89.5861544117784
313.103390512173;89.3102159128812
313.125007946125;89.1116215438934
313.146625380077;88.9956042502052
313.168242814028;88.9404453728686
313.18986024798;88.9351336717324
313.211477681931;88.9714091085613
313.233095115883;89.0318645146654
313.254712549834;89.090138125466
313.276329983786;89.1191616586088
313.297947417737;89.105949013912
313.319564851689;89.0585835975697
313.341182285641;88.9785415309829
313.362799719592;88.8582805834917
313.384417153544;88.6964803425276
313.406034587495;88.4964649102875
313.427652021447;88.260379838945
313.449269455398;87.9995339905582
313.47088688935;87.7396964235244
313.492504323302;87.5069032416915
313.514121757253;87.3152620564438
313.535739191205;87.1577527500137
313.557356625156;87.0258495216517
313.578974059108;86.9346195527016
313.600591493059;86.894602935674
313.622208927011;86.8926855417865
313.643826360962;86.9105118621098
313.665443794914;86.9235768770527
313.687061228866;86.9152550117571
313.708678662817;86.8863375226222
313.730296096769;86.849728215921
313.75191353072;86.7813823982922
313.773530964672;86.656648110682
313.795148398623;86.4998217465945
313.816765832575;86.3447797665654
313.838383266527;86.1744286081216
313.860000700478;85.9673357633103
313.88161813443;85.7264380526431
313.903235568381;85.4874964515856
313.924853002333;85.2852765106614
313.946470436284;85.11436432328
313.968087870236;84.971368488419
313.989705304187;84.8712179957162
314.011322738139;84.828269797276
314.032940172091;84.8359987603733
314.054557606042;84.8893302026762
314.076175039994;84.9901584202986
314.097792473945;85.1410713022403
314.119409907897;85.3511537241192
314.141027341848;85.6263277040801
314.1626447758;85.9637475113294
314.184262209752;86.3643643247886
314.205879643703;86.8333650052664
314.227497077655;87.3552653797746
314.249114511606;87.8984399281461
314.270731945558;88.4593066345556
314.292349379509;89.0544936616324
314.313966813461;89.6784236018542
314.335584247412;90.305686136565
314.357201681364;90.9336872795864
314.378819115316;91.5447411171578
314.400436549267;92.0973550763112
314.422053983219;92.5909092409023
314.44367141717;93.0499919384135
314.465288851122;93.4867922347503
314.486906285073;93.9025304227119
314.508523719025;94.289949533538
314.530141152977;94.6289306557555
314.551758586928;94.9253909058636
314.57337602088;95.1885159539531
314.594993454831;95.422260988229
314.616610888783;95.6263179007812
314.638228322734;95.8027505843096
314.659845756686;95.9498289288434
314.681463190637;96.0653825779666
314.703080624589;96.1394803661861
314.724698058541;96.1660005399002
314.746315492492;96.1469659949546
314.767932926444;96.0889151233769
314.789550360395;95.9886445073711
314.811167794347;95.8351871144111
314.832785228298;95.6382415751206
314.85440266225;95.4154470196842
314.876020096202;95.1747246665937
314.897637530153;94.9131798597323
314.919254964105;94.6326579179919
314.940872398056;94.3566983737573
314.962489832008;94.1046905706193
314.984107265959;93.8763365355005
315.005724699911;93.6658529477988
315.027342133862;93.4738624518837
315.048959567814;93.3078369956744
315.070577001766;93.1792838518182
315.092194435717;93.0791800309449
315.113811869669;92.9942776970399
315.13542930362;92.9173544085888
315.157046737572;92.8493148694027
315.178664171523;92.776449051678
315.200281605475;92.6834295240487
315.221899039426;92.5746774482118
315.243516473378;92.4596258747697
315.26513390733;92.345221894117
315.286751341281;92.2289592602593
315.308368775233;92.1116615252524
315.329986209184;92.0039356648074
315.351603643136;91.9135282275981
315.373221077087;91.842031728856
315.394838511039;91.791462526244
315.416455944991;91.7606487875492
315.438073378942;91.7481547759064
315.459690812894;91.749508724163
315.481308246845;91.7624831499925
315.502925680797;91.7744612359894
315.524543114748;91.7735509682922
315.5461605487;91.7584519155747
315.567777982652;91.7280237737978
315.589395416603;91.6663559917644
315.611012850555;91.5744735209774
315.632630284506;91.4616060641468
315.654247718458;91.3390528865627
315.675865152409;91.2114017923905
315.697482586361;91.0793168372386
315.719100020312;90.9465662261602
315.740717454264;90.8349008569957
315.762334888216;90.7693565578946
315.783952322167;90.7487203543276
315.805569756119;90.7688088590416
315.82718719007;90.8178764103754
315.848804624022;90.8937063082351
315.870422057973;90.9992132831847
315.892039491925;91.1204405628306
315.913656925877;91.2376304020167
315.935274359828;91.352244535311
315.95689179378;91.4650323350946
315.978509227731;91.5663863350999
316.000126661683;91.6403606460177
316.021744095634;91.6734620622621
316.043361529586;91.6544439101023
316.064978963537;91.5740011354491
316.086596397489;91.4364447169592
316.108213831441;91.2483337232751
316.129831265392;91.03282766963
316.151448699344;90.8058613196008
316.173066133295;90.5687006506281
316.194683567247;90.3213892659495
316.216301001198;90.0746618286337
316.23791843515;89.8411009188232
316.259535869102;89.6263957758177
316.281153303053;89.427418044653
316.302770737005;89.2332566525141
316.324388170956;89.035356022157
316.346005604908;88.8306163558946
316.367623038859;88.6167865804804
316.389240472811;88.3934680420952
316.410857906762;88.1556609582654
316.432475340714;87.8978484702866
316.454092774666;87.6061947998697
316.475710208617;87.2629533377231
316.497327642569;86.8764751617028
316.51894507652;86.4779457625612
316.540562510472;86.0755243487806
316.562179944423;85.6630500727474
316.583797378375;85.2318032912031
316.605414812327;84.7857668049628
316.627032246278;84.3312739361254
316.64864968023;83.8909272269257
316.670267114181;83.4852934962042
316.691884548133;83.1236262854536
316.713501982084;82.8018875670147
316.735119416036;82.5183106990337
316.756736849987;82.2931925254862
316.778354283939;82.1519072958897
316.799971717891;82.0853969474716
316.821589151842;82.0886984711244
316.843206585794;82.1493342288359
316.864824019745;82.2635722412638
316.886441453697;82.4283620190156
316.908058887648;82.6361537150491
316.9296763216;82.8670635891011
316.951293755551;83.1037289276722
316.972911189503;83.3415080409695
316.994528623455;83.5791392483895
317.016146057406;83.8211161032906
317.037763491358;84.0641337498332
317.059380925309;84.3015615202314
317.080998359261;84.5324613852482
317.102615793212;84.7674398497019
317.124233227164;85.0178951501956
317.145850661116;85.2958888681981
317.167468095067;85.5938329156859
317.189085529019;85.9007453712858
317.21070296297;86.2137956199359
317.232320396922;86.5337948036709
317.253937830873;86.8566204627157
317.275555264825;87.1789170362486
317.297172698776;87.4815048903023
317.318790132728;87.7379046145948
317.34040756668;87.9378029150259
317.362025000631;88.0809571346935
317.383642434583;88.1615103130312
317.405259868534;88.1800745943156
317.426877302486;88.141576979412
317.448494736437;88.049095522182
317.470112170389;87.9199561263792
317.491729604341;87.7722898743393
317.513347038292;87.6116240376575
317.534964472244;87.4383302233888
317.556581906195;87.2616092718317
317.578199340147;87.0932371606648
317.599816774098;86.9400029106698
317.62143420805;86.8095629371708
317.643051642002;86.7067147759055
317.664669075953;86.6309315928895
317.686286509905;86.5798945173942
317.707903943856;86.5561989466712
317.729521377808;86.5709561312171
317.751138811759;86.610230108233
317.772756245711;86.6531534829792
317.794373679662;86.6940743116161
317.815991113614;86.7310776240855
317.837608547566;86.7537679762821
317.859225981517;86.7476819294643
317.880843415469;86.710193999427
317.90246084942;86.6402112243037
317.924078283372;86.5334296536407
317.945695717323;86.388473556669
317.967313151275;86.2083017160801
317.988930585227;85.9926936732877
318.010548019178;85.7350380674862
318.03216545313;85.431112940239
318.053782887081;85.1007314648134
318.075400321033;84.7806843055837
318.097017754984;84.4923083707754
318.118635188936;84.231914602276
318.140252622887;83.9939484352504
318.161870056839;83.7890287995716
318.183487490791;83.6254111625848
318.205104924742;83.4957333467316
318.226722358694;83.3874915438297
318.248339792645;83.2884290413855
318.269957226597;83.2081681648291
318.291574660548;83.1557964229281
318.3131920945;83.115705108488
318.334809528452;83.0775668339328
318.356426962403;83.0356404677758
318.378044396355;82.9943266795904
318.399661830306;82.9614492563836
318.421279264258;82.9418381769226
318.442896698209;82.9287554565632
318.464514132161;82.9132001874778
318.486131566112;82.895179055456
318.507749000064;82.8722985924633
318.529366434016;82.8343111297786
318.550983867967;82.7657839680444
318.572601301919;82.673896776751
318.59421873587;82.5581780732978
318.615836169822;82.4083123184146
318.637453603773;82.2166326541466
318.659071037725;81.9789350771264
318.680688471676;81.6918865628576
318.702305905628;81.3510227523659
318.72392333958;80.9868415199051
318.745540773531;80.6310971569386
318.767158207483;80.2859233209415
318.788775641434;79.9586725419616
318.810393075386;79.6665500274766
318.832010509337;79.423467261387
318.853627943289;79.2249668378744
318.875245377241;79.0711605606088
318.896862811192;78.9584892814795
318.918480245144;78.8828314249414
318.940097679095;78.8450800308553
318.961715113047;78.8369285283602
318.983332546998;78.8456519975939
319.00494998095;78.8644558398938
319.026567414901;78.8885793779747
319.048184848853;78.9136702349151
319.069802282805;78.930348099998
319.091419716756;78.9356507064265
319.113037150708;78.9353182141008
319.134654584659;78.933761544388
319.156272018611;78.9265542552656
319.177889452562;78.9121823022074
319.199506886514;78.8919634649628
319.221124320466;78.870023525416
319.242741754417;78.8512508206943
319.264359188369;78.8349386416608
319.28597662232;78.8197750919342
319.307594056272;78.8156091965902
319.329211490223;78.8247548974229
319.350828924175;78.8345303602897
319.372446358126;78.8411651869477
319.394063792078;78.8450192556543
319.41568122603;78.8427415041119
319.437298659981;78.8292198090774
319.458916093933;78.8067890746269
319.480533527884;78.7784191443032
319.502150961836;78.7412107797174
319.523768395787;78.6915236587566
319.545385829739;78.6228953990744
319.567003263691;78.5255059263535
319.588620697642;78.3931804818451
319.610238131594;78.2230491033599
319.631855565545;78.0233497891436
319.653472999497;77.8082149887916
319.675090433448;77.5781015442105
319.6967078674;77.3335634994252
319.718325301351;77.0772462083601
319.739942735303;76.8197014214537
319.761560169255;76.5795089420907
319.783177603206;76.3714092330978
319.804795037158;76.1988164653058
319.826412471109;76.0633334304245
319.848029905061;75.9714158283068
319.869647339012;75.9390577199151
319.891264772964;75.9688775487569
319.912882206916;76.0424203184393
319.934499640867;76.1467992873506
319.956117074819;76.2752768787672
319.97773450877;76.4267119095173
319.999351942722;76.5868628781308
320.020969376673;76.7274757884932
320.042586810625;76.8288876064703
320.064204244577;76.8890464402157
320.085821678528;76.9114505012093
320.10743911248;76.8924033938652
320.129056546431;76.8270756998877
320.150673980383;76.7123455351152
320.172291414334;76.5514995159365
320.193908848286;76.3560518093289
320.215526282237;76.1317872422803
320.237143716189;75.8840191502137
320.258761150141;75.6260143464763
320.280378584092;75.3709142216733
320.301996018044;75.1239982714894
320.323613451995;74.8880562780778
320.345230885947;74.6705022180941
320.366848319898;74.488838601117
320.38846575385;74.3578954238605
320.410083187801;74.2752735737792
320.431700621753;74.2345920943263
320.453318055705;74.2394735695421
320.474935489656;74.2996884125078
320.496552923608;74.4227853963593
320.518170357559;74.5939568789643
320.539787791511;74.7947648802855
320.561405225462;75.0168049712974
320.583022659414;75.2581767974262
320.604640093366;75.5182393450913
320.626257527317;75.7854843566518
320.647874961269;76.0370467993582
320.66949239522;76.2542581785222
320.691109829172;76.4259254729183
320.712727263123;76.5414959598043
320.734344697075;76.6041209860515
320.755962131026;76.6227204152302
320.777579564978;76.6031568946443
320.79919699893;76.5387189959098
320.820814432881;76.4240405288334
320.842431866833;76.2566057091305
320.864049300784;76.0452479428022
320.885666734736;75.8055236422786
320.907284168687;75.5482088840879
320.928901602639;75.2777638170865
320.950519036591;74.98920321974
320.972136470542;74.6646904427398
320.993753904494;74.3128749351593
321.015371338445;73.9714056870766
321.036988772397;73.6408291344935
321.058606206348;73.3034377239522
321.0802236403;72.9390932997865
321.101841074251;72.5383279634685
321.123458508203;72.1404553876991
321.145075942155;71.7881095160923
321.166693376106;71.4632090012297
321.188310810058;71.1446895896224
321.209928244009;70.8453356492176
321.231545677961;70.5901586172598
321.253163111912;70.3775346667455
321.274780545864;70.1906806495908
321.296397979816;70.0356184535948
321.318015413767;69.9183912585658
321.339632847719;69.8297000493491
321.36125028167;69.7586960891962
321.382867715622;69.7021571929237
321.404485149573;69.6643428239251
321.426102583525;69.636216051285
321.447720017476;69.6040148645052
321.469337451428;69.5596052805471
321.49095488538;69.497240755785
321.512572319331;69.3994648282062
321.534189753283;69.253476215811
321.555807187234;69.0638659455252
321.577424621186;68.8281505850072
321.599042055137;68.5306732443519
321.620659489089;68.1579303339977
321.642276923041;67.713597579642
321.663894356992;67.2029103905115
321.685511790944;66.619407608444
321.707129224895;65.9536916118342
321.728746658847;65.2138395497759
321.750364092798;64.4501681193766
321.77198152675;63.688806544703
321.793598960701;62.9252154443378
321.815216394653;62.1560474188631
321.836833828605;61.3971088607816
321.858451262556;60.6808653783098
321.880068696508;60.0281013619672
321.901686130459;59.4420139627269
321.923303564411;58.9466174228118
321.944920998362;58.5624945864383
321.966538432314;58.2857897442997
321.988155866266;58.1252051817539
322.009773300217;58.0845907702685
322.031390734169;58.1461278550725
322.05300816812;58.2966343316626
322.074625602072;58.520534263797
322.096243036023;58.7942243559376
322.117860469975;59.0887267716981
322.139477903926;59.3852121260593
322.161095337878;59.6672859571805
322.18271277183;59.9167817226082
322.204330205781;60.1204653130453
322.225947639733;60.2688215323413
322.247565073684;60.345213057258
322.269182507636;60.3560354299504
322.290799941587;60.323419730988
322.312417375539;60.2507831112284
322.334034809491;60.1265960404946
322.355652243442;59.9593679272533
322.377269677394;59.7604689961237
322.398887111345;59.5440991204319
322.420504545297;59.3142863614714
322.442121979248;59.0693805228607
322.4637394132;58.8162499230685
322.485356847151;58.5722605456752
322.506974281103;58.3383483918227
322.528591715055;58.1071915602163
322.550209149006;57.8975777135993
322.571826582958;57.7307573760298
322.593444016909;57.6053847499119
322.615061450861;57.5149149583072
322.636678884812;57.4631888921999
322.658296318764;57.4753123607705
322.679913752715;57.5522760750554
322.701531186667;57.6932575908748
322.723148620619;57.8888674265138
322.74476605457;58.1299197619817
322.766383488522;58.4147684938314
322.788000922473;58.7331975521701
322.809618356425;59.0635249001399
322.831235790376;59.3983797173607
322.852853224328;59.7276934294529
322.87447065828;60.0448002990937
322.896088092231;60.3407097828434
322.917705526183;60.6011164433249
322.939322960134;60.8018188199609
322.960940394086;60.9333188299258
322.982557828037;60.9927206744303
323.004175261989;60.9722022592171
323.025792695941;60.8719289046594
323.047410129892;60.6991514989534
323.069027563844;60.4564766693146
323.090644997795;60.1507731564307
323.112262431747;59.7957534218844
323.133879865698;59.4037328130214
323.15549729965;58.9877186401569
323.177114733601;58.5448628896495
323.198732167553;58.0722241061515
323.220349601505;57.5952710021594
323.241967035456;57.127366839183
323.263584469408;56.6655296835104
323.285201903359;56.1997921138011
323.306819337311;55.7198915594261
323.328436771262;55.2339843418888
323.350054205214;54.7635587355412
323.371671639166;54.3249327467266
323.393289073117;53.9164309699544
323.414906507069;53.5305805865889
323.43652394102;53.1620245104053
323.458141374972;52.8080534226085
323.479758808923;52.4774373725266
323.501376242875;52.1726854601461
323.522993676826;51.9015420922949
323.544611110778;51.6631643247197
323.56622854473;51.4523239666637
323.587845978681;51.2739343964075
323.609463412633;51.1295769450143
323.631080846584;51.0139802620854
323.652698280536;50.9204366624567
323.674315714487;50.8394496559722
323.695933148439;50.7630959902568
323.717550582391;50.6878787106413
323.739168016342;50.62489447798
323.760785450294;50.5698815693048
323.782402884245;50.4960895102021
323.804020318197;50.3933769369923
323.825637752148;50.274270582741
323.8472551861;50.1487549157425
323.868872620051;50.010916990596
323.890490054003;49.8472823130784
323.912107487955;49.6591784662959
323.933724921906;49.4625990584999
323.955342355858;49.270877922112
323.976959789809;49.0830522912977
323.998577223761;48.8957405122225
324.020194657712;48.7123748730391
324.041812091664;48.5387383754847
324.063429525616;48.3809428338209
324.085046959567;48.2409520408626
324.106664393519;48.1115187303412
324.12828182747;47.9811840112045
324.149899261422;47.8439559593451
324.171516695373;47.6912103942748
324.193134129325;47.5325765426298
324.214751563276;47.3843202135975
324.236368997228;47.2490041971151
324.25798643118;47.1312224533568
324.279603865131;47.0300354943124
324.301221299083;46.947694566525
324.322838733034;46.8899979105485
324.344456166986;46.8627955234337
324.366073600937;46.8690395097795
324.387691034889;46.9065052012761
324.40930846884;46.9711686883964
324.430925902792;47.0615683565196
324.452543336744;47.1719437636657
324.474160770695;47.291332111626
324.495778204647;47.4078240057187
324.517395638598;47.5113467663328
324.53901307255;47.5952080457651
324.560630506501;47.6536269396937
324.582247940453;47.6815698768698
324.603865374405;47.6750504510701
324.625482808356;47.6277457761722
324.647100242308;47.5365369272459
324.668717676259;47.3985815832699
324.690335110211;47.2106263444759
324.711952544162;46.9650985635265
324.733569978114;46.6694370769125
324.755187412065;46.3428016714649
