Name;ESR_BC_1_359s_Z_gon_40dg_result

Recipe
Accumulations;5;Number of accumulations
RetryCount;0;Number of retries on error
AbortOnError;True;Abort on error
EnableQFactorMeasurement;False;Enable/Disable q-Factor measurement
Bfrom;313;B from
Bto;363;B to
SweepTime;60;Sweep time
Modulation;0.2;Modulation
ModulationFreq;100;Modulation
BHoldEnabled;False;B hold enabled
BHold;0;B hold
MicrowavePower;2;Microwave power
MarkerEnabled;False;
MarkerStartField;0;
MarkerEndField;0;
Mode;;
KineticGFact;0;
KineticTotalTransientTime;0;
KineticTimeResolution;0;
TempFrom;5;
TempUseSlope;False;
TempTo;5;
TempdT;1;
TempSetupTime;0;
GonFrom;0;
GonTo;180;
GonSteps;20;
XRayEnabled;False;
XRayTime;3;
XRayVoltage;40;
XRayCurrent;0.5;
UVEnabled;False;
UVIntensity;0;
UVTime;0;
UVLeadTime;0;
UVWavelength;0;
PowSweepFrom;1;
PowSweepTo;5;
PowSweepSteps;5;
AmpModSweepFrom;0;
AmpModSweepTo;1;
AmpModSweepSteps;10;
ExtTriggerEnabled;False;
ExtTrigLeadTime;0;
ExtTrigOnTime;5;

Meas
BField [mT];MW_Absorption []
313.009995956421;84.0963992224439
313.031614174507;83.6417253817554
313.053232392592;83.2191578123468
313.074850610678;82.8708208829229
313.096468828763;82.6034020165482
313.118087046849;82.4052561383959
313.139705264935;82.259347435345
313.16132348302;82.1575509061469
313.182941701106;82.0933044032756
313.204559919191;82.0534251284253
313.226178137277;82.020673221369
313.247796355363;81.9830190476841
313.269414573448;81.9385826292899
313.291032791534;81.882369095448
313.312651009619;81.8070462371588
313.334269227705;81.7034922448709
313.355887445791;81.5771122529506
313.377505663876;81.4378875074128
313.399123881962;81.2998900984818
313.420742100048;81.1680110719371
313.442360318133;81.0485108744746
313.463978536219;80.9400318513531
313.485596754304;80.8392995525082
313.50721497239;80.7483318420335
313.528833190476;80.6669434824166
313.550451408561;80.5932722454812
313.572069626647;80.5272002531379
313.593687844732;80.4769881553936
313.615306062818;80.4495106865093
313.636924280904;80.4401153680161
313.658542498989;80.4556791512495
313.680160717075;80.5017765962735
313.70177893516;80.5701049466368
313.723397153246;80.653999063332
313.745015371332;80.7529336469132
313.766633589417;80.8715643059396
313.788251807503;81.0017902466013
313.809870025589;81.1265504798384
313.831488243674;81.2381880049825
313.85310646176;81.3369045171049
313.874724679845;81.4200463138509
313.896342897931;81.4796705409461
313.917961116017;81.5113911390662
313.939579334102;81.5207823972969
313.961197552188;81.5062467257239
313.982815770273;81.4620402843079
314.004433988359;81.3937441632049
314.026052206445;81.3066520297272
314.04767042453;81.2053135305658
314.069288642616;81.0907281614085
314.090906860701;80.9606525919723
314.112525078787;80.8145839022606
314.134143296873;80.6605083115395
314.155761514958;80.5141680957594
314.177379733044;80.3844466590125
314.19899795113;80.2815196998156
314.220616169215;80.2191298872685
314.242234387301;80.2089379125316
314.263852605386;80.2588430342479
314.285470823472;80.3565415185828
314.307089041558;80.4884390691433
314.328707259643;80.6547640541083
314.350325477729;80.8521266419415
314.371943695814;81.0832180634718
314.3935619139;81.3456215717043
314.415180131986;81.6181759682985
314.436798350071;81.8896793095176
314.458416568157;82.1602058872663
314.480034786243;82.433378567592
314.501653004328;82.7066873217477
314.523271222414;82.9627669467172
314.544889440499;83.1844306639522
314.566507658585;83.3708923576579
314.588125876671;83.5329305358471
314.609744094756;83.6782117209756
314.631362312842;83.7949641567665
314.652980530927;83.8624349214339
314.674598749013;83.8786848310484
314.696216967099;83.8466938959485
314.717835185184;83.7648881804885
314.73945340327;83.6337390503035
314.761071621355;83.4600800316929
314.782689839441;83.2574496612667
314.804308057527;83.0311013927062
314.825926275612;82.7800881541277
314.847544493698;82.5061849701762
314.869162711784;82.2102484026754
314.890780929869;81.9017138592707
314.912399147955;81.5966822633378
314.93401736604;81.3037222571065
314.955635584126;81.0162361504377
314.977253802212;80.7273536623951
314.998872020297;80.4424538051982
315.020490238383;80.1691534010328
315.042108456468;79.905985269561
315.063726674554;79.6477283908915
315.08534489264;79.3975858334492
315.106963110725;79.1695344511831
315.128581328811;78.970945982386
315.150199546896;78.7951784427291
315.171817764982;78.6478536367252
315.193435983068;78.5308404959911
315.215054201153;78.4285853808868
315.236672419239;78.3353803222892
315.258290637325;78.2477934384116
315.27990885541;78.1493253434546
315.301527073496;78.0264516920504
315.323145291581;77.881967986452
315.344763509667;77.7319190092149
315.366381727753;77.5932746345073
315.387999945838;77.4674596388475
315.409618163924;77.3508550279495
315.431236382009;77.2426992916426
315.452854600095;77.1498636630257
315.474472818181;77.0880892616955
315.496091036266;77.0694120041426
315.517709254352;77.1057673761646
315.539327472437;77.2133146092395
315.560945690523;77.384461193796
315.582563908609;77.5899104853931
315.604182126694;77.8184790570907
315.62580034478;78.0797919560725
315.647418562866;78.3860058558379
315.669036780951;78.7283515161852
315.690654999037;79.0968783689916
315.712273217122;79.4860979157204
315.733891435208;79.8618063818427
315.755509653294;80.20646676614
315.777127871379;80.5328435371321
315.798746089465;80.8568368706062
315.82036430755;81.1793211609963
315.841982525636;81.4924944438621
315.863600743722;81.7810585079614
315.885218961807;82.0163212171882
315.906837179893;82.1853211482691
315.928455397979;82.2893891335571
315.950073616064;82.3122813621369
315.97169183415;82.2438471541026
315.993310052235;82.1052319826343
316.014928270321;81.9056662605551
316.036546488407;81.6407768452722
316.058164706492;81.3088436747327
316.079782924578;80.9149448842477
316.101401142663;80.4738855096938
316.123019360749;80.0024885348519
316.144637578835;79.5078589914678
316.16625579692;78.9956257116459
316.187874015006;78.4848950275731
316.209492233091;77.9974290791508
316.231110451177;77.5392579106576
316.252728669263;77.1172658738799
316.274346887348;76.7474618890767
316.295965105434;76.4386782021408
316.31758332352;76.1780701239266
316.339201541605;75.9650305213003
316.360819759691;75.7950529261181
316.382437977776;75.6562465328172
316.404056195862;75.5340237397362
316.425674413948;75.4247709043595
316.447292632033;75.3262765184028
316.468910850119;75.2369451563925
316.490529068204;75.1609062059284
316.51214728629;75.0840746246647
316.533765504376;74.9914461099094
316.555383722461;74.8828782418931
316.577001940547;74.7646952091686
316.598620158633;74.649009427577
316.620238376718;74.5393964547657
316.641856594804;74.4339706866798
316.663474812889;74.3350781945541
316.685093030975;74.2468547372911
316.706711249061;74.1683313301002
316.728329467146;74.0990226800156
316.749947685232;74.0421892769513
316.771565903317;73.9976274461361
316.793184121403;73.9600524058413
316.814802339489;73.94423801023
316.836420557574;73.9501293478024
316.85803877566;73.974984422996
316.879656993745;74.01806711321
316.901275211831;74.0765205504061
316.922893429917;74.1360761371465
316.944511648002;74.2005233280118
316.966129866088;74.2846906723664
316.987748084174;74.4002604246396
317.009366302259;74.5392758587038
317.030984520345;74.6884326647567
317.05260273843;74.8456633634884
317.074220956516;75.016302755792
317.095839174602;75.1889010681816
317.117457392687;75.3638157185615
317.139075610773;75.5305437888447
317.160693828858;75.6679084157641
317.182312046944;75.7679693504998
317.20393026503;75.8259650984656
317.225548483115;75.8408602549789
317.247166701201;75.8120564923081
317.268784919286;75.7495253590099
317.290403137372;75.6606931945328
317.312021355458;75.5509779529679
317.333639573543;75.4213523249583
317.355257791629;75.2681246637591
317.376876009715;75.1013576845213
317.3984942278;74.9524115391233
317.420112445886;74.8428800409494
317.441730663971;74.7736827177813
317.463348882057;74.7349208270705
317.484967100143;74.7186855093312
317.506585318228;74.7266699627028
317.528203536314;74.7627220970059
317.549821754399;74.8163177948151
317.571439972485;74.8807310492666
317.593058190571;74.945994701441
317.614676408656;75.0017552687474
317.636294626742;75.0505235071909
317.657912844827;75.097904225905
317.679531062913;75.145472067398
317.701149280999;75.1862794268777
317.722767499084;75.2055423369775
317.74438571717;75.2028727680356
317.766003935256;75.2029912754735
317.787622153341;75.2242436394775
317.809240371427;75.2634337372387
317.830858589512;75.3193756814278
317.852476807598;75.3984156641402
317.874095025684;75.5040015929239
317.895713243769;75.6227442107005
317.917331461855;75.7434090910663
317.93894967994;75.8594464080393
317.960567898026;75.9614784716156
317.982186116112;76.039575692839
318.003804334197;76.0921901434304
318.025422552283;76.1099272314034
318.047040770368;76.0878064588889
318.068658988454;76.0232835534887
318.09027720654;75.9137576623144
318.111895424625;75.7589970309302
318.133513642711;75.5674563531203
318.155131860797;75.3470109696312
318.176750078882;75.0964599009742
318.198368296968;74.8097017655978
318.219986515053;74.481442622062
318.241604733139;74.1265340622716
318.263222951225;73.760847450787
318.28484116931;73.3667752350091
318.306459387396;72.9304998646787
318.328077605481;72.4373986231619
318.349695823567;71.898055717026
318.371314041653;71.3591032464791
318.392932259738;70.7981894760628
318.414550477824;70.1866820856257
318.43616869591;69.5307119442931
318.457786913995;68.8781755123275
318.479405132081;68.2476592055982
318.501023350166;67.6384546858608
318.522641568252;67.0927671158986
318.544259786338;66.6364233261953
318.565878004423;66.2610894108477
318.587496222509;65.9538639267412
318.609114440594;65.7596521699598
318.63073265868;65.6826861497118
318.652350876766;65.6965806157059
318.673969094851;65.7943451763509
318.695587312937;65.9755082332704
318.717205531023;66.2223290858112
318.738823749108;66.5107358856134
318.760441967194;66.828192800232
318.782060185279;67.1593260636471
318.803678403365;67.4803495695117
318.825296621451;67.7849070135228
318.846914839536;68.0872508689941
318.868533057622;68.3898040747037
318.890151275707;68.6663732028782
318.911769493793;68.909778737735
318.933387711879;69.1283980731589
318.955005929964;69.325607785954
318.97662414805;69.4987182958621
318.998242366135;69.6551629457817
319.019860584221;69.8021521337488
319.041478802307;69.9300381850091
319.063097020392;70.0210550396738
319.084715238478;70.0736252745029
319.106333456564;70.0932141961103
319.127951674649;70.0809989342645
319.149569892735;70.038198521861
319.17118811082;69.9644676055091
319.192806328906;69.8596110915542
319.214424546992;69.7253239340661
319.236042765077;69.5662600107479
319.257660983163;69.3902499680124
319.279279201248;69.2089745125373
319.300897419334;69.0379264629983
319.32251563742;68.8854314268195
319.344133855505;68.7579159847975
319.365752073591;68.6590436764289
319.387370291676;68.5874019700848
319.408988509762;68.5400896420003
319.430606727848;68.5173860632189
319.452224945933;68.521601788852
319.473843164019;68.5445424675144
319.495461382105;68.5781529706734
319.51707960019;68.6217674307096
319.538697818276;68.6772779977413
319.560316036361;68.7351658994002
319.581934254447;68.7801640670842
319.603552472533;68.8135932037138
319.625170690618;68.8466448033782
319.646788908704;68.8869537756889
319.668407126789;68.9337597037079
319.690025344875;68.9813283552586
319.711643562961;69.0223905940825
319.733261781046;69.0546384841745
319.754879999132;69.0800650315333
319.776498217217;69.0961288172544
319.798116435303;69.0978215670946
319.819734653389;69.0836812648619
319.841352871474;69.0586243553508
319.86297108956;69.0196323755316
319.884589307646;68.9578689808762
319.906207525731;68.873278644585
319.927825743817;68.7659177831915
319.949443961902;68.6413589228889
319.971062179988;68.5014816303121
319.992680398074;68.3442438032346
320.014298616159;68.1800933665268
320.035916834245;68.0327477194745
320.05753505233;67.9071341141373
320.079153270416;67.7996831177647
320.100771488502;67.7081400527543
320.122389706587;67.6373487086926
320.144007924673;67.592326127884
320.165626142758;67.5763325137105
320.187244360844;67.5916522913473
320.20886257893;67.6363953530279
320.230480797015;67.699388503136
320.252099015101;67.7686029354829
320.273717233187;67.835741395722
320.295335451272;67.8939457309588
320.316953669358;67.929040061386
320.338571887443;67.9290522652446
320.360190105529;67.890387895603
320.381808323615;67.808812817203
320.4034265417;67.681689191599
320.425044759786;67.5108029380948
320.446662977871;67.3014462826663
320.468281195957;67.0514530916397
320.489899414043;66.7674677252278
320.511517632128;66.4665651404976
320.533135850214;66.166215419708
320.5547540683;65.8712278487668
320.576372286385;65.5843525156205
320.597990504471;65.3147253145865
320.619608722556;65.0696383457511
320.641226940642;64.8456943023631
320.662845158728;64.6408922009927
320.684463376813;64.4630178809509
320.706081594899;64.316167175764
320.727699812984;64.1986538015744
320.74931803107;64.1035985791068
320.770936249156;64.0276421250565
320.792554467241;63.9696685735995
320.814172685327;63.9238538863809
320.835790903412;63.8838860606668
320.857409121498;63.8516866228436
320.879027339584;63.8305177327092
320.900645557669;63.8039853958923
320.922263775755;63.7581749923276
320.943881993841;63.7024452845291
320.965500211926;63.6509352858108
320.987118430012;63.6002100694739
321.008736648097;63.5327059534775
321.030354866183;63.440141905594
321.051973084269;63.3261556991737
321.073591302354;63.198893083816
321.09520952044;63.0650817380973
321.116827738525;62.9347663502748
321.138445956611;62.8091675441747
321.160064174697;62.683192512235
321.181682392782;62.5599025150919
321.203300610868;62.4403327645633
321.224918828953;62.3223476247163
321.246537047039;62.2054443379432
321.268155265125;62.0760657060055
321.28977348321;61.922146605466
321.311391701296;61.7478863549839
321.333009919382;61.5741330439297
321.354628137467;61.3871133440857
321.376246355553;61.1856656903676
321.397864573638;60.9699695883084
321.419482791724;60.7376435661231
321.44110100981;60.5106265515488
321.462719227895;60.3037492840294
321.484337445981;60.1123538289261
321.505955664066;59.9291232376538
321.527573882152;59.7511748509365
321.549192100238;59.5787036568302
321.570810318323;59.4161248767702
321.592428536409;59.2570997145893
321.614046754495;59.0942087058251
321.63566497258;58.9192332391872
321.657283190666;58.7260231536049
321.678901408751;58.5090250688334
321.700519626837;58.267848604961
321.722137844923;58.0107342457716
321.743756063008;57.7461447211079
321.765374281094;57.4803807915112
321.786992499179;57.2317625268953
321.808610717265;57.0162371682618
321.830228935351;56.8341652449485
321.851847153436;56.6763951480502
321.873465371522;56.5347511810235
321.895083589607;56.4120318836381
321.916701807693;56.3122735559598
321.938320025779;56.2211341012043
321.959938243864;56.1227313734476
321.98155646195;56.0133512984127
322.003174680036;55.8955563681316
322.024792898121;55.772311645023
322.046411116207;55.6356070605086
322.068029334292;55.4698779123915
322.089647552378;55.2731056584881
322.111265770464;55.0658581852348
322.132883988549;54.8703899458048
322.154502206635;54.6837604325403
322.17612042472;54.5047642783594
322.197738642806;54.348901718648
322.219356860892;54.2354716817117
322.240975078977;54.1731369419475
322.262593297063;54.1535551167726
322.284211515148;54.1713735351175
322.305829733234;54.2320381681465
322.32744795132;54.3357463644913
322.349066169405;54.4754223209673
322.370684387491;54.6407535619283
322.392302605577;54.8203305651151
322.413920823662;55.0080889352831
322.435539041748;55.2010812715531
322.457157259833;55.3947241965962
322.478775477919;55.5851544505754
322.500393696005;55.7750116532183
322.52201191409;55.9734156591411
322.543630132176;56.1800993571971
322.565248350261;56.3634664296778
322.586866568347;56.5058570113205
322.608484786433;56.6065069545136
322.630103004518;56.6524195074718
322.651721222604;56.6365854517144
322.67333944069;56.5679579936093
322.694957658775;56.454168981849
322.716575876861;56.2902603701248
322.738194094946;56.0625390063673
322.759812313032;55.763512853974
322.781430531118;55.4304635993197
322.803048749203;55.0861848278553
322.824666967289;54.7412849535372
322.846285185374;54.4038520525824
322.86790340346;54.0844403551027
322.889521621546;53.7958598390985
322.911139839631;53.5496683536389
322.932758057717;53.3510980595344
322.954376275802;53.1942091128278
322.975994493888;53.0633237861898
322.997612711974;52.9685049012546
323.019230930059;52.9380631607891
323.040849148145;52.9735292768998
323.062467366231;53.0428795929633
323.084085584316;53.1210972832112
323.105703802402;53.2021580456551
323.127322020487;53.2816434604442
323.148940238573;53.3531590795603
323.170558456659;53.4099752147926
323.192176674744;53.4456793991422
323.21379489283;53.4532640377415
323.235413110915;53.4261694246228
323.257031329001;53.3657428093538
323.278649547087;53.2845537231511
323.300267765172;53.1812899394409
323.321885983258;53.0495427440256
323.343504201343;52.9025128254692
323.365122419429;52.7536037937796
323.386740637515;52.5957426528739
323.4083588556;52.4302842853458
323.429977073686;52.2636034375925
323.451595291772;52.0947036448988
323.473213509857;51.9168476700254
323.494831727943;51.7260143555353
323.516449946028;51.5250829592711
323.538068164114;51.3171677146474
323.5596863822;51.1060276630354
323.581304600285;50.8899383738564
323.602922818371;50.661577048414
323.624541036456;50.4189226503203
323.646159254542;50.173111388808
323.667777472628;49.9372706869673
323.689395690713;49.7227989559796
323.711013908799;49.5320295040024
323.732632126884;49.3596372652345
323.75425034497;49.2013632518527
323.775868563056;49.0542701187797
323.797486781141;48.9147388544847
323.819104999227;48.7840928913664
323.840723217313;48.6703268402593
323.862341435398;48.5834161908966
323.883959653484;48.5312795031742
323.905577871569;48.517900854306
323.927196089655;48.54977022795
323.948814307741;48.6337236421048
323.970432525826;48.770417404029
323.992050743912;48.957044658525
324.013668961997;49.1923852426944
324.035287180083;49.472663893615
324.056905398169;49.7863650350949
324.078523616254;50.1163826755618
324.10014183434;50.4453792918691
324.121760052425;50.7585408388035
324.143378270511;51.0361551525243
324.164996488597;51.2640458351468
324.186614706682;51.4452189793552
324.208232924768;51.5886217511529
324.229851142854;51.6985578435027
324.251469360939;51.7771744973006
324.273087579025;51.8343356099064
324.29470579711;51.8856530284164
324.316324015196;51.9417888697112
324.337942233282;52.0089689857143
324.359560451367;52.0947359283322
324.381178669453;52.2047813395344
324.402796887538;52.3357635853808
324.424415105624;52.4743505161764
324.44603332371;52.6123632713238
324.467651541795;52.7458730632034
324.489269759881;52.8641361399736
324.510887977967;52.9537885562195
324.532506196052;53.0109151522803
324.554124414138;53.0391725483736
324.575742632223;53.0480346855591
324.597360850309;53.0330065827346
324.618979068395;52.9812351148818
324.64059728648;52.8934310937781
324.662215504566;52.7739261896311
324.683833722651;52.6186092267351
324.705451940737;52.4148190333617
324.727070158823;52.1606416576852
324.748688376908;51.8844066538075
