Name;ESR_BC_1_7200s_X_gon_100dg_result

Recipe
Accumulations;5;Number of accumulations
RetryCount;0;Number of retries on error
AbortOnError;True;Abort on error
EnableQFactorMeasurement;False;Enable/Disable q-Factor measurement
Bfrom;313;B from
Bto;363;B to
SweepTime;60;Sweep time
Modulation;0.2;Modulation
ModulationFreq;100;Modulation
BHoldEnabled;False;B hold enabled
BHold;0;B hold
MicrowavePower;2;Microwave power
MarkerEnabled;False;
MarkerStartField;0;
MarkerEndField;0;
Mode;;
KineticGFact;0;
KineticTotalTransientTime;0;
KineticTimeResolution;0;
TempFrom;5;
TempUseSlope;False;
TempTo;5;
TempdT;1;
TempSetupTime;0;
GonFrom;0;
GonTo;180;
GonSteps;20;
XRayEnabled;False;
XRayTime;3;
XRayVoltage;40;
XRayCurrent;0.5;
UVEnabled;False;
UVIntensity;0;
UVTime;0;
UVLeadTime;0;
UVWavelength;0;
PowSweepFrom;1;
PowSweepTo;5;
PowSweepSteps;5;
AmpModSweepFrom;0;
AmpModSweepTo;1;
AmpModSweepSteps;10;
ExtTriggerEnabled;False;
ExtTrigLeadTime;0;
ExtTrigOnTime;5;

Meas
BField [mT];MW_Absorption []
313.025923156738;524.604959997204
313.047539978424;523.774010525512
313.069156800109;522.92113682722
313.090773621794;522.047147388483
313.11239044348;521.144845012622
313.134007265165;520.253857971001
313.155624086851;519.405232449658
313.177240908536;518.573078709005
313.198857730221;517.724756137551
313.220474551907;516.867836825673
313.242091373592;516.030497884567
313.263708195278;515.194921490342
313.285325016963;514.3572268776
313.306941838648;513.551265161
313.328558660334;512.797054743662
313.350175482019;512.047276483008
313.371792303705;511.285178029777
313.39340912539;510.532000834382
313.415025947075;509.819933120206
313.436642768761;509.132869085509
313.458259590446;508.43665497818
313.479876412132;507.703931243175
313.501493233817;506.951150250353
313.523110055502;506.186648406713
313.544726877188;505.391490249457
313.566343698873;504.565218248143
313.587960520559;503.726359385395
313.609577342244;502.857744680565
313.631194163929;501.944463042224
313.652810985615;501.017582011101
313.6744278073;500.096119987797
313.696044628986;499.180736103177
313.717661450671;498.293605606718
313.739278272356;497.441800044837
313.760895094042;496.600060651565
313.782511915727;495.797729699011
313.804128737413;495.044723505014
313.825745559098;494.351881588149
313.847362380783;493.721691342516
313.868979202469;493.144992386089
313.890596024154;492.610630911245
313.91221284584;492.104334050359
313.933829667525;491.61113625436
313.95544648921;491.116950062174
313.977063310896;490.608331957228
313.998680132581;490.090365165906
314.020296954266;489.58424477082
314.041913775952;489.086433603694
314.063530597637;488.588050302269
314.085147419323;488.108968974576
314.106764241008;487.643356051251
314.128381062693;487.187395329846
314.149997884379;486.729208459486
314.171614706064;486.270783086185
314.19323152775;485.823332813602
314.214848349435;485.376855238321
314.23646517112;484.913757488906
314.258081992806;484.422674969091
314.279698814491;483.919139498583
314.301315636177;483.423329163379
314.322932457862;482.92177488184
314.344549279547;482.385221803965
314.366166101233;481.801857528979
314.387782922918;481.189994131926
314.409399744604;480.571193600009
314.431016566289;479.953960651269
314.452633387974;479.355064748859
314.47425020966;478.783401176946
314.495867031345;478.215886106374
314.517483853031;477.655903625442
314.539100674716;477.148016564443
314.560717496401;476.682598526913
314.582334318087;476.227167906827
314.603951139772;475.787683607209
314.625567961458;475.396884854027
314.647184783143;475.051834675006
314.668801604828;474.717232755287
314.690418426514;474.37931402154
314.712035248199;474.04067279166
314.733652069885;473.692088418992
314.75526889157;473.311014571134
314.776885713255;472.883836977345
314.798502534941;472.416033101776
314.820119356626;471.928538075092
314.841736178311;471.42883764018
314.863352999997;470.909366913421
314.884969821682;470.375021924031
314.906586643368;469.872245411814
314.928203465053;469.426186070723
314.949820286738;469.036922857412
314.971437108424;468.696008542823
314.993053930109;468.394116981651
315.014670751795;468.124612334001
315.03628757348;467.890686030662
315.057904395165;467.699824518733
315.079521216851;467.560636045347
315.101138038536;467.468377633068
315.122754860222;467.41685441298
315.144371681907;467.397171303892
315.165988503592;467.394591786419
315.187605325278;467.405512207201
315.209222146963;467.427579337274
315.230838968649;467.447492184303
315.252455790334;467.464978254378
315.274072612019;467.470386083609
315.295689433705;467.43588607494
315.31730625539;467.339077888409
315.338923077076;467.176231179636
315.360539898761;466.939836705004
315.382156720446;466.619631427979
315.403773542132;466.212023901819
315.425390363817;465.720660588649
315.447007185503;465.146506208219
315.468624007188;464.497614014455
315.490240828873;463.782207185819
315.511857650559;462.982992848575
315.533474472244;462.096264903065
315.555091293929;461.169110081849
315.576708115615;460.18549676815
315.5983249373;459.10855580114
315.619941758986;457.900272551222
315.641558580671;456.564121221633
315.663175402356;455.179746473182
315.684792224042;453.819313484866
315.706409045727;452.480316286665
315.728025867413;451.12607838499
315.749642689098;449.747920211085
315.771259510783;448.372751191589
315.792876332469;447.024108599976
315.814493154154;445.712817062714
315.83610997584;444.434368126789
315.857726797525;443.223242737771
315.87934361921;442.084097118885
315.900960440896;440.979713803986
315.922577262581;439.884038301382
315.944194084267;438.850310427874
315.965810905952;437.968467669505
315.987427727637;437.189981541867
316.009044549323;436.459794295242
316.030661371008;435.769421624752
316.052278192694;435.144028024975
316.073895014379;434.570593249573
316.095511836064;434.029723791762
316.11712865775;433.529075483275
316.138745479435;433.067198917685
316.160362301121;432.62388019018
316.181979122806;432.181495899765
316.203595944491;431.731351492896
316.225212766177;431.269477825355
316.246829587862;430.812778758352
316.268446409547;430.380614054523
316.290063231233;429.969684125548
316.311680052918;429.576174473658
316.333296874604;429.212033884176
316.354913696289;428.901070898076
316.376530517975;428.646387012997
316.39814733966;428.440871979314
316.419764161345;428.283603366034
316.441380983031;428.170223163724
316.462997804716;428.087172501908
316.484614626401;428.020000880473
316.506231448087;427.955517994622
316.527848269772;427.878462521321
316.549465091458;427.773460839684
316.571081913143;427.635768147791
316.592698734828;427.468968490403
316.614315556514;427.273578686004
316.635932378199;427.053833900558
316.657549199885;426.818035869711
316.67916602157;426.569642243246
316.700782843255;426.306784523251
316.722399664941;426.034406476202
316.744016486626;425.769624170439
316.765633308312;425.532545277029
316.787250129997;425.338459947063
316.808866951682;425.188523844175
316.830483773368;425.0754507449
316.852100595053;424.998533863203
316.873717416739;424.959228980156
316.895334238424;424.94116289572
316.916951060109;424.922926800947
316.938567881795;424.876138211082
316.96018470348;424.780884392876
316.981801525166;424.637391981941
317.003418346851;424.440599627824
317.025035168536;424.182953723925
317.046651990222;423.860378997893
317.068268811907;423.464875804898
317.089885633593;422.978081678
317.111502455278;422.421183744768
317.133119276963;421.824465198617
317.154736098649;421.209473925917
317.176352920334;420.583593565781
317.19796974202;419.968594657085
317.219586563705;419.393547152416
317.24120338539;418.871761580928
317.262820207076;418.41284288678
317.284437028761;418.036558125771
317.306053850446;417.749119011953
317.327670672132;417.534547615892
317.349287493817;417.383862589391
317.370904315503;417.284972169497
317.392521137188;417.213229021799
317.414137958873;417.157343333012
317.435754780559;417.11180930606
317.457371602244;417.058466892891
317.47898842393;416.980785674641
317.500605245615;416.887057270323
317.5222220673;416.77386487088
317.543838888986;416.61864873629
317.565455710671;416.408463504601
317.587072532357;416.146706617123
317.608689354042;415.839823511637
317.630306175727;415.476542003356
317.651922997413;415.029500789202
317.673539819098;414.479039813027
317.695156640784;413.83285982162
317.716773462469;413.102860981288
317.738390284154;412.286608872965
317.76000710584;411.370036588033
317.781623927525;410.341650756562
317.803240749211;409.197702495812
317.824857570896;407.936195022097
317.846474392581;406.560111558874
317.868091214267;405.099013545593
317.889708035952;403.656949973685
317.911324857638;402.286248621516
317.932941679323;401.004504562934
317.954558501008;399.835297966495
317.976175322694;398.765641160176
317.997792144379;397.768612291175
318.019408966064;396.834965301661
318.04102578775;395.975245653705
318.062642609435;395.222840547082
318.084259431121;394.582209952775
318.105876252806;394.012596902381
318.127493074491;393.497392414682
318.149109896177;393.052067227595
318.170726717862;392.66094702087
318.192343539548;392.299478021956
318.213960361233;391.955095952694
318.235577182918;391.634464475615
318.257194004604;391.347730183419
318.278810826289;391.103190567678
318.300427647975;390.907293824977
318.32204446966;390.751115119078
318.343661291345;390.622992146912
318.365278113031;390.521227424431
318.386894934716;390.44316363907
318.408511756402;390.374504427052
318.430128578087;390.302654888994
318.451745399772;390.223612278303
318.473362221458;390.128960943001
318.494979043143;390.009989219126
318.516595864829;389.859361548491
318.538212686514;389.677236314823
318.559829508199;389.459818750499
318.581446329885;389.197820522979
318.60306315157;388.889773021799
318.624679973256;388.550221492954
318.646296794941;388.194869200907
318.667913616626;387.828333864444
318.689530438312;387.451335472203
318.711147259997;387.058589736281
318.732764081682;386.650031841988
318.754380903368;386.236539192868
318.775997725053;385.821030127159
318.797614546739;385.377948428415
318.819231368424;384.889484666656
318.840848190109;384.356133382707
318.862465011795;383.804727663706
318.88408183348;383.235001693042
318.905698655166;382.625634666585
318.927315476851;381.974871138423
318.948932298536;381.303771240365
318.970549120222;380.636517383538
318.992165941907;379.985279215072
319.013782763593;379.358389892183
319.035399585278;378.776561437511
319.057016406963;378.291295185427
319.078633228649;377.908609806503
319.100250050334;377.599700247256
319.12186687202;377.350584848885
319.143483693705;377.166345390593
319.16510051539;377.039846420809
319.186717337076;376.942341529996
319.208334158761;376.846798855765
319.229950980447;376.740830377962
319.251567802132;376.614534588794
319.273184623817;376.451718924106
319.294801445503;376.233900540372
319.316418267188;375.957744988845
319.338035088874;375.624073603195
319.359651910559;375.207650330584
319.381268732244;374.683812558887
319.40288555393;374.063503330859
319.424502375615;373.398125312255
319.446119197301;372.733014980489
319.467736018986;372.060731214964
319.489352840671;371.361373433169
319.510969662357;370.633833999301
319.532586484042;369.916295894572
319.554203305728;369.231911387297
319.575820127413;368.580096842053
319.597436949098;367.958736219128
319.619053770784;367.384528609994
319.640670592469;366.860808337647
319.662287414154;366.370198143441
319.68390423584;365.896922008267
319.705521057525;365.449978695917
319.727137879211;365.030754979222
319.748754700896;364.629174446433
319.770371522581;364.233283925622
319.791988344267;363.835418532084
319.813605165952;363.431061976587
319.835221987638;363.010252246227
319.856838809323;362.558430598337
319.878455631008;362.075359632229
319.900072452694;361.557542580209
319.921689274379;361.041219944509
319.943306096065;360.548477950443
319.96492291775;360.080922615871
319.986539739435;359.640033898095
320.008156561121;359.236997220759
320.029773382806;358.87128361379
320.051390204492;358.542609858783
320.073007026177;358.262629233383
320.094623847862;358.050896256038
320.116240669548;357.911228858961
320.137857491233;357.846924295807
320.159474312919;357.85879297783
320.181091134604;357.954419025027
320.202707956289;358.139598473867
320.224324777975;358.401383196741
320.24594159966;358.725671217285
320.267558421346;359.106934303248
320.289175243031;359.533078845379
320.310792064716;359.969461765657
320.332408886402;360.389458068956
320.354025708087;360.775975394792
320.375642529773;361.093124048154
320.397259351458;361.312019691723
320.418876173143;361.410578064004
320.440492994829;361.366558202189
320.462109816514;361.162268525279
320.483726638199;360.789939271225
320.505343459885;360.251049319163
320.52696028157;359.542819428823
320.548577103256;358.664536724511
320.570193924941;357.640167470658
320.591810746626;356.511708036851
320.613427568312;355.30660851167
320.635044389997;354.050431805669
320.656661211683;352.777933364966
320.678278033368;351.516999821561
320.699894855053;350.271029066045
320.721511676739;349.023162844549
320.743128498424;347.776136945619
320.76474532011;346.5888315132
320.786362141795;345.517286261534
320.80797896348;344.538293595548
320.829595785166;343.613724754175
320.851212606851;342.715930380422
320.872829428537;341.842878609717
320.894446250222;340.984310561862
320.916063071907;340.126306647307
320.937679893593;339.256586137099
320.959296715278;338.354580911102
320.980913536964;337.414950493397
321.002530358649;336.433976458577
321.024147180334;335.367466800852
321.04576400202;334.134451360996
321.067380823705;332.720420730967
321.088997645391;331.169710489092
321.110614467076;329.503058660721
321.132231288761;327.740063205308
321.153848110447;325.911521961475
321.175464932132;324.013543702368
321.197081753817;322.007215741007
321.218698575503;319.949974813995
321.240315397188;317.987879064823
321.261932218874;316.17674373582
321.283549040559;314.462409359691
321.305165862244;312.789339532236
321.32678268393;311.194476613311
321.348399505615;309.818246075229
321.370016327301;308.727240900531
321.391633148986;307.870287542452
321.413249970671;307.17750458603
321.434866792357;306.621427956727
321.456483614042;306.213545562451
321.478100435728;305.956238348617
321.499717257413;305.825010183309
321.521334079098;305.789907358764
321.542950900784;305.828787082302
321.564567722469;305.921694710102
321.586184544155;306.051434070982
321.60780136584;306.213553082511
321.629418187525;306.403377161222
321.651035009211;306.606864911226
321.672651830896;306.808616617603
321.694268652582;306.993527919238
321.715885474267;307.159042136716
321.737502295952;307.295786348259
321.759119117638;307.4040373759
321.780735939323;307.484816811526
321.802352761009;307.532026242446
321.823969582694;307.538262011891
321.845586404379;307.501309825932
321.867203226065;307.420316182804
321.88882004775;307.291517470231
321.910436869436;307.121118092389
321.932053691121;306.92416824523
321.953670512806;306.706711846828
321.975287334492;306.470453917689
321.996904156177;306.221351600575
322.018520977862;305.961249835624
322.040137799548;305.680190142884
322.061754621233;305.389360223543
322.083371442919;305.125748613825
322.104988264604;304.924433964392
322.126605086289;304.775742403066
322.148221907975;304.658541618931
322.16983872966;304.572122568171
322.191455551346;304.525479705249
322.213072373031;304.525478121055
322.234689194716;304.568897811303
322.256306016402;304.646856073022
322.277922838087;304.758968429775
322.299539659773;304.894339537306
322.321156481458;305.036192366457
322.342773303143;305.174863079881
322.364390124829;305.304262057517
322.386006946514;305.421681279575
322.4076237682;305.521742109807
322.429240589885;305.58609228383
322.45085741157;305.596539248634
322.472474233256;305.544079998279
322.494091054941;305.437166233119
322.515707876627;305.265799662109
322.537324698312;305.022756076892
322.558941519997;304.710915315775
322.580558341683;304.315238488048
322.602175163368;303.823981021563
322.623791985054;303.249667565026
322.645408806739;302.63857741118
322.667025628424;302.00838738388
322.68864245011;301.357677344542
322.710259271795;300.696021127837
322.731876093481;300.049344110929
322.753492915166;299.429858888392
322.775109736851;298.836068700589
322.796726558537;298.280701649613
322.818343380222;297.771393314648
322.839960201908;297.323111189468
322.861577023593;296.944158559455
322.883193845278;296.629153359985
322.904810666964;296.358192276815
322.926427488649;296.110106724046
322.948044310334;295.87812172279
322.96966113202;295.670416073419
322.991277953705;295.483253461529
323.012894775391;295.305586791671
323.034511597076;295.127914841996
323.056128418761;294.947865078489
323.077745240447;294.770829570176
323.099362062132;294.597125032019
323.120978883818;294.419180308755
323.142595705503;294.229707753149
323.164212527188;294.029451514605
323.185829348874;293.825986206908
323.207446170559;293.614833032413
323.229062992245;293.389703922747
323.25067981393;293.159449778855
323.272296635615;292.925264232778
323.293913457301;292.671041357253
323.315530278986;292.380929048129
323.337147100672;292.065133881615
323.358763922357;291.729741132617
323.380380744042;291.361170587232
323.401997565728;290.949797075683
323.423614387413;290.499961580883
323.445231209099;290.013192138484
323.466848030784;289.48340488043
323.488464852469;288.897955276686
323.510081674155;288.252919346787
323.53169849584;287.562302291813
323.553315317526;286.83948102556
323.574932139211;286.098899007001
323.596548960896;285.345050295338
323.618165782582;284.588972791564
323.639782604267;283.837007768153
323.661399425952;283.075360077357
323.683016247638;282.302838125801
323.704633069323;281.569272940952
323.726249891009;280.893379134977
323.747866712694;280.262414903302
323.769483534379;279.648048103584
323.791100356065;279.026182834489
323.81271717775;278.416551767215
323.834333999436;277.848037018153
323.855950821121;277.30946195339
323.877567642806;276.781832449155
323.899184464492;276.249419825825
323.920801286177;275.732313188305
323.942418107863;275.254982933277
323.964034929548;274.793497930984
323.985651751233;274.328529014226
324.007268572919;273.872383509071
324.028885394604;273.446740031871
324.05050221629;273.037315899946
324.072119037975;272.621907392797
324.09373585966;272.204646796533
324.115352681346;271.807729937958
324.136969503031;271.430526893914
324.158586324717;271.062295368322
324.180203146402;270.704234389435
324.201819968087;270.340100520373
324.223436789773;269.946616691564
324.245053611458;269.50693228129
324.266670433144;269.021716558232
324.288287254829;268.501475866364
324.309904076514;267.932379789409
324.3315208982;267.303133838634
324.353137719885;266.626678360495
324.374754541571;265.910591440676
324.396371363256;265.15838880385
324.417988184941;264.388889235502
324.439605006627;263.624073413746
324.461221828312;262.871570516245
324.482838649997;262.121232718778
324.504455471683;261.356327540992
324.526072293368;260.578056653311
324.547689115054;259.799858636328
324.569305936739;259.041610995943
324.590922758424;258.291744765758
324.61253958011;257.533986035451
324.634156401795;256.772103707696
324.655773223481;256.000008937039
324.677390045166;255.188126907796
324.699006866851;254.324560063296
324.720623688537;253.433065657487
324.742240510222;252.545303213672
324.763857331908;251.664927102055
