Name;ESR_BC_1_14400s_Y_gon_100dg_result

Recipe
Accumulations;5;Number of accumulations
RetryCount;0;Number of retries on error
AbortOnError;True;Abort on error
EnableQFactorMeasurement;False;Enable/Disable q-Factor measurement
Bfrom;313;B from
Bto;363;B to
SweepTime;60;Sweep time
Modulation;0.2;Modulation
ModulationFreq;100;Modulation
BHoldEnabled;False;B hold enabled
BHold;0;B hold
MicrowavePower;2;Microwave power
MarkerEnabled;False;
MarkerStartField;0;
MarkerEndField;0;
Mode;;
KineticGFact;0;
KineticTotalTransientTime;0;
KineticTimeResolution;0;
TempFrom;5;
TempUseSlope;False;
TempTo;5;
TempdT;1;
TempSetupTime;0;
GonFrom;0;
GonTo;180;
GonSteps;20;
XRayEnabled;False;
XRayTime;3;
XRayVoltage;40;
XRayCurrent;0.5;
UVEnabled;False;
UVIntensity;0;
UVTime;0;
UVLeadTime;0;
UVWavelength;0;
PowSweepFrom;1;
PowSweepTo;5;
PowSweepSteps;5;
AmpModSweepFrom;0;
AmpModSweepTo;1;
AmpModSweepSteps;10;
ExtTriggerEnabled;False;
ExtTrigLeadTime;0;
ExtTrigOnTime;5;

Meas
BField [mT];MW_Absorption []
313.033711853027;200.101061198409
313.055336527835;199.694019998427
313.076961202642;199.215122107918
313.098585877449;198.654682475658
313.120210552257;198.004891405447
313.141835227064;197.273178095672
313.163459901872;196.487714555605
313.185084576679;195.663026310956
313.206709251486;194.820662615462
313.228333926294;193.983494834035
313.249958601101;193.160593658249
313.271583275909;192.365938489898
313.293207950716;191.631704491294
313.314832625523;190.962726886855
313.336457300331;190.370048885947
313.358081975138;189.857551586939
313.379706649945;189.407645256105
313.401331324753;189.042053922271
313.42295599956;188.797419852039
313.444580674368;188.647964890082
313.466205349175;188.564397824883
313.487830023982;188.532509939851
313.50945469879;188.526212351051
313.531079373597;188.524897914183
313.552704048405;188.517831141761
313.574328723212;188.495133626482
313.595953398019;188.446187845873
313.617578072827;188.36389680841
313.639202747634;188.240686971797
313.660827422441;188.075587156269
313.682452097249;187.880008390409
313.704076772056;187.667927888829
313.725701446864;187.457766103951
313.747326121671;187.26568434441
313.768950796478;187.09253046624
313.790575471286;186.938339285091
313.812200146093;186.816976735794
313.833824820901;186.750691161234
313.855449495708;186.738538405126
313.877074170515;186.772199492246
313.898698845323;186.83879378669
313.92032352013;186.918675035532
313.941948194937;187.001630590284
313.963572869745;187.078023138138
313.985197544552;187.143457296879
314.00682221936;187.183879594844
314.028446894167;187.182949770576
314.050071568974;187.123578057094
314.071696243782;187.00838577787
314.093320918589;186.848274105675
314.114945593397;186.635276827167
314.136570268204;186.369612120108
314.158194943011;186.075354054083
314.179819617819;185.789637870541
314.201444292626;185.526573311432
314.223068967433;185.285256936264
314.244693642241;185.070914804033
314.266318317048;184.908775490841
314.287942991856;184.803437176554
314.309567666663;184.734559121174
314.33119234147;184.685718364728
314.352817016278;184.646315175069
314.374441691085;184.584131293805
314.396066365893;184.474248666651
314.4176910407;184.309686183451
314.439315715507;184.097617161494
314.460940390315;183.832388783844
314.482565065122;183.486742842241
314.504189739929;183.052919575748
314.525814414737;182.553270821424
314.547439089544;182.010110265692
314.569063764352;181.413088474607
314.590688439159;180.76651501643
314.612313113966;180.101596956048
314.633937788774;179.436997271654
314.655562463581;178.781482226871
314.677187138388;178.174274634082
314.698811813196;177.628436324526
314.720436488003;177.141084648341
314.742061162811;176.725352966102
314.763685837618;176.365494496076
314.785310512425;176.050527942326
314.806935187233;175.776078386871
314.82855986204;175.547433575948
314.850184536848;175.366080979118
314.871809211655;175.230564107184
314.893433886462;175.131078493214
314.91505856127;175.047043600047
314.936683236077;174.955605869902
314.958307910885;174.844030290549
314.979932585692;174.703020410687
315.001557260499;174.564747481131
315.023181935307;174.4314396915
315.044806610114;174.27942235545
315.066431284921;174.086951204426
315.088055959729;173.849747043117
315.109680634536;173.570072312088
315.131305309344;173.251067793586
315.152929984151;172.908768394413
315.174554658958;172.546934478849
315.196179333766;172.152934115423
315.217804008573;171.727678557305
315.23942868338;171.277690408468
315.261053358188;170.795016200928
315.282678032995;170.266643237715
315.304302707803;169.700226930047
315.32592738261;169.12013143719
315.347552057417;168.543296055998
315.369176732225;167.957825957057
315.390801407032;167.346673733348
315.41242608184;166.696789077259
315.434050756647;166.006322478685
315.455675431454;165.308159424421
315.477300106262;164.637390670109
315.498924781069;163.991428793205
315.520549455876;163.352026430704
315.542174130684;162.716324613243
315.563798805491;162.09436183955
315.585423480299;161.505014271838
315.607048155106;160.967780958313
315.628672829913;160.482386022918
315.650297504721;160.045305423924
315.671922179528;159.67079856297
315.693546854336;159.377350326837
315.715171529143;159.152625906013
315.73679620395;158.966977746945
315.758420878758;158.801022961313
315.780045553565;158.657667732859
315.801670228372;158.535908449408
315.82329490318;158.414844161803
315.844919577987;158.282712023937
315.866544252795;158.127136591363
315.888168927602;157.958979430393
315.909793602409;157.789549934499
315.931418277217;157.615358914136
315.953042952024;157.420797126353
315.974667626832;157.188667019137
315.996292301639;156.914973235124
316.017916976446;156.602808417147
316.039541651254;156.245343672796
316.061166326061;155.878081792711
316.082791000868;155.521110047993
316.104415675676;155.164804365216
316.126040350483;154.796802339524
316.147665025291;154.403854339655
316.169289700098;153.977546908879
316.190914374905;153.535145545682
316.212539049713;153.114007201384
316.23416372452;152.707955130891
316.255788399328;152.314516405377
316.277413074135;151.93458443038
316.299037748942;151.563970080294
316.32066242375;151.204959193517
316.342287098557;150.855039355814
316.363911773364;150.508047330882
316.385536448172;150.163206572753
316.407161122979;149.823126998423
316.428785797787;149.493753591168
316.450410472594;149.181524957348
316.472035147401;148.885326681251
316.493659822209;148.607938301022
316.515284497016;148.353020127496
316.536909171823;148.121533551539
316.558533846631;147.918724754952
316.580158521438;147.747105845101
316.601783196246;147.601728533588
316.623407871053;147.469919882555
316.64503254586;147.341664797054
316.666657220668;147.211028766505
316.688281895475;147.073986196541
316.709906570283;146.931222213808
316.73153124509;146.785483813648
316.753155919897;146.62984228805
316.774780594705;146.454497997129
316.796405269512;146.254706071366
316.81802994432;146.036437895625
316.839654619127;145.79915584324
316.861279293934;145.542609312719
316.882903968742;145.281920951395
316.904528643549;145.020788800718
316.926153318356;144.760138318813
316.947777993164;144.498937826194
316.969402667971;144.2329775227
316.991027342779;143.955787425983
317.012652017586;143.667131641503
317.034276692393;143.369817699359
317.055901367201;143.071835172755
317.077526042008;142.784905558092
317.099150716815;142.507019511906
317.120775391623;142.233846558463
317.14240006643;141.972288301052
317.164024741238;141.718054126024
317.185649416045;141.459943683195
317.207274090852;141.195284313327
317.22889876566;140.917522472044
317.250523440467;140.615183065397
317.272148115275;140.274524904567
317.293772790082;139.903608808448
317.315397464889;139.499329602691
317.337022139697;139.055975231782
317.358646814504;138.582084352996
317.380271489311;138.090754882546
317.401896164119;137.58026351045
317.423520838926;137.025296443014
317.445145513734;136.435079331347
317.466770188541;135.873287130225
317.488394863348;135.362678657342
317.510019538156;134.909495150499
317.531644212963;134.522171734077
317.553268887771;134.184314268588
317.574893562578;133.893710621238
317.596518237385;133.669336636799
317.618142912193;133.521847278451
317.639767587;133.442110972202
317.661392261807;133.420653060364
317.683016936615;133.45481367337
317.704641611422;133.540063302027
317.72626628623;133.663221516907
317.747890961037;133.806471275037
317.769515635844;133.955686209493
317.791140310652;134.105588648299
317.812764985459;134.26300267426
317.834389660267;134.429060549982
317.856014335074;134.587851978407
317.877639009881;134.72086965023
317.899263684689;134.822478199516
317.920888359496;134.897339141477
317.942513034303;134.945927671471
317.964137709111;134.958967783648
317.985762383918;134.928520802981
318.007387058726;134.856626787431
318.029011733533;134.750616607594
318.05063640834;134.611802297486
318.072261083148;134.442673947347
318.093885757955;134.257989200681
318.115510432763;134.077943300218
318.13713510757;133.911737131558
318.158759782377;133.772456437823
318.180384457185;133.670527815695
318.202009131992;133.601023084661
318.223633806799;133.568114185907
318.245258481607;133.589756204843
318.266883156414;133.665790591491
318.288507831222;133.78049177081
318.310132506029;133.921924875176
318.331757180836;134.079642209091
318.353381855644;134.243306838068
318.375006530451;134.405833609612
318.396631205258;134.563674545473
318.418255880066;134.709958428513
318.439880554873;134.837110390638
318.461505229681;134.933816797881
318.483129904488;134.99939268441
318.504754579295;135.045865928297
318.526379254103;135.087132015057
318.54800392891;135.132789778095
318.569628603718;135.175753706875
318.591253278525;135.207411383887
318.612877953332;135.225296681248
318.63450262814;135.233008762553
318.656127302947;135.230296759982
318.677751977755;135.210388516136
318.699376652562;135.169500457946
318.721001327369;135.106138070224
318.742626002177;135.020932181394
318.764250676984;134.925492266814
318.785875351791;134.83167116718
318.807500026599;134.737419817502
318.829124701406;134.628448368934
318.850749376214;134.49924061219
318.872374051021;134.361238349814
318.893998725828;134.225209433866
318.915623400636;134.096508633268
318.937248075443;133.971612789442
318.95887275025;133.837578174358
318.980497425058;133.68420574894
319.002122099865;133.514312006777
319.023746774673;133.331906313564
319.04537144948;133.131675557422
319.066996124287;132.913648072321
319.088620799095;132.682733676294
319.110245473902;132.438160381169
319.13187014871;132.181217103316
319.153494823517;131.926898147844
319.175119498324;131.697390640831
319.196744173132;131.499728106643
319.218368847939;131.329776139966
319.239993522746;131.186388043956
319.261618197554;131.077487493893
319.283242872361;131.002261757509
319.304867547169;130.95068566622
319.326492221976;130.918151586157
319.348116896783;130.907932908009
319.369741571591;130.917544110913
319.391366246398;130.930708246997
319.412990921206;130.934868801599
319.434615596013;130.925388392625
319.45624027082;130.895020440447
319.477864945628;130.828668916346
319.499489620435;130.710267290437
319.521114295242;130.544010100702
319.54273897005;130.360065775218
319.564363644857;130.17261086598
319.585988319665;129.992730872187
319.607612994472;129.833992880107
319.629237669279;129.696796960291
319.650862344087;129.57202300235
319.672487018894;129.466499164188
319.694111693702;129.383413705148
319.715736368509;129.333709107429
319.737361043316;129.337359464614
319.758985718124;129.388249481222
319.780610392931;129.459161130516
319.802235067738;129.544770859101
319.823859742546;129.649297792699
319.845484417353;129.765089828955
319.867109092161;129.875940703688
319.888733766968;129.975359238726
319.910358441775;130.057446238287
319.931983116583;130.120823108359
319.95360779139;130.168180491383
319.975232466198;130.206313930902
319.996857141005;130.231204536071
320.018481815812;130.225542662815
320.04010649062;130.188450357799
320.061731165427;130.123549674472
320.083355840234;130.035183000644
320.104980515042;129.926123070705
320.126605189849;129.798029847094
320.148229864657;129.656766485775
320.169854539464;129.501645291631
320.191479214271;129.338033611967
320.213103889079;129.178474640476
320.234728563886;129.028495526074
320.256353238694;128.894776461933
320.277977913501;128.77958643375
320.299602588308;128.693026151101
320.321227263116;128.6294283335
320.342851937923;128.576128898775
320.36447661273;128.526911623489
320.386101287538;128.482529929204
320.407725962345;128.43932503708
320.429350637153;128.390415456997
320.45097531196;128.331246206006
320.472599986767;128.25532911788
320.494224661575;128.153171973608
320.515849336382;128.022887359471
320.537474011189;127.855023367095
320.559098685997;127.650326517945
320.580723360804;127.414920349189
320.602348035612;127.141609370383
320.623972710419;126.820342283229
320.645597385226;126.457101303966
320.667222060034;126.059630578839
320.688846734841;125.633546374745
320.710471409649;125.204046045297
320.732096084456;124.796255362299
320.753720759263;124.414000866122
320.775345434071;124.047759007764
320.796970108878;123.695025847027
320.818594783685;123.37580372442
320.840219458493;123.110681487841
320.8618441333;122.893342441413
320.883468808108;122.71029269096
320.905093482915;122.563135051805
320.926718157722;122.462781725653
320.94834283253;122.409537280629
320.969967507337;122.389760341587
320.991592182145;122.394978898832
321.013216856952;122.417103590473
321.034841531759;122.454157986923
321.056466206567;122.511830920548
321.078090881374;122.597822331754
321.099715556181;122.719083654556
321.121340230989;122.880976289902
321.142964905796;123.088713922727
321.164589580604;123.345807661577
321.186214255411;123.640955692999
321.207838930218;123.954453451951
321.229463605026;124.287112836371
321.251088279833;124.647088199182
321.272712954641;125.019069188055
321.294337629448;125.372355393753
321.315962304255;125.678163320259
321.337586979063;125.920832958
321.35921165387;126.09949215006
321.380836328677;126.220496066139
321.402461003485;126.282526481825
321.424085678292;126.269171257824
321.4457103531;126.17455722737
321.467335027907;125.999843995668
321.488959702714;125.74823525151
321.510584377522;125.430215543938
321.532209052329;125.068918533769
321.553833727137;124.680911939223
321.575458401944;124.26557825432
321.597083076751;123.824858397363
321.618707751559;123.375167174456
321.640332426366;122.926038751072
321.661957101173;122.488641868116
321.683581775981;122.079133090017
321.705206450788;121.702737199227
321.726831125596;121.36551527551
321.748455800403;121.057315236387
321.77008047521;120.767700877246
321.791705150018;120.492875088865
321.813329824825;120.222273802431
321.834954499632;119.949180645279
321.85657917444;119.677686736411
321.878203849247;119.403770531472
321.899828524055;119.114077195197
321.921453198862;118.789927617027
321.943077873669;118.405336713567
321.964702548477;117.932339326087
321.986327223284;117.375635274049
322.007951898092;116.767594715251
322.029576572899;116.114384218617
322.051201247706;115.414787136479
322.072825922514;114.66489033363
322.094450597321;113.858890559509
322.116075272129;113.008803131147
322.137699946936;112.134203465318
322.159324621743;111.247383180588
322.180949296551;110.373574011142
322.202573971358;109.563702874739
322.224198646165;108.83310119726
322.245823320973;108.149421257785
322.26744799578;107.507305479875
322.289072670588;106.93742925859
322.310697345395;106.461695797275
322.332322020202;106.070768105536
322.35394669501;105.746185309386
322.375571369817;105.482679688367
322.397196044624;105.293875717227
322.418820719432;105.189694375916
322.440445394239;105.161293196614
322.462070069047;105.199510881538
322.483694743854;105.304154376534
322.505319418661;105.471125980645
322.526944093469;105.690913740112
322.548568768276;105.950152381508
322.570193443084;106.232470279517
322.591818117891;106.52500939588
322.613442792698;106.815327283375
322.635067467506;107.073469873559
322.656692142313;107.283521072696
322.67831681712;107.447167444459
322.699941491928;107.57175752557
322.721566166735;107.663677210313
322.743190841543;107.725397516152
322.76481551635;107.757123526207
322.786440191157;107.768134409063
322.808064865965;107.774190258089
322.829689540772;107.791117907991
322.85131421558;107.830664360479
322.872938890387;107.889669503214
322.894563565194;107.94963797782
322.916188240002;108.00353677473
322.937812914809;108.056685728676
322.959437589616;108.113383853055
322.981062264424;108.170343290301
323.002686939231;108.21610318004
323.024311614039;108.241950541631
323.045936288846;108.247001043197
323.067560963653;108.216185652207
323.089185638461;108.140822386783
323.110810313268;108.026927219331
323.132434988076;107.878712268118
323.154059662883;107.694092148133
323.17568433769;107.47545887083
323.197309012498;107.234637244191
323.218933687305;106.992082585641
323.240558362112;106.752304106405
323.26218303692;106.511327718794
323.283807711727;106.261598257978
323.305432386535;105.999281269935
323.327057061342;105.744984632533
323.348681736149;105.507058596416
323.370306410957;105.274517492827
323.391931085764;105.026849344228
323.413555760572;104.753565032404
323.435180435379;104.477816750292
323.456805110186;104.207638668434
323.478429784994;103.94221620463
323.500054459801;103.679820302555
323.521679134608;103.426024957397
323.543303809416;103.18664545536
323.564928484223;102.969251880583
323.586553159031;102.780006592408
323.608177833838;102.616961152404
323.629802508645;102.46510993076
323.651427183453;102.324439897996
323.67305185826;102.195024911163
323.694676533067;102.060080002184
323.716301207875;101.911766265576
323.737925882682;101.754458992272
323.75955055749;101.577761009183
323.781175232297;101.355391395012
323.802799907104;101.077135685694
323.824424581912;100.754975370821
323.846049256719;100.396110974005
323.867673931527;99.9979581604616
323.889298606334;99.5492603861616
323.910923281141;99.0339705491089
323.932547955949;98.4729768507571
323.954172630756;97.9525169215523
323.975797305564;97.4937697563319
323.997421980371;97.0497405955265
324.019046655178;96.6017423219592
324.040671329986;96.1912664716755
324.062296004793;95.8375013807067
324.0839206796;95.5295144578414
324.105545354408;95.2563373408713
324.127170029215;95.0182554413663
324.148794704023;94.8268861022228
324.17041937883;94.6749300430501
324.192044053637;94.5561598802792
324.213668728445;94.4548278222501
324.235293403252;94.363966479824
324.256918078059;94.2851186129388
324.278542752867;94.2180230069084
324.300167427674;94.1557048582894
324.321792102482;94.0894245878065
324.343416777289;94.0146997172281
324.365041452096;93.9263568937237
324.386666126904;93.82285966544
324.408290801711;93.7009211448177
324.429915476519;93.54664601391
324.451540151326;93.3802697403664
324.473164826133;93.210839563268
324.494789500941;93.0262502424278
324.516414175748;92.8223015570353
324.538038850555;92.5906475078557
324.559663525363;92.3202653724168
324.58128820017;92.0276848099473
324.602912874978;91.7318579696945
324.624537549785;91.4389316746628
324.646162224592;91.1459130987632
324.6677868994;90.8533130992273
324.689411574207;90.5687803406875
324.711036249015;90.2939282470241
324.732660923822;90.0368619065266
324.754285598629;89.8080419262643
324.775910273437;89.6189076297147
324.797534948244;89.4718556047423
