Name;ESR_BC_1_3600s_Z_gon_20dg_result

Recipe
Accumulations;5;Number of accumulations
RetryCount;0;Number of retries on error
AbortOnError;True;Abort on error
EnableQFactorMeasurement;False;Enable/Disable q-Factor measurement
Bfrom;313;B from
Bto;363;B to
SweepTime;60;Sweep time
Modulation;0.2;Modulation
ModulationFreq;100;Modulation
BHoldEnabled;False;B hold enabled
BHold;0;B hold
MicrowavePower;2;Microwave power
MarkerEnabled;False;
MarkerStartField;0;
MarkerEndField;0;
Mode;;
KineticGFact;0;
KineticTotalTransientTime;0;
KineticTimeResolution;0;
TempFrom;5;
TempUseSlope;False;
TempTo;5;
TempdT;1;
TempSetupTime;0;
GonFrom;0;
GonTo;180;
GonSteps;20;
XRayEnabled;False;
XRayTime;3;
XRayVoltage;40;
XRayCurrent;0.5;
UVEnabled;False;
UVIntensity;0;
UVTime;0;
UVLeadTime;0;
UVWavelength;0;
PowSweepFrom;1;
PowSweepTo;5;
PowSweepSteps;5;
AmpModSweepFrom;0;
AmpModSweepTo;1;
AmpModSweepSteps;10;
ExtTriggerEnabled;False;
ExtTrigLeadTime;0;
ExtTrigOnTime;5;

Meas
BField [mT];MW_Absorption []
313.025523452759;81.0658061704097
313.047147808686;80.6289399429027
313.068772164613;80.2775182171207
313.09039652054;80.001330873018
313.112020876467;79.8217217974487
313.133645232395;79.7549573974749
313.155269588322;79.7986196753708
313.176893944249;79.9353314661121
313.198518300176;80.1563874015077
313.220142656103;80.4725882514221
313.24176701203;80.8727908110024
313.263391367958;81.3461530776881
313.285015723885;81.8823531771379
313.306640079812;82.447556167132
313.328264435739;83.0162207005653
313.349888791666;83.5674645357834
313.371513147594;84.0923307484014
313.393137503521;84.5766622968954
313.414761859448;85.0023184015644
313.436386215375;85.3407328414575
313.458010571302;85.5707475290493
313.479634927229;85.6998094827514
313.501259283157;85.7325546971107
313.522883639084;85.6666353429121
313.544507995011;85.5151652919132
313.566132350938;85.3079924151379
313.587756706865;85.0573979789953
313.609381062792;84.7679358339917
313.63100541872;84.4504649253522
313.652629774647;84.1209794486149
313.674254130574;83.7999237750098
313.695878486501;83.5026882000819
313.717502842428;83.2376645907485
313.739127198356;83.0246164784551
313.760751554283;82.8778069483721
313.78237591021;82.7910338831271
313.804000266137;82.7587763202671
313.825624622064;82.7906054296214
313.847248977991;82.8792248688326
313.868873333919;83.0178659548111
313.890497689846;83.184624963173
313.912122045773;83.3724194410439
313.9337464017;83.5784599210835
313.955370757627;83.7955387545917
313.976995113554;84.0118277962108
313.998619469482;84.213836667919
314.020243825409;84.3867132951158
314.041868181336;84.530254161638
314.063492537263;84.6410173192385
314.08511689319;84.7054546933766
314.106741249117;84.7127021496498
314.128365605045;84.6704355645581
314.149989960972;84.5895562955199
314.171614316899;84.4719262181963
314.193238672826;84.3205211789014
314.214863028753;84.1400462832431
314.236487384681;83.9363414354161
314.258111740608;83.7226121665503
314.279736096535;83.5133784594227
314.301360452462;83.3087828427162
314.322984808389;83.1094319409254
314.344609164316;82.9198129341307
314.366233520244;82.7435189083481
314.387857876171;82.5944791921432
314.409482232098;82.4829816002155
314.431106588025;82.4054046034516
314.452730943952;82.3583046272799
314.474355299879;82.3362412127306
314.495979655807;82.3357264247858
314.517604011734;82.3541380955896
314.539228367661;82.3882089981927
314.560852723588;82.4288402183156
314.582477079515;82.4641767051419
314.604101435442;82.4930540273908
314.62572579137;82.5266993709878
314.647350147297;82.5709688517869
314.668974503224;82.6220930814406
314.690598859151;82.6759561389469
314.712223215078;82.7198535795188
314.733847571006;82.7640355194191
314.755471926933;82.8211376087545
314.77709628286;82.8858613286584
314.798720638787;82.9498062046009
314.820344994714;83.0109424123022
314.841969350641;83.0740699044118
314.863593706569;83.1400796296447
314.885218062496;83.2056749707984
314.906842418423;83.2627491789301
314.92846677435;83.3019292813806
314.950091130277;83.3206759186353
314.971715486204;83.3184781735672
314.993339842132;83.2893307635298
315.014964198059;83.2242811471495
315.036588553986;83.124890847863
315.058212909913;82.986982738407
315.07983726584;82.8010840115721
315.101461621768;82.5680677967086
315.123085977695;82.3029798833852
315.144710333622;82.0139672456968
315.166334689549;81.6993058528474
315.187959045476;81.3470753700284
315.209583401403;80.9400172129831
315.231207757331;80.4922646933315
315.252832113258;80.0545130597817
315.274456469185;79.6511300593905
315.296080825112;79.2659145972399
315.317705181039;78.8816509757476
315.339329536966;78.4962750712458
315.360953892894;78.1145199534362
315.382578248821;77.736784040485
315.404202604748;77.3719062892271
315.425826960675;77.0451746854732
315.447451316602;76.758566614824
315.469075672529;76.5009945243129
315.490700028457;76.2680540263277
315.512324384384;76.0628730832449
315.533948740311;75.8930787781399
315.555573096238;75.7603702060373
315.577197452165;75.6635443304782
315.598821808093;75.6022505629712
315.62044616402;75.5691158024906
315.642070519947;75.5551607377493
315.663694875874;75.5663783769636
315.685319231801;75.6048533733976
315.706943587728;75.6636216161937
315.728567943656;75.7396854236359
315.750192299583;75.8305612373218
315.77181665551;75.9399713233608
315.793441011437;76.0720802727585
315.815065367364;76.2266869641966
315.836689723291;76.4013978444019
315.858314079219;76.596875313799
315.879938435146;76.8065781454521
315.901562791073;77.020570237752
315.923187147;77.2360413023467
315.944811502927;77.4547293837202
315.966435858854;77.6827262542489
315.988060214782;77.9200431601647
316.009684570709;78.1515775942184
316.031308926636;78.3743989492482
316.052933282563;78.5981948675557
316.07455763849;78.8260740252781
316.096181994418;79.0468357625313
316.117806350345;79.2532566674491
316.139430706272;79.4428246023917
316.161055062199;79.6068987178306
316.182679418126;79.738035948755
316.204303774053;79.8292868713936
316.225928129981;79.8907737636169
316.247552485908;79.9238751373851
316.269176841835;79.9216917702063
316.290801197762;79.8769563357528
316.312425553689;79.7874462062876
316.334049909616;79.6463770381426
316.355674265544;79.4552605641177
316.377298621471;79.2275205668742
316.398922977398;78.9632247265723
316.420547333325;78.6509012428685
316.442171689252;78.2898527244913
316.463796045179;77.8910986062898
316.485420401107;77.4607862706598
316.507044757034;76.9990130839226
316.528669112961;76.5130211286871
316.550293468888;76.0183796247978
316.571917824815;75.5346592168101
316.593542180743;75.0813850406853
316.61516653667;74.6710481713349
316.636790892597;74.3130455549912
316.658415248524;74.0189801122625
316.680039604451;73.8008134673836
316.701663960378;73.6656165231565
316.723288316306;73.6166318999079
316.744912672233;73.6506055772609
316.76653702816;73.7544623355094
316.788161384087;73.9126968258896
316.809785740014;74.1092384043056
316.831410095941;74.3127112683956
316.853034451869;74.4948686772114
316.874658807796;74.6510987945863
316.896283163723;74.7825084921937
316.91790751965;74.8789338142516
316.939531875577;74.9319556205548
316.961156231504;74.943744029362
316.982780587432;74.9186785016748
317.004404943359;74.8565831159574
317.026029299286;74.7616493531429
317.047653655213;74.6465315937681
317.06927801114;74.5187235891797
317.090902367068;74.3825193933811
317.112526722995;74.2416756230873
317.134151078922;74.0951322898562
317.155775434849;73.9408658980342
317.177399790776;73.7794923921317
317.199024146703;73.625943535142
317.220648502631;73.4898795737063
317.242272858558;73.3623802376306
317.263897214485;73.2420793470971
317.285521570412;73.1308384630391
317.307145926339;73.0378777821974
317.328770282266;72.9750261407916
317.350394638194;72.951763672632
317.372018994121;72.9705180655602
317.393643350048;73.0330288982717
317.415267705975;73.138365403213
317.436892061902;73.287162645447
317.458516417829;73.4794642287338
317.480140773757;73.7078088642446
317.501765129684;73.9578492064367
317.523389485611;74.207558732805
317.545013841538;74.4352151503516
317.566638197465;74.6317747893168
317.588262553393;74.7972347791977
317.60988690932;74.9404600469426
317.631511265247;75.0649258043651
317.653135621174;75.153146954248
317.674759977101;75.2001139932665
317.696384333028;75.215361696487
317.718008688956;75.2127241468598
317.739633044883;75.203403862851
317.76125740081;75.1972758524707
317.782881756737;75.2021858493922
317.804506112664;75.2201822425198
317.826130468591;75.2541671277442
317.847754824519;75.3020158181018
317.869379180446;75.3714778638081
317.891003536373;75.4645102897638
317.9126278923;75.5794715534334
317.934252248227;75.7203551348213
317.955876604154;75.8882066806914
317.977500960082;76.0741569767053
317.999125316009;76.2712936018148
318.020749671936;76.4798612908183
318.042374027863;76.7031531881099
318.06399838379;76.9350927471184
318.085622739718;77.1585018247235
318.107247095645;77.3612792215847
318.128871451572;77.5432929126917
318.150495807499;77.7153546335046
318.172120163426;77.8870171555813
318.193744519353;78.0492248619262
318.215368875281;78.1897299902706
318.236993231208;78.3123936479375
318.258617587135;78.4264464070063
318.280241943062;78.5374909191479
318.301866298989;78.6432351971569
318.323490654916;78.7383952271373
318.345115010844;78.8227191634437
318.366739366771;78.897206095139
318.388363722698;78.9601217351223
318.409988078625;78.9975268320582
318.431612434552;78.9984083955804
318.453236790479;78.9524698840496
318.474861146407;78.851053895243
318.496485502334;78.688242318088
318.518109858261;78.4581770519642
318.539734214188;78.162015046249
318.561358570115;77.817883105416
318.582982926043;77.4326295120708
318.60460728197;76.9900158263996
318.626231637897;76.5163995236183
318.647855993824;76.0427687453036
318.669480349751;75.5817305452554
318.691104705678;75.1313960041946
318.712729061606;74.6856150275099
318.734353417533;74.2489984846731
318.75597777346;73.8477421936308
318.777602129387;73.4884231496396
318.799226485314;73.1558671480126
318.820850841241;72.8487018854596
318.842475197169;72.5719831282394
318.864099553096;72.3183100089519
318.885723909023;72.076222882316
318.90734826495;71.8425228583573
318.928972620877;71.6244670538805
318.950596976804;71.4249152499081
318.972221332732;71.2403604452917
318.993845688659;71.071370869955
319.015470044586;70.9200609061299
319.037094400513;70.7841339466914
319.05871875644;70.6605382914988
319.080343112368;70.5485034387856
319.101967468295;70.453950616455
319.123591824222;70.3798568581677
319.145216180149;70.3265456044059
319.166840536076;70.2939859002608
319.188464892003;70.2821329349151
319.210089247931;70.2937633664342
319.231713603858;70.3332757300263
319.253337959785;70.4086230802155
319.274962315712;70.5169466411917
319.296586671639;70.6425383056246
319.318211027566;70.7897283732711
319.339835383494;70.9612719429469
319.361459739421;71.1531985731899
319.383084095348;71.363081729802
319.404708451275;71.5863926168647
319.426332807202;71.8273085680311
319.44795716313;72.0913566442238
319.469581519057;72.3819647851629
319.491205874984;72.6851566051989
319.512830230911;72.9851849041485
319.534454586838;73.2864476888352
319.556078942765;73.5964560531299
319.577703298693;73.9271180237362
319.59932765462;74.2813905572618
319.620952010547;74.6461856064317
319.642576366474;74.9938493337716
319.664200722401;75.3278381608816
319.685825078328;75.675377388579
319.707449434256;76.050186540889
319.729073790183;76.4248056568203
319.75069814611;76.7672743977634
319.772322502037;77.0705842254987
319.793946857964;77.3463582391934
319.815571213891;77.5850878204985
319.837195569819;77.7752269143636
319.858819925746;77.9116933398416
319.880444281673;77.9957179702674
319.9020686376;78.0152395898683
319.923692993527;77.9602466114752
319.945317349455;77.8356394115957
319.966941705382;77.6549394034851
319.988566061309;77.435122720032
320.010190417236;77.1849145178619
320.031814773163;76.9084445372241
320.05343912909;76.6131275432255
320.075063485018;76.3082180963905
320.096687840945;75.9992648926762
320.118312196872;75.6836046097907
320.139936552799;75.357202075609
320.161560908726;75.0166006565606
320.183185264653;74.6665622190559
320.204809620581;74.3086226377419
320.226433976508;73.9449702045114
320.248058332435;73.5763416295156
320.269682688362;73.2018912129228
320.291307044289;72.8441661974335
320.312931400216;72.5201931938276
320.334555756144;72.220573640991
320.356180112071;71.9374516103584
320.377804467998;71.6764011519391
320.399428823925;71.4497117008907
320.421053179852;71.258412150594
320.44267753578;71.1012911926151
320.464301891707;70.9802517757796
320.485926247634;70.894543349353
320.507550603561;70.8423311485043
320.529174959488;70.8298918207487
320.550799315415;70.850291177657
320.572423671343;70.8941326786625
320.59404802727;70.9654957466191
320.615672383197;71.0747968960549
320.637296739124;71.210263252294
320.658921095051;71.3463675621875
320.680545450978;71.4791024972644
320.702169806906;71.6106480628855
320.723794162833;71.7373869095806
320.74541851876;71.8553952030746
320.767042874687;71.9566781301791
320.788667230614;72.0291525205215
320.810291586542;72.0637998903411
320.831915942469;72.060298524941
320.853540298396;72.0200024222432
320.875164654323;71.9429145430575
320.89678901025;71.830062853852
320.918413366177;71.6839661601163
320.940037722105;71.5123872988374
320.961662078032;71.3188927159372
320.983286433959;71.0983261884403
321.004910789886;70.8415222782314
321.026535145813;70.5459475392486
321.04815950174;70.2324256510834
321.069783857668;69.9235724561289
321.091408213595;69.6146057386897
321.113032569522;69.2949056672347
321.134656925449;68.9588127848225
321.156281281376;68.6001510512697
321.177905637303;68.2317322277416
321.199529993231;67.8853728600701
321.221154349158;67.5530839725574
321.242778705085;67.2191121795421
321.264403061012;66.8860529587429
321.286027416939;66.5673200651258
321.307651772867;66.2621577513795
321.329276128794;65.9625049756691
321.350900484721;65.6752236050774
321.372524840648;65.4169790510905
321.394149196575;65.1928767186933
321.415773552502;64.9952736850747
321.43739790843;64.8155290468232
321.459022264357;64.6538195155783
321.480646620284;64.517358024024
321.502270976211;64.4079414891027
321.523895332138;64.3196322269171
321.545519688065;64.2476884409777
321.567144043993;64.1867005128891
321.58876839992;64.1281921244054
321.610392755847;64.0643820024581
321.632017111774;63.9816972529278
321.653641467701;63.8640914092219
321.675265823628;63.6993318193747
321.696890179556;63.4924117792183
321.718514535483;63.2752363126634
321.74013889141;63.0727917267363
321.761763247337;62.8754688667684
321.783387603264;62.6703266041385
321.805011959192;62.452510319247
321.826636315119;62.2368964994595
321.848260671046;62.0318316548223
321.869885026973;61.8381577867311
321.8915093829;61.6436957619048
321.913133738827;61.4349171599969
321.934758094755;61.2098662957196
321.956382450682;60.9679269175439
321.978006806609;60.7003572558826
321.999631162536;60.4062228413592
322.021255518463;60.0885010763135
322.04287987439;59.7456617526643
322.064504230318;59.3802945406598
322.086128586245;59.0150131865409
322.107752942172;58.674807593763
322.129377298099;58.3659270087604
322.151001654026;58.0865067231249
322.172626009953;57.8406554142778
322.194250365881;57.6304498544618
322.215874721808;57.4540646787609
322.237499077735;57.3097789019735
322.259123433662;57.1910675713723
322.280747789589;57.0834305728985
322.302372145517;56.9765705148568
322.323996501444;56.8680982677863
322.345620857371;56.7579028200529
322.367245213298;56.6477897008306
322.388869569225;56.540844672173
322.410493925152;56.4332842037355
322.43211828108;56.313898450343
322.453742637007;56.1827427532712
322.475366992934;56.0556204733419
322.496991348861;55.9464995175051
322.518615704788;55.8578193292484
322.540240060715;55.7877513403842
322.561864416643;55.7335389593987
322.58348877257;55.6909821506493
322.605113128497;55.6541297092131
322.626737484424;55.6267175533332
322.648361840351;55.6197689402334
322.669986196279;55.6290682127734
322.691610552206;55.6393441734145
322.713234908133;55.6366475443192
322.73485926406;55.6213483381448
322.756483619987;55.6004436878894
322.778107975914;55.576778683635
322.799732331842;55.546411411935
322.821356687769;55.5085510277675
322.842981043696;55.469149852936
322.864605399623;55.4317810778825
322.88622975555;55.3999692263752
322.907854111477;55.3731892278909
322.929478467405;55.3509277170935
322.951102823332;55.3433162235981
322.972727179259;55.3550359089116
322.994351535186;55.380159998753
323.015975891113;55.4168380073234
323.03760024704;55.4669853338244
323.059224602968;55.5310116859297
323.080848958895;55.601224677926
323.102473314822;55.6740345692864
323.124097670749;55.7499515577387
323.145722026676;55.8278991225753
323.167346382603;55.9084733888946
323.188970738531;55.9928218869971
323.210595094458;56.0832502772198
323.232219450385;56.1797093273167
323.253843806312;56.2811967794173
323.275468162239;56.3860697856384
323.297092518167;56.4933898619092
323.318716874094;56.5958113529767
323.340341230021;56.6867603945996
323.361965585948;56.773972530416
323.383589941875;56.8676645084046
323.405214297802;56.962593464223
323.42683865373;57.0510923158434
323.448463009657;57.1326889185602
323.470087365584;57.2076849535866
323.491711721511;57.2664528817804
323.513336077438;57.3079073807042
323.534960433365;57.3373034535034
323.556584789293;57.3568459185605
323.57820914522;57.3674723725692
323.599833501147;57.3686156888856
323.621457857074;57.3583967389676
323.643082213001;57.3366951194257
323.664706568928;57.3043456251997
323.686330924856;57.2581103168954
323.707955280783;57.1916267178063
323.72957963671;57.1201209250558
323.751203992637;57.0589182083672
323.772828348564;56.9964603218397
323.794452704492;56.9081906028591
323.816077060419;56.7836753401329
323.837701416346;56.6289115234697
323.859325772273;56.4442519395232
323.8809501282;56.2222751086931
323.902574484127;55.9551912580643
323.924198840055;55.6467260939631
323.945823195982;55.3116824751365
323.967447551909;54.9464290417976
323.989071907836;54.5291944551546
324.010696263763;54.03661324544
324.03232061969;53.4912027647226
324.053944975618;52.9367949284166
324.075569331545;52.3529013984817
324.097193687472;51.7245800646667
324.118818043399;51.0800951514633
324.140442399326;50.4332466387
324.162066755253;49.7855396626287
324.183691111181;49.1656732526029
324.205315467108;48.5834588441031
324.226939823035;48.0466794158055
324.248564178962;47.5644855503431
324.270188534889;47.1328877534344
324.291812890817;46.7623898862433
324.313437246744;46.4621792966894
324.335061602671;46.2406465505312
324.356685958598;46.106758406038
324.378310314525;46.0632117154845
324.399934670452;46.1107621943844
324.42155902638;46.2408640727118
324.443183382307;46.4477534108789
324.464807738234;46.7337638543844
324.486432094161;47.0977608386117
324.508056450088;47.4967083728649
324.529680806015;47.9192429708021
324.551305161943;48.3649747785721
324.57292951787;48.8335846719621
324.594553873797;49.3109937606989
324.616178229724;49.770944778669
324.637802585651;50.205876013952
324.659426941578;50.6165446707463
324.681051297506;51.0004915448903
324.702675653433;51.3589673033725
324.72430000936;51.6921442734768
324.745924365287;51.9974985022196
324.767548721214;52.2463312741273
324.789173077142;52.4199154314054
