Name;ESR_BC_1_7200s_Z_gon_180dg_result

Recipe
Accumulations;5;Number of accumulations
RetryCount;0;Number of retries on error
AbortOnError;True;Abort on error
EnableQFactorMeasurement;False;Enable/Disable q-Factor measurement
Bfrom;313;B from
Bto;363;B to
SweepTime;60;Sweep time
Modulation;0.2;Modulation
ModulationFreq;100;Modulation
BHoldEnabled;False;B hold enabled
BHold;0;B hold
MicrowavePower;2;Microwave power
MarkerEnabled;False;
MarkerStartField;0;
MarkerEndField;0;
Mode;;
KineticGFact;0;
KineticTotalTransientTime;0;
KineticTimeResolution;0;
TempFrom;5;
TempUseSlope;False;
TempTo;5;
TempdT;1;
TempSetupTime;0;
GonFrom;0;
GonTo;180;
GonSteps;20;
XRayEnabled;False;
XRayTime;3;
XRayVoltage;40;
XRayCurrent;0.5;
UVEnabled;False;
UVIntensity;0;
UVTime;0;
UVLeadTime;0;
UVWavelength;0;
PowSweepFrom;1;
PowSweepTo;5;
PowSweepSteps;5;
AmpModSweepFrom;0;
AmpModSweepTo;1;
AmpModSweepSteps;10;
ExtTriggerEnabled;False;
ExtTrigLeadTime;0;
ExtTrigOnTime;5;

Meas
BField [mT];MW_Absorption []
313.017201538086;74.4395012663724
313.038825316419;73.9554993687951
313.060449094752;73.5943456846774
313.082072873085;73.4011762481371
313.103696651417;73.3632006707492
313.12532042975;73.421600450458
313.146944208083;73.5407782314924
313.168567986416;73.7050423841045
313.190191764749;73.8847066586657
313.211815543082;74.0538769810514
313.233439321415;74.1997012815192
313.255063099748;74.303650034076
313.276686878081;74.3520014212234
313.298310656413;74.3441581308585
313.319934434746;74.2823094663014
313.341558213079;74.1721009564531
313.363181991412;74.0429420221784
313.384805769745;73.923759144262
313.406429548078;73.8197701572497
313.428053326411;73.7366394078976
313.449677104744;73.6956232632549
313.471300883076;73.7219859830212
313.492924661409;73.8251662218608
313.514548439742;74.0142170057182
313.536172218075;74.2938045553341
313.557795996408;74.6584063734964
313.579419774741;75.0976732966939
313.601043553074;75.5933734615916
313.622667331407;76.1500327507314
313.64429110974;76.7859143425898
313.665914888072;77.5040648722297
313.687538666405;78.2858435971498
313.709162444738;79.1034927131853
313.730786223071;79.9241202381459
313.752410001404;80.7129705206284
313.774033779737;81.4640601571562
313.79565755807;82.1789745524177
313.817281336403;82.8391761538603
313.838905114736;83.4186678726168
313.860528893068;83.9052355462098
313.882152671401;84.2923740477136
313.903776449734;84.5783176591001
313.925400228067;84.7576522879422
313.9470240064;84.8200552967552
313.968647784733;84.7699744748623
313.990271563066;84.6321377437018
314.011895341399;84.4248771340071
314.033519119731;84.153144129477
314.055142898064;83.8193028874347
314.076766676397;83.4328306014537
314.09839045473;83.0083885344943
314.120014233063;82.560703734681
314.141638011396;82.1132345498468
314.163261789729;81.6825564435386
314.184885568062;81.2558072458612
314.206509346395;80.8243861628116
314.228133124727;80.3958648341604
314.24975690306;79.9861102469893
314.271380681393;79.6057860801143
314.293004459726;79.2466273006681
314.314628238059;78.8962994471467
314.336252016392;78.5836454721472
314.357875794725;78.3400510544203
314.379499573058;78.147117891345
314.401123351391;77.9985047324109
314.422747129723;77.8970979992022
314.444370908056;77.8447495237435
314.465994686389;77.8344399053179
314.487618464722;77.8611943713594
314.509242243055;77.9294403952804
314.530866021388;78.044823407131
314.552489799721;78.2028935474384
314.574113578054;78.3955545699559
314.595737356386;78.6189226247407
314.617361134719;78.8757185463331
314.638984913052;79.1627845056291
314.660608691385;79.4652701175116
314.682232469718;79.7612212305093
314.703856248051;80.0394615197587
314.725480026384;80.3001865769544
314.747103804717;80.5395802113905
314.76872758305;80.7367408639073
314.790351361382;80.8733394015194
314.811975139715;80.9517546923982
314.833598918048;80.9821706019592
314.855222696381;80.9712388745884
314.876846474714;80.9225866421778
314.898470253047;80.8437505990529
314.92009403138;80.7411368295666
314.941717809713;80.6200037015663
314.963341588046;80.4883601695896
314.984965366378;80.3474291640186
315.006589144711;80.1940340042257
315.028212923044;80.0325201198775
315.049836701377;79.8617728489194
315.07146047971;79.6723470771307
315.093084258043;79.4625920678643
315.114708036376;79.2365812638787
315.136331814709;78.9953872458287
315.157955593041;78.7429645378142
315.179579371374;78.5055136359511
315.201203149707;78.3008654055415
315.22282692804;78.1262190189589
315.244450706373;77.9918357145073
315.266074484706;77.9059767663843
315.287698263039;77.8737836609311
315.309322041372;77.9128815516961
315.330945819705;78.027522352857
315.352569598037;78.2055731108047
315.37419337637;78.4450695208065
315.395817154703;78.7616989106905
315.417440933036;79.167451768196
315.439064711369;79.6295061952434
315.460688489702;80.1161591781068
315.482312268035;80.6261785441694
315.503936046368;81.1638721253757
315.525559824701;81.7176622385567
315.547183603033;82.259775615818
315.568807381366;82.7744648834712
315.590431159699;83.269351785763
315.612054938032;83.7382218705508
315.633678716365;84.1623083042195
315.655302494698;84.5081954885673
315.676926273031;84.7742065695921
315.698550051364;84.9650193497028
315.720173829696;85.0800071503541
315.741797608029;85.1230836985261
315.763421386362;85.0988766927554
315.785045164695;85.0083339063981
315.806668943028;84.8563234954545
315.828292721361;84.6558373450579
315.849916499694;84.4149440483759
315.871540278027;84.1323916523058
315.89316405636;83.8038526106355
315.914787834692;83.4293756132027
315.936411613025;83.020048771673
315.958035391358;82.6051326570581
315.979659169691;82.2121341528601
316.001282948024;81.8477158901385
316.022906726357;81.5112254742819
316.04453050469;81.1998551934824
316.066154283023;80.9137741617881
316.087778061355;80.6536531183355
316.109401839688;80.4200174547055
316.131025618021;80.2141472432213
316.152649396354;80.0401813035398
316.174273174687;79.9013838395144
316.19589695302;79.7967650590078
316.217520731353;79.7259199127529
316.239144509686;79.6890777300219
316.260768288019;79.6902414373855
316.282392066351;79.7383194190677
316.304015844684;79.841012432611
316.325639623017;80.0060497125837
316.34726340135;80.2338938815056
316.368887179683;80.5152626788595
316.390510958016;80.8426672410217
316.412134736349;81.2082640247212
316.433758514682;81.6060763425534
316.455382293015;82.0226592267803
316.477006071347;82.4263725641682
316.49862984968;82.7802978705658
316.520253628013;83.0687611728218
316.541877406346;83.2865772510615
316.563501184679;83.4350643398726
316.585124963012;83.5071270523986
316.606748741345;83.5129721788498
316.628372519678;83.4664542974887
316.64999629801;83.3705402601485
316.671620076343;83.2290185369291
316.693243854676;83.0587886044008
316.714867633009;82.8566092001152
316.736491411342;82.6286662923517
316.758115189675;82.3933338562859
316.779738968008;82.1592577882544
316.801362746341;81.9162861049801
316.822986524674;81.6574405145801
316.844610303006;81.3776327121912
316.866234081339;81.0720568537917
316.887857859672;80.7380274503005
316.909481638005;80.4047086799414
316.931105416338;80.0749078854004
316.952729194671;79.7366771611522
316.974352973004;79.4009811998437
316.995976751337;79.0915231348639
317.017600529669;78.8178364504906
317.039224308002;78.5825056570147
317.060848086335;78.3954621831917
317.082471864668;78.259055453424
317.104095643001;78.1653760702601
317.125719421334;78.1219979713046
317.147343199667;78.1281390952851
317.168966978;78.1674442163818
317.190590756333;78.2343651759926
317.212214534665;78.3270261096865
317.233838312998;78.4293444636582
317.255462091331;78.5206832088268
317.277085869664;78.5889514527385
317.298709647997;78.6355819177775
317.32033342633;78.678897830342
317.341957204663;78.7093814862596
317.363580982996;78.7204473942919
317.385204761329;78.7132785853975
317.406828539661;78.6909530035407
317.428452317994;78.6587374158211
317.450076096327;78.6201108378804
317.47169987466;78.5759300355627
317.493323652993;78.5243907443875
317.514947431326;78.4648244673277
317.536571209659;78.3984572581584
317.558194987992;78.3221512409299
317.579818766324;78.2242534338037
317.601442544657;78.0942480741539
317.62306632299;77.9399412085325
317.644690101323;77.7752733312176
317.666313879656;77.6012457595127
317.687937657989;77.4155426919533
317.709561436322;77.2204258462415
317.731185214655;77.0211573289954
317.752808992988;76.8316998493288
317.77443277132;76.6621824097687
317.796056549653;76.5057499545344
317.817680327986;76.3617215227937
317.839304106319;76.2406300203774
317.860927884652;76.1530458903026
317.882551662985;76.1032094289072
317.904175441318;76.088309002997
317.925799219651;76.1052124659239
317.947422997983;76.15384108867
317.969046776316;76.2422205554075
317.990670554649;76.3760493226083
318.012294332982;76.5451016239452
318.033918111315;76.7491725357746
318.055541889648;76.9939705635
318.077165667981;77.2642553927351
318.098789446314;77.528228248911
318.120413224647;77.7753870659808
318.142037002979;78.0022520955047
318.163660781312;78.2031437732659
318.185284559645;78.3729373337764
318.206908337978;78.5103570423133
318.228532116311;78.5950450741599
318.250155894644;78.6213817771062
318.271779672977;78.5999103476656
318.29340345131;78.5371766077308
318.315027229643;78.4306369082585
318.336651007975;78.297581063604
318.358274786308;78.1494163198985
318.379898564641;77.9863646473622
318.401522342974;77.8015594784416
318.423146121307;77.5884496035799
318.44476989964;77.3499405927602
318.466393677973;77.0992696576277
318.488017456306;76.8370901853528
318.509641234638;76.5536804732701
318.531265012971;76.2483463037186
318.552888791304;75.9307714175133
318.574512569637;75.6096949911348
318.59613634797;75.2933122501464
318.617760126303;74.9884092478461
318.639383904636;74.7004731844506
318.661007682969;74.4330420060994
318.682631461302;74.1848740380388
318.704255239634;73.9522611296049
318.725879017967;73.7239207729026
318.7475027963;73.4926820852391
318.769126574633;73.2621394603367
318.790750352966;73.0313307312506
318.812374131299;72.8063726913783
318.833997909632;72.59856020352
318.855621687965;72.4055560512204
318.877245466298;72.2269426950851
318.89886924463;72.0640526763996
318.920493022963;71.915002837222
318.942116801296;71.7792628230829
318.963740579629;71.6607558702432
318.985364357962;71.5738243165779
319.006988136295;71.5163943266053
319.028611914628;71.4822502706478
319.050235692961;71.4726471814943
319.071859471293;71.4945531148599
319.093483249626;71.5465771701591
319.115107027959;71.6204726940206
319.136730806292;71.7111366180777
319.158354584625;71.8211098947295
319.179978362958;71.941454174531
319.201602141291;72.0610987882823
319.223225919624;72.1717780255822
319.244849697957;72.2700200412474
319.266473476289;72.3516239227194
319.288097254622;72.4051776453006
319.309721032955;72.4229967268722
319.331344811288;72.415443526588
319.352968589621;72.3852794326351
319.374592367954;72.3184786293329
319.396216146287;72.2125102002539
319.41783992462;72.0751220742753
319.439463702952;71.9227789598379
319.461087481285;71.7785427903998
319.482711259618;71.6462480036126
319.504335037951;71.5397411803023
319.525958816284;71.4777701799926
319.547582594617;71.4688826586053
319.56920637295;71.507107025805
319.590830151283;71.5887169241145
319.612453929616;71.7144199425804
319.634077707948;71.8744915603367
319.655701486281;72.0509461861366
319.677325264614;72.2270991208299
319.698949042947;72.3939554052212
319.72057282128;72.5415511734719
319.742196599613;72.6559072658258
319.763820377946;72.7283957578267
319.785444156279;72.7572563899914
319.807067934612;72.736460969885
319.828691712944;72.6610104087458
319.850315491277;72.54043600506
319.87193926961;72.3788364841001
319.893563047943;72.1780498423468
319.915186826276;71.9551407513859
319.936810604609;71.7290980181006
319.958434382942;71.5120237466312
319.980058161275;71.3093879117444
320.001681939607;71.1241212663173
320.02330571794;70.9583507603619
320.044929496273;70.812469035507
320.066553274606;70.6877715424977
320.088177052939;70.5855069370815
320.109800831272;70.5034615388604
320.131424609605;70.4434812567215
320.153048387938;70.4087488404649
320.174672166271;70.3989626414851
320.196295944603;70.4186766417077
320.217919722936;70.474534420892
320.239543501269;70.5700768313558
320.261167279602;70.7070892692253
320.282791057935;70.8800618211407
320.304414836268;71.0835910762039
320.326038614601;71.3182535759239
320.347662392934;71.5781397512407
320.369286171266;71.8428100588133
320.390909949599;72.0942957214655
320.412533727932;72.3283761449991
320.434157506265;72.5471935959536
320.455781284598;72.7433716359882
320.477405062931;72.8979560290452
320.499028841264;73.0029952056548
320.520652619597;73.0615171730519
320.54227639793;73.0759266911145
320.563900176262;73.0437498730422
320.585523954595;72.9620568494367
320.607147732928;72.8387703728672
320.628771511261;72.6873547609475
320.650395289594;72.5177878440128
320.672019067927;72.3349616376032
320.69364284626;72.1461929616064
320.715266624593;71.9594720475955
320.736890402926;71.7742008917887
320.758514181258;71.5852349019723
320.780137959591;71.3959634956739
320.801761737924;71.2223031562603
320.823385516257;71.0707401710874
320.84500929459;70.9420349283134
320.866633072923;70.8364354398093
320.888256851256;70.7539967967352
320.909880629589;70.6969951490119
320.931504407921;70.6733804972034
320.953128186254;70.6946634713418
320.974751964587;70.7657107271573
320.99637574292;70.8836039419009
321.017999521253;71.0370248604462
321.039623299586;71.2170484431019
321.061247077919;71.4207353767749
321.082870856252;71.6412499535459
321.104494634585;71.8646577574688
321.126118412917;72.0736850941697
321.14774219125;72.2504035698401
321.169365969583;72.3779909003
321.190989747916;72.4336360445592
321.212613526249;72.4073795678055
321.234237304582;72.2960443020486
321.255861082915;72.0986431470539
321.277484861248;71.8161132773535
321.29910863958;71.454349580131
321.320732417913;71.0254756550399
321.342356196246;70.5488592793607
321.363979974579;70.0322983407018
321.385603752912;69.4942456498672
321.407227531245;68.9962513639342
321.428851309578;68.5429215879544
321.450475087911;68.1176848610408
321.472098866244;67.7298605323627
321.493722644576;67.4001072562983
321.515346422909;67.1257567565115
321.536970201242;66.8832231689007
321.558593979575;66.6404308485811
321.580217757908;66.3952067041954
321.601841536241;66.150588880803
321.623465314574;65.8978585148932
321.645089092907;65.6170769011457
321.66671287124;65.2835423063097
321.688336649572;64.8999366592382
321.709960427905;64.4841116719478
321.731584206238;64.0382225710181
321.753207984571;63.5563658241792
321.774831762904;63.0428201211206
321.796455541237;62.4990549480977
321.81807931957;61.9336894261769
321.839703097903;61.3806825993309
321.861326876235;60.8527281285341
321.882950654568;60.3404427723383
321.904574432901;59.8626340245112
321.926198211234;59.4190062516851
321.947821989567;58.9930584239905
321.9694457679;58.591372581339
321.991069546233;58.2265197945128
322.012693324566;57.8929719875856
322.034317102899;57.5801869954441
322.055940881231;57.2894894177132
322.077564659564;57.0405088066391
322.099188437897;56.8397082332287
322.12081221623;56.6830732817212
322.142435994563;56.5743360635318
322.164059772896;56.5152965314309
322.185683551229;56.512751216825
322.207307329562;56.5869361099165
322.228931107895;56.7445562994602
322.250554886227;56.9613007490921
322.27217866456;57.223508616035
322.293802442893;57.5283212941279
322.315426221226;57.8643895674454
322.337049999559;58.2148833901651
322.358673777892;58.5715930996452
322.380297556225;58.9437096945458
322.401921334558;59.3373217055178
322.42354511289;59.7317147143489
322.445168891223;60.1195907077832
322.466792669556;60.5007630936202
322.488416447889;60.8702691932141
322.510040226222;61.2290631440312
322.531664004555;61.5846016911619
322.553287782888;61.9454958465914
322.574911561221;62.3098658843507
322.596535339554;62.6624533368748
322.618159117886;62.98236772036
322.639782896219;63.262820611279
322.661406674552;63.4903334747876
322.683030452885;63.6433332598765
322.704654231218;63.7089998680088
322.726278009551;63.6811971501705
322.747901787884;63.556976402914
322.769525566217;63.3265766191973
322.79114934455;62.9945452228441
322.812773122882;62.5927242362072
322.834396901215;62.1431954105933
322.856020679548;61.6600046685396
322.877644457881;61.1439226463287
322.899268236214;60.6007569458651
322.920892014547;60.0511257987683
322.94251579288;59.5147130498039
322.964139571213;59.0021193013488
322.985763349545;58.5317490316862
323.007387127878;58.1260984986136
323.029010906211;57.7910553959243
323.050634684544;57.5186489384427
323.072258462877;57.3096234868797
323.09388224121;57.1632310658634
323.115506019543;57.070944446459
323.137129797876;57.0171942058335
323.158753576209;56.9889093819416
323.180377354541;56.9796726032942
323.202001132874;56.9811595330499
323.223624911207;56.9867785720411
323.24524868954;56.9915430331301
323.266872467873;56.9906825147113
323.288496246206;56.9776022528278
323.310120024539;56.9506989798926
323.331743802872;56.9169464800598
323.353367581205;56.8795632941386
323.374991359537;56.8384618041278
323.39661513787;56.7995380338177
323.418238916203;56.7725441382928
323.439862694536;56.7654134429845
323.461486472869;56.7720677226814
323.483110251202;56.7801122557453
323.504734029535;56.7854965316933
323.526357807868;56.7840719731514
323.5479815862;56.7695078940957
323.569605364533;56.7338785362835
323.591229142866;56.6710695067018
323.612852921199;56.5798028941811
323.634476699532;56.4626217529162
323.656100477865;56.3169688762517
323.677724256198;56.1361380427923
323.699348034531;55.9208518477299
323.720971812864;55.6787289159595
323.742595591196;55.4154987997408
323.764219369529;55.1358903897046
323.785843147862;54.8443770450076
323.807466926195;54.5533956840679
323.829090704528;54.2762366365955
323.850714482861;54.0151441156852
323.872338261194;53.7788835581033
323.893962039527;53.5726127844187
323.915585817859;53.3986495316498
323.937209596192;53.2569894932756
323.958833374525;53.1564643654603
323.980457152858;53.1102429228039
324.002080931191;53.1132150615388
324.023704709524;53.1523034462578
324.045328487857;53.2251602620247
324.06695226619;53.3312160044929
324.088576044523;53.4599449597675
324.110199822855;53.6006472372767
324.131823601188;53.7403985665168
324.153447379521;53.8711316551347
324.175071157854;53.9881839223158
324.196694936187;54.0784974452616
324.21831871452;54.133983388505
324.239942492853;54.1591465628208
324.261566271186;54.1757258552871
324.283190049519;54.1949669584276
324.304813827851;54.2126939385467
324.326437606184;54.2272560998829
324.348061384517;54.2483260038269
324.36968516285;54.2849200375206
324.391308941183;54.3413703219506
324.412932719516;54.420482670468
324.434556497849;54.5228830754315
324.456180276182;54.6450779204688
324.477804054514;54.7759886808406
324.499427832847;54.903827131202
324.52105161118;55.0248381676649
324.542675389513;55.1380065512634
324.564299167846;55.2380031340025
324.585922946179;55.3195705860772
324.607546724512;55.384271445367
324.629170502845;55.4363179081685
324.650794281178;55.4766117771813
324.67241805951;55.5035604907845
324.694041837843;55.5307067310814
324.715665616176;55.5678368628122
324.737289394509;55.6046990411444
324.758913172842;55.6300370010508
