Name;ESR_BC_1_840s_Z_gon_120dg_result

Recipe
Accumulations;5;Number of accumulations
RetryCount;0;Number of retries on error
AbortOnError;True;Abort on error
EnableQFactorMeasurement;False;Enable/Disable q-Factor measurement
Bfrom;313;B from
Bto;363;B to
SweepTime;60;Sweep time
Modulation;0.2;Modulation
ModulationFreq;100;Modulation
BHoldEnabled;False;B hold enabled
BHold;0;B hold
MicrowavePower;2;Microwave power
MarkerEnabled;False;
MarkerStartField;0;
MarkerEndField;0;
Mode;;
KineticGFact;0;
KineticTotalTransientTime;0;
KineticTimeResolution;0;
TempFrom;5;
TempUseSlope;False;
TempTo;5;
TempdT;1;
TempSetupTime;0;
GonFrom;0;
GonTo;180;
GonSteps;20;
XRayEnabled;False;
XRayTime;3;
XRayVoltage;40;
XRayCurrent;0.5;
UVEnabled;False;
UVIntensity;0;
UVTime;0;
UVLeadTime;0;
UVWavelength;0;
PowSweepFrom;1;
PowSweepTo;5;
PowSweepSteps;5;
AmpModSweepFrom;0;
AmpModSweepTo;1;
AmpModSweepSteps;10;
ExtTriggerEnabled;False;
ExtTrigLeadTime;0;
ExtTrigOnTime;5;

Meas
BField [mT];MW_Absorption []
313.008197555542;71.6926972788136
313.029820652314;71.2607391293245
313.051443749085;70.8911981271045
313.073066845856;70.5820483364293
313.094689942628;70.3396193135699
313.116313039399;70.1718396428121
313.137936136171;70.0727236033714
313.159559232942;70.0205499860613
313.181182329714;69.997918225285
313.202805426485;70.0081192982822
313.224428523256;70.0525615152369
313.246051620028;70.1238137958442
313.267674716799;70.2002195096919
313.289297813571;70.2648358746472
313.310920910342;70.3257972860013
313.332544007114;70.3895735502506
313.354167103885;70.451387870812
313.375790200656;70.5041551563009
313.397413297428;70.5540874084429
313.419036394199;70.6093452899305
313.440659490971;70.6745292224251
313.462282587742;70.7533075174678
313.483905684514;70.8471176376676
313.505528781285;70.9617728331924
313.527151878057;71.0985669687777
313.548774974828;71.2407755402687
313.570398071599;71.375509014961
313.592021168371;71.5013159890818
313.613644265142;71.6174933191131
313.635267361914;71.7207803132118
313.656890458685;71.8026653085787
313.678513555457;71.8581520354334
313.700136652228;71.8824728188756
313.721759748999;71.8724237987637
313.743382845771;71.8307770073955
313.765005942542;71.7620275123009
313.786629039314;71.6630717086812
313.808252136085;71.5257246614446
313.829875232857;71.3482697616647
313.851498329628;71.1380629855493
313.8731214264;70.9027666797103
313.894744523171;70.653054287279
313.916367619942;70.3997410536503
313.937990716714;70.1406276604496
313.959613813485;69.8759435053499
313.981236910257;69.6183536712325
314.002860007028;69.3859597204668
314.0244831038;69.1926414881513
314.046106200571;69.0410317207278
314.067729297343;68.920004533797
314.089352394114;68.8167151598691
314.110975490885;68.7221141518599
314.132598587657;68.6283756698723
314.154221684428;68.5186196153663
314.1758447812;68.3833133583501
314.197467877971;68.2427322784237
314.219090974743;68.099253043075
314.240714071514;67.9333352402027
314.262337168285;67.7388199696249
314.283960265057;67.5387262820294
314.305583361828;67.3619386116449
314.3272064586;67.2133206296553
314.348829555371;67.0968699982858
314.370452652143;67.0312173880796
314.392075748914;67.0402526166551
314.413698845686;67.1353523693773
314.435321942457;67.3230629524086
314.456945039228;67.601296407487
314.478568136;67.9529447165815
314.500191232771;68.3652868310333
314.521814329543;68.8318514119674
314.543437426314;69.3319659924513
314.565060523086;69.8130696696301
314.586683619857;70.2640116537033
314.608306716628;70.680713757269
314.6299298134;71.0519239882966
314.651552910171;71.3539577111979
314.673176006943;71.5921485137041
314.694799103714;71.771449806031
314.716422200486;71.8939644170977
314.738045297257;71.9792145787129
314.759668394029;72.054312028127
314.7812914908;72.1312513838937
314.802914587571;72.2104127198633
314.824537684343;72.3060358053112
314.846160781114;72.4306339953701
314.867783877886;72.5817867114536
314.889406974657;72.7479478217374
314.911030071429;72.918243487801
314.9326531682;73.0855854732357
314.954276264972;73.2454511733944
314.975899361743;73.3941911479605
314.997522458514;73.5213057905874
315.019145555286;73.6129295263901
315.040768652057;73.6642326148376
315.062391748829;73.6863289950624
315.0840148456;73.6888413421278
315.105637942372;73.6771217594514
315.127261039143;73.6587069593795
315.148884135914;73.639870664944
315.170507232686;73.6235160536464
315.192130329457;73.6184246566132
315.213753426229;73.6331896152712
315.235376523;73.6671008864318
315.256999619772;73.7164918188362
315.278622716543;73.7771857688621
315.300245813315;73.8411770624833
315.321868910086;73.8997493218034
315.343492006857;73.9449089922132
315.365115103629;73.9655023955086
315.3867382004;73.9519327139808
315.408361297172;73.9027867772684
315.429984393943;73.8179834679371
315.451607490715;73.6962551786128
315.473230587486;73.5408092067543
315.494853684257;73.361519134487
315.516476781029;73.1674332964835
315.5380998778;72.9618791731152
315.559722974572;72.7413485441156
315.581346071343;72.5095202821543
315.602969168115;72.2996486011638
315.624592264886;72.1318792962687
315.646215361658;72.0101603945741
315.667838458429;71.9253659455161
315.6894615552;71.859264713328
315.711084651972;71.8157995140877
315.732707748743;71.8002215720757
315.754330845515;71.8107976324073
315.775953942286;71.8381430951279
315.797577039058;71.8767698125555
315.819200135829;71.9178775036333
315.8408232326;71.9552524468747
315.862446329372;71.9846141307321
315.884069426143;72.0037610180724
315.905692522915;72.0115121731179
315.927315619686;72.0093089271005
315.948938716458;71.9952451682313
315.970561813229;71.9670918044849
315.992184910001;71.9288261911456
316.013808006772;71.8851735654274
316.035431103543;71.8356890062917
316.057054200315;71.7825010166178
316.078677297086;71.7369640172297
316.100300393858;71.6986627174688
316.121923490629;71.6590080208539
316.143546587401;71.6105393772197
316.165169684172;71.5546508426682
316.186792780943;71.5009925177456
316.208415877715;71.4559931680695
316.230038974486;71.4186656500229
316.251662071258;71.3831066252395
316.273285168029;71.3498355073678
316.294908264801;71.3254376205802
316.316531361572;71.3094070872089
316.338154458344;71.2988070519361
316.359777555115;71.28845752926
316.381400651886;71.2770568025856
316.403023748658;71.2677532779686
316.424646845429;71.2616677901566
316.446269942201;71.246826646489
316.467893038972;71.2091354274363
316.489516135744;71.152928713943
316.511139232515;71.0805663923479
316.532762329286;70.9865003851521
316.554385426058;70.8693781402881
316.576008522829;70.7422428479314
316.597631619601;70.6170217691277
316.619254716372;70.5027475172021
316.640877813144;70.4005711611977
316.662500909915;70.3056862200633
316.684124006687;70.2197676286688
316.705747103458;70.1512033755844
316.727370200229;70.1106766490281
316.748993297001;70.1080333490241
316.770616393772;70.1382010445186
316.792239490544;70.1939592581039
316.813862587315;70.2770167222663
316.835485684087;70.4002019582395
316.857108780858;70.5731471514529
316.878731877629;70.7580631848392
316.900354974401;70.9310699839276
316.921978071172;71.1011506118047
316.943601167944;71.2855846709869
316.965224264715;71.4846831803621
316.986847361487;71.6720526378569
317.008470458258;71.8418161551633
317.03009355503;72.00532941586
317.051716651801;72.1598898944374
317.073339748572;72.2809724382972
317.094962845344;72.3801597067632
317.116585942115;72.4515761224998
317.138209038887;72.483965063902
317.159832135658;72.4862664297207
317.18145523243;72.4673228264318
317.203078329201;72.4217282359532
317.224701425973;72.3365609959468
317.246324522744;72.2027037359063
317.267947619515;72.0311037989253
317.289570716287;71.8405212041246
317.311193813058;71.6435733612111
317.33281690983;71.4392577170612
317.354440006601;71.2348267527354
317.376063103373;71.0347581766044
317.397686200144;70.830898464898
317.419309296915;70.6143355938029
317.440932393687;70.3910301171827
317.462555490458;70.1805674439426
317.48417858723;69.9936419564103
317.505801684001;69.8293211567099
317.527424780773;69.6759788901234
317.549047877544;69.5359649095071
317.570670974316;69.4295289856941
317.592294071087;69.3663023150097
317.613917167858;69.3414854206769
317.63554026463;69.3436411384926
317.657163361401;69.3614173393118
317.678786458173;69.4098777542635
317.700409554944;69.4867829716716
317.722032651716;69.5712227780636
317.743655748487;69.6517832455449
317.765278845258;69.7317604470299
317.78690194203;69.8060946610177
317.808525038801;69.8660499176759
317.830148135573;69.9047090998136
317.851771232344;69.9182251508656
317.873394329116;69.9067127102291
317.895017425887;69.8712168929162
317.916640522659;69.8081006860135
317.93826361943;69.7180881294581
317.959886716201;69.6142137309442
317.981509812973;69.5040008967565
318.003132909744;69.381378109163
318.024756006516;69.2403738496172
318.046379103287;69.0820541900826
318.068002200059;68.9142123086418
318.08962529683;68.7451346294582
318.111248393602;68.5759351698348
318.132871490373;68.4027359819417
318.154494587144;68.2226104715087
318.176117683916;68.0321065503254
318.197740780687;67.8281492510047
318.219363877459;67.6136669580984
318.24098697423;67.3938921500023
318.262610071002;67.1730837786019
318.284233167773;66.9576367612658
318.305856264544;66.7551703070658
318.327479361316;66.5723728948129
318.349102458087;66.4090368323451
318.370725554859;66.2599334413065
318.39234865163;66.1252339392764
318.413971748402;66.0093282027396
318.435594845173;65.9122458073793
318.457217941944;65.8270247928409
318.478841038716;65.7427075998176
318.500464135487;65.6523406631495
318.522087232259;65.5509690303821
318.54371032903;65.4462052932456
318.565333425802;65.3322204342484
318.586956522573;65.2032638280013
318.608579619345;65.0763781543088
318.630202716116;64.9593258780718
318.651825812887;64.8450085165882
318.673448909659;64.7276457972969
318.69507200643;64.6088632827244
318.716695103202;64.4928309642872
318.738318199973;64.3887681980665
318.759941296745;64.3024307265775
318.781564393516;64.2235379843999
318.803187490287;64.1584401847459
318.824810587059;64.109176891218
318.84643368383;64.0788166155499
318.868056780602;64.0685006030637
318.889679877373;64.0701717966506
318.911302974145;64.08017947551
318.932926070916;64.0867758243411
318.954549167688;64.0800017078578
318.976172264459;64.0718777344261
318.99779536123;64.0755405151632
319.019418458002;64.0860984896244
319.041041554773;64.0920706670731
319.062664651545;64.0859637290522
319.084287748316;64.0634784976781
319.105910845088;64.0229995335466
319.127533941859;63.963663825266
319.149157038631;63.8769848660555
319.170780135402;63.7634214662443
319.192403232173;63.6231416476676
319.214026328945;63.4544659135607
319.235649425716;63.2604991136663
319.257272522488;63.0454043984577
319.278895619259;62.8095206178892
319.300518716031;62.5685329549032
319.322141812802;62.3381219986924
319.343764909573;62.1229248881455
319.365388006345;61.9273157194815
319.387011103116;61.7591305237179
319.408634199888;61.6346115506609
319.430257296659;61.5580572759295
319.451880393431;61.5222483861571
319.473503490202;61.5414562289414
319.495126586974;61.6148398271496
319.516749683745;61.7435069695596
319.538372780516;61.9041070051916
319.559995877288;62.0927212418374
319.581618974059;62.3087869055441
319.603242070831;62.5400441614746
319.624865167602;62.7846494171977
319.646488264374;63.0432044015514
319.668111361145;63.299339320955
319.689734457916;63.5345246749763
319.711357554688;63.748027082821
319.732980651459;63.943422358445
319.754603748231;64.1188228922128
319.776226845002;64.2658338560321
319.797849941774;64.3728488682525
319.819473038545;64.4473947647953
319.841096135317;64.4870535156009
319.862719232088;64.4822051300351
319.884342328859;64.4369157604574
319.905965425631;64.3602696889955
319.927588522402;64.2601031973854
319.949211619174;64.1412543732058
319.970834715945;64.0113856145064
319.992457812717;63.884170368875
320.014080909488;63.7571034502642
320.035704006259;63.6342048319009
320.057327103031;63.5373887871773
320.078950199802;63.468343024589
320.100573296574;63.4186139350945
320.122196393345;63.3853470243532
320.143819490117;63.3613372796152
320.165442586888;63.335567782892
320.18706568366;63.3090652068322
320.208688780431;63.2847325019439
320.230311877202;63.2480887101813
320.251934973974;63.182869590867
320.273558070745;63.0853401813102
320.295181167517;62.9594118340631
320.316804264288;62.8012873783252
320.33842736106;62.6068435778509
320.360050457831;62.3799039638182
320.381673554603;62.1297393452065
320.403296651374;61.8747023684042
320.424919748145;61.6283685971315
320.446542844917;61.396472189711
320.468165941688;61.1808192828491
320.48978903846;60.9818264667373
320.511412135231;60.7961601301922
320.533035232003;60.6190988161707
320.554658328774;60.4537874848553
320.576281425545;60.3008289445175
320.597904522317;60.1622503617791
320.619527619088;60.0464104007145
320.64115071586;59.9639395099362
320.662773812631;59.9168500020645
320.684396909403;59.9109683692402
320.706020006174;59.9535556611955
320.727643102946;60.0499759266839
320.749266199717;60.2030436880237
320.770889296488;60.406706149579
320.79251239326;60.6494039118593
320.814135490031;60.9252589892576
320.835758586803;61.2313167142008
320.857381683574;61.5618045563201
320.879004780346;61.900041819439
320.900627877117;62.2186626404142
320.922250973888;62.5040289918428
320.94387407066;62.7378405963969
320.965497167431;62.9241797000987
320.987120264203;63.0722024010592
321.008743360974;63.1826881249705
321.030366457746;63.2536859850224
321.051989554517;63.289557132251
321.073612651289;63.2905217555638
321.09523574806;63.2573219335626
321.116858844831;63.1886586771938
321.138481941603;63.0707203635279
321.160105038374;62.891258397055
321.181728135146;62.661541192482
321.203351231917;62.3902012523298
321.224974328689;62.0736417869347
321.24659742546;61.7042240816859
321.268220522231;61.2781650961807
321.289843619003;60.8059672937114
321.311466715774;60.3089929512825
321.333089812546;59.8107910643313
321.354712909317;59.3236894556388
321.376336006089;58.8534798266758
321.39795910286;58.3858629147695
321.419582199632;57.92733129868
321.441205296403;57.5070617403564
321.462828393174;57.1362840880471
321.484451489946;56.808320857065
321.506074586717;56.5108371180406
321.527697683489;56.228583916746
321.54932078026;55.9537805081257
321.570943877032;55.6858558184327
321.592566973803;55.4215862436976
321.614190070574;55.1532190708589
321.635813167346;54.8610246128016
321.657436264117;54.5222962159217
321.679059360889;54.1512854868941
321.70068245766;53.7804688114706
321.722305554432;53.4117783985105
321.743928651203;53.0366183895504
321.765551747975;52.6561386438748
321.787174844746;52.275494061438
321.808797941517;51.8920368283703
321.830421038289;51.5006380427877
321.85204413506;51.0980210866443
321.873667231832;50.6812485435202
321.895290328603;50.2639143393582
321.916913425375;49.8708188549508
321.938536522146;49.5000507986756
321.960159618917;49.1383712927292
321.981782715689;48.7781425508353
322.00340581246;48.4171140500103
322.025028909232;48.0589346313394
322.046652006003;47.7290737127649
322.068275102775;47.4480812185116
322.089898199546;47.2194766312103
322.111521296318;47.0550596843817
322.133144393089;46.9668827266201
322.15476748986;46.957277981644
322.176390586632;47.0209508979104
322.198013683403;47.1531401788608
322.219636780175;47.3519135624573
322.241259876946;47.6106257237407
322.262882973718;47.91736450167
322.284506070489;48.2620971933617
322.306129167261;48.6247690389648
322.327752264032;48.9707221209923
322.349375360803;49.2897784528315
322.370998457575;49.585477183012
322.392621554346;49.8586255955691
322.414244651118;50.0985539399771
322.435867747889;50.3103964534356
322.457490844661;50.5069678769563
322.479113941432;50.6879668546664
322.500737038203;50.8461172852471
322.522360134975;50.9858496894019
322.543983231746;51.1211539948573
322.565606328518;51.2620009492752
322.587229425289;51.41321824253
322.608852522061;51.5745106391151
322.630475618832;51.7407307980727
322.652098715604;51.9138058485017
322.673721812375;52.1000355540264
322.695344909146;52.3017915044551
322.716968005918;52.515730815067
322.738591102689;52.7289619276519
322.760214199461;52.9302825874103
322.781837296232;53.1135480054582
322.803460393004;53.2688039995597
322.825083489775;53.386254300638
322.846706586546;53.4627649419876
322.868329683318;53.5031817215463
322.889952780089;53.5048255872865
322.911575876861;53.4571522712759
322.933198973632;53.3584688522979
322.954822070404;53.2193669742698
322.976445167175;53.0508627991373
322.998068263947;52.8634954507994
323.019691360718;52.6602469386291
323.041314457489;52.4330210684836
323.062937554261;52.1820832351362
323.084560651032;51.9226302300276
323.106183747804;51.6923767454375
323.127806844575;51.50299828234
323.149429941347;51.3463910068744
323.171053038118;51.211049511701
323.19267613489;51.0937289647601
323.214299231661;51.0047611819657
323.235922328432;50.9387300144793
323.257545425204;50.8991667328246
323.279168521975;50.8759396496865
323.300791618747;50.8538683689542
323.322414715518;50.8195511266166
323.34403781229;50.7645982753751
323.365660909061;50.6856485704879
323.387284005832;50.5655864141134
323.408907102604;50.3816108504573
323.430530199375;50.1240262027632
323.452153296147;49.7956803609389
323.473776392918;49.3957774723202
323.49539948969;48.9217549202386
323.517022586461;48.3790278255086
323.538645683233;47.7761383948959
323.560268780004;47.118098095963
323.581891876775;46.3961284288579
323.603514973547;45.632942867394
323.625138070318;44.8695832373714
323.64676116709;44.1479382790531
323.668384263861;43.4770626770692
323.690007360633;42.8523871623328
323.711630457404;42.2838266598739
323.733253554175;41.7828723072223
323.754876650947;41.3541319974456
323.776499747718;41.0060650731339
323.79812284449;40.7388653858169
323.819745941261;40.5560190854258
323.841369038033;40.4540462320479
323.862992134804;40.4239200745548
323.884615231575;40.446948673403
323.906238328347;40.5110140349068
323.927861425118;40.6131585483339
323.94948452189;40.7565899220828
323.971107618661;40.9399299793408
323.992730715433;41.1428907849598
324.014353812204;41.3369568377205
324.035976908976;41.5133700538582
324.057600005747;41.6748703426091
324.079223102518;41.8256880703025
324.10084619929;41.966517354392
324.122469296061;42.0856557993021
324.144092392833;42.1763905400653
324.165715489604;42.2441421448409
324.187338586376;42.2988847623632
324.208961683147;42.3453533315479
324.230584779919;42.3824636758103
324.25220787669;42.4054628558353
324.273830973461;42.410546521769
324.295454070233;42.3994490435327
324.317077167004;42.3766235322812
324.338700263776;42.3419385134697
324.360323360547;42.2904154932022
324.381946457319;42.2184266732837
324.40356955409;42.1294784962615
324.425192650861;42.0240066175199
324.446815747633;41.896687633399
324.468438844404;41.744653856551
324.490061941176;41.5699460428592
324.511685037947;41.3750980342091
324.533308134719;41.1648660607285
324.55493123149;40.9487620761465
324.576554328262;40.736739349566
324.598177425033;40.5356066075073
324.619800521804;40.348144391122
324.641423618576;40.1848132035359
324.663046715347;40.0580370643719
324.684669812119;39.9692910941146
324.70629290889;39.9180799784491
324.727916005662;39.90279936058
324.749539102433;39.9185624356918
324.771162199204;39.9622312685481
