Name;ESR_BC_1_359s_X_gon_40dg_result

Recipe
Accumulations;5;Number of accumulations
RetryCount;0;Number of retries on error
AbortOnError;True;Abort on error
EnableQFactorMeasurement;False;Enable/Disable q-Factor measurement
Bfrom;313;B from
Bto;363;B to
SweepTime;60;Sweep time
Modulation;0.2;Modulation
ModulationFreq;100;Modulation
BHoldEnabled;False;B hold enabled
BHold;0;B hold
MicrowavePower;2;Microwave power
MarkerEnabled;False;
MarkerStartField;0;
MarkerEndField;0;
Mode;;
KineticGFact;0;
KineticTotalTransientTime;0;
KineticTimeResolution;0;
TempFrom;5;
TempUseSlope;False;
TempTo;5;
TempdT;1;
TempSetupTime;0;
GonFrom;0;
GonTo;180;
GonSteps;20;
XRayEnabled;False;
XRayTime;3;
XRayVoltage;40;
XRayCurrent;0.5;
UVEnabled;False;
UVIntensity;0;
UVTime;0;
UVLeadTime;0;
UVWavelength;0;
PowSweepFrom;1;
PowSweepTo;5;
PowSweepSteps;5;
AmpModSweepFrom;0;
AmpModSweepTo;1;
AmpModSweepSteps;10;
ExtTriggerEnabled;False;
ExtTrigLeadTime;0;
ExtTrigOnTime;5;

Meas
BField [mT];MW_Absorption []
313.009652862549;664.382423846395
313.031275548271;663.790815226085
313.052898233992;663.223753416106
313.074520919714;662.702642378823
313.096143605436;662.201474164053
313.117766291157;661.704178384643
313.139388976879;661.215120372187
313.161011662601;660.734429802141
313.182634348323;660.265438575401
313.204257034044;659.822637555794
313.225879719766;659.402093798144
313.247502405488;658.985240106871
313.269125091209;658.561899390294
313.290747776931;658.149545886951
313.312370462653;657.75841145826
313.333993148375;657.373281229073
313.355615834096;656.96956601166
313.377238519818;656.552246048531
313.39886120554;656.133340022968
313.420483891261;655.698140873126
313.442106576983;655.221290472092
313.463729262705;654.70202283123
313.485351948427;654.159585231856
313.506974634148;653.590578286697
313.52859731987;652.983146142219
313.550220005592;652.380817332285
313.571842691313;651.81730765896
313.593465377035;651.242312860481
313.615088062757;650.625780680686
313.636710748479;649.968144422521
313.6583334342;649.295260800271
313.679956119922;648.637889139419
313.701578805644;648.009050166847
313.723201491365;647.373166055459
313.744824177087;646.712485868276
313.766446862809;646.037531784809
313.788069548531;645.359256640352
313.809692234252;644.6858782995
313.831314919974;644.027054403641
313.852937605696;643.390462861633
313.874560291417;642.780716908599
313.896182977139;642.19517506581
313.917805662861;641.621072850176
313.939428348583;641.047547093979
313.961051034304;640.473287856841
313.982673720026;639.91187273107
314.004296405748;639.384164352623
314.025919091469;638.893628314867
314.047541777191;638.422215999624
314.069164462913;637.951904370726
314.090787148634;637.482182028799
314.112409834356;637.015527671596
314.134032520078;636.544740316464
314.1556552058;636.070195341194
314.177277891521;635.598208243555
314.198900577243;635.118994064087
314.220523262965;634.633889534505
314.242145948687;634.156115547431
314.263768634408;633.710508595827
314.28539132013;633.28062718214
314.307014005852;632.835283751515
314.328636691573;632.353844577735
314.350259377295;631.834646920704
314.371882063017;631.296828830642
314.393504748739;630.756284266704
314.41512743446;630.204784881582
314.436750120182;629.60373004442
314.458372805904;628.938435257364
314.479995491625;628.208808526339
314.501618177347;627.406296702413
314.523240863069;626.541937546899
314.54486354879;625.621921028179
314.566486234512;624.642371796823
314.588108920234;623.603416292135
314.609731605956;622.521541146049
314.631354291677;621.418054978898
314.652976977399;620.315066586689
314.674599663121;619.212202806431
314.696222348843;618.098896597024
314.717845034564;617.007010966054
314.739467720286;615.963921065478
314.761090406008;614.954793498149
314.782713091729;613.967982908841
314.804335777451;613.029841842952
314.825958463173;612.151130028176
314.847581148895;611.301694245434
314.869203834616;610.453522610487
314.890826520338;609.586989204382
314.91244920606;608.699052445716
314.934071891781;607.794051974234
314.955694577503;606.848177090694
314.977317263225;605.845147795183
314.998939948946;604.807784099942
315.020562634668;603.77014801753
315.04218532039;602.753241255962
315.063808006112;601.741978014191
315.085430691833;600.697338188288
315.107053377555;599.60333580574
315.128676063277;598.510152144215
315.150298748999;597.483427750736
315.17192143472;596.52323380757
315.193544120442;595.63405254146
315.215166806164;594.811581751196
315.236789491885;594.046575756702
315.258412177607;593.320945489265
315.280034863329;592.629873543407
315.301657549051;592.011824233695
315.323280234772;591.483534061575
315.344902920494;591.021721041452
315.366525606216;590.58686732672
315.388148291937;590.14669830318
315.409770977659;589.691241772367
315.431393663381;589.218394459136
315.453016349102;588.719444570463
315.474639034824;588.183083792976
315.496261720546;587.597370175114
315.517884406268;586.946250573227
315.539507091989;586.23269849163
315.561129777711;585.464923103956
315.582752463433;584.632536270045
315.604375149154;583.738199869468
315.625997834876;582.800943783398
315.647620520598;581.839709778043
315.66924320632;580.896669738313
315.690865892041;580.008246991603
315.712488577763;579.148397942816
315.734111263485;578.297059942601
315.755733949207;577.447477647129
315.777356634928;576.618198961415
315.79897932065;575.815274675533
315.820602006372;575.022645622216
315.842224692093;574.273265545905
315.863847377815;573.58229942454
315.885470063537;572.945439667809
315.907092749258;572.382197027119
315.92871543498;571.882518051655
315.950338120702;571.411484447387
315.971960806424;570.974883811762
315.993583492145;570.588548312893
316.015206177867;570.253276077765
316.036828863589;569.956498390584
316.05845154931;569.681214137509
316.080074235032;569.406418228644
316.101696920754;569.109069941521
316.123319606476;568.783174583252
316.144942292197;568.440416351086
316.166564977919;568.061710396858
316.188187663641;567.6345173455
316.209810349363;567.169899303599
316.231433035084;566.673837884223
316.253055720806;566.14497565528
316.274678406528;565.569375036023
316.296301092249;564.930269710663
316.317923777971;564.22978340921
316.339546463693;563.472471368272
316.361169149414;562.659405233363
316.382791835136;561.803294278608
316.404414520858;560.912021214622
316.42603720658;559.978142523403
316.447659892301;559.006642531426
316.469282578023;558.004487131789
316.490905263745;556.975032198943
316.512527949466;555.951624247126
316.534150635188;554.958300503359
316.55577332091;553.975295634656
316.577396006632;552.990675072472
316.599018692353;552.012515700573
316.620641378075;551.08528422344
316.642264063797;550.223307062499
316.663886749519;549.414802333174
316.68550943524;548.644104027273
316.707132120962;547.90067171805
316.728754806684;547.165247566874
316.750377492405;546.432829560755
316.772000178127;545.708429565692
316.793622863849;544.985153789289
316.81524554957;544.26478318883
316.836868235292;543.548227442952
316.858490921014;542.844919766008
316.880113606736;542.135882833907
316.901736292457;541.398682798755
316.923358978179;540.678403417484
316.944981663901;539.999581321319
316.966604349622;539.335587427997
316.988227035344;538.665816158867
317.009849721066;537.993783031167
317.031472406788;537.319325430172
317.053095092509;536.633487309553
317.074717778231;535.939123642639
317.096340463953;535.248790346356
317.117963149674;534.560361857683
317.139585835396;533.86250470676
317.161208521118;533.154489110303
317.18283120684;532.43687225648
317.204453892561;531.703851489641
317.226076578283;530.969598115071
317.247699264005;530.230106327478
317.269321949726;529.47574343047
317.290944635448;528.748414891088
317.31256732117;528.096545551593
317.334190006892;527.528893857908
317.355812692613;527.039426078745
317.377435378335;526.618564592159
317.399058064057;526.263773848129
317.420680749778;525.977050321645
317.4423034355;525.746217774675
317.463926121222;525.550529910766
317.485548806944;525.374275924046
317.507171492665;525.207059423332
317.528794178387;525.038246444588
317.550416864109;524.852159891817
317.57203954983;524.62917016711
317.593662235552;524.343500903219
317.615284921274;523.976607891479
317.636907606996;523.516499953368
317.658530292717;522.961981685015
317.680152978439;522.319897798576
317.701775664161;521.600154338982
317.723398349882;520.798632381142
317.745021035604;519.942424600508
317.766643721326;519.05892516037
317.788266407048;518.15852635656
317.809889092769;517.247710959942
317.831511778491;516.324902234518
317.853134464213;515.399280082162
317.874757149934;514.506535284693
317.896379835656;513.669943691357
317.918002521378;512.890969010697
317.9396252071;512.169423195934
317.961247892821;511.502450896901
317.982870578543;510.898018982904
318.004493264265;510.382255915491
318.026115949986;509.966694561593
318.047738635708;509.623614897209
318.06936132143;509.322880641678
318.090984007152;509.063212634084
318.112606692873;508.848266004497
318.134229378595;508.663832425588
318.155852064317;508.495228975456
318.177474750038;508.330569817685
318.19909743576;508.156766744764
318.220720121482;507.963668557632
318.242342807204;507.746205910289
318.263965492925;507.500870143559
318.285588178647;507.223705567485
318.307210864369;506.918497442634
318.32883355009;506.593155317235
318.350456235812;506.24128739291
318.372078921534;505.860777317198
318.393701607256;505.468267789156
318.415324292977;505.070708243469
318.436946978699;504.655960679938
318.458569664421;504.20178791401
318.480192350142;503.711235581031
318.501815035864;503.210752709807
318.523437721586;502.703992731694
318.545060407308;502.164823797368
318.566683093029;501.586941251455
318.588305778751;501.013285437642
318.609928464473;500.462404403772
318.631551150194;499.940215801568
318.653173835916;499.449159667718
318.674796521638;498.990205680506
318.69641920736;498.567783842765
318.718041893081;498.193483493555
318.739664578803;497.863496323974
318.761287264525;497.561012088356
318.782909950246;497.264099205057
318.804532635968;496.974163851555
318.82615532169;496.708319774145
318.847778007412;496.439306729822
318.869400693133;496.146255320809
318.891023378855;495.814964873584
318.912646064577;495.446952757678
318.934268750298;495.042454454344
318.95589143602;494.584890912963
318.977514121742;494.067959562152
318.999136807464;493.512971934903
319.020759493185;492.930719584551
319.042382178907;492.331428168842
319.064004864629;491.738465834113
319.08562755035;491.173256940895
319.107250236072;490.627636347382
319.128872921794;490.081315202936
319.150495607516;489.525967812956
319.172118293237;488.975125314771
319.193740978959;488.419551254734
319.215363664681;487.847515629322
319.236986350402;487.287838409173
319.258609036124;486.743692637663
319.280231721846;486.199324539856
319.301854407568;485.656398041668
319.323477093289;485.129973475241
319.345099779011;484.615524192388
319.366722464733;484.097472984742
319.388345150454;483.585269641344
319.409967836176;483.114842116095
319.431590521898;482.696200728069
319.45321320762;482.327601621426
319.474835893341;482.006929382134
319.496458579063;481.727860716034
319.518081264785;481.488567065486
319.539703950506;481.284528177804
319.561326636228;481.093420212641
319.58294932195;480.888691343066
319.604572007672;480.656039384765
319.626194693393;480.390735210754
319.647817379115;480.094177039347
319.669440064837;479.757705160403
319.691062750558;479.35940534285
319.71268543628;478.890664257081
319.734308122002;478.371570879707
319.755930807724;477.807948569913
319.777553493445;477.202858852813
319.799176179167;476.576753375548
319.820798864889;475.942270813218
319.84242155061;475.293641939176
319.864044236332;474.621867389555
319.885666922054;473.932465709975
319.907289607776;473.235862514713
319.928912293497;472.527920784379
319.950534979219;471.803599434071
319.972157664941;471.086701955366
319.993780350662;470.389794546944
320.015403036384;469.714079265626
320.037025722106;469.058483769365
320.058648407828;468.413767398772
320.080271093549;467.793415202938
320.101893779271;467.226182203418
320.123516464993;466.722645553052
320.145139150714;466.277124314848
320.166761836436;465.88383267076
320.188384522158;465.55475642861
320.21000720788;465.304116318017
320.231629893601;465.128575820522
320.253252579323;465.012465690719
320.274875265045;464.931738361633
320.296497950766;464.865060039527
320.318120636488;464.799872663934
320.33974332221;464.712397415719
320.361366007932;464.574118541512
320.382988693653;464.365255461148
320.404611379375;464.069656867576
320.426234065097;463.651216558209
320.447856750818;463.089436667889
320.46947943654;462.427417631199
320.491102122262;461.69360493919
320.512724807984;460.872415209617
320.534347493705;459.970240228928
320.555970179427;459.032282218801
320.577592865149;458.094616725155
320.59921555087;457.157074909559
320.620838236592;456.215511529977
320.642460922314;455.299116047124
320.664083608036;454.487116817694
320.685706293757;453.803551212243
320.707328979479;453.217186929009
320.728951665201;452.704920306346
320.750574350922;452.2626850116
320.772197036644;451.891390302261
320.793819722366;451.578031760979
320.815442408088;451.299543532008
320.837065093809;451.036519598645
320.858687779531;450.771310497799
320.880310465253;450.481376755005
320.901933150974;450.138687740722
320.923555836696;449.711341018177
320.945178522418;449.189546556281
320.96680120814;448.559920170422
320.988423893861;447.805404203589
321.010046579583;446.923157517339
321.031669265305;445.923258016052
321.053291951026;444.813496068516
321.074914636748;443.582975610622
321.09653732247;442.181336954396
321.118160008192;440.684953396054
321.139782693913;439.141060665922
321.161405379635;437.552548655393
321.183028065357;435.914810557383
321.204650751078;434.237280988311
321.2262734368;432.568727796956
321.247896122522;430.965132857638
321.269518808244;429.438196697384
321.291141493965;427.994938433442
321.312764179687;426.631807877475
321.334386865409;425.366578661038
321.35600955113;424.227828696402
321.377632236852;423.270846113149
321.399254922574;422.466280010491
321.420877608296;421.783059976692
321.442500294017;421.218719836898
321.464122979739;420.745201486554
321.485745665461;420.352744412293
321.507368351182;420.042463542629
321.528991036904;419.783565731427
321.550613722626;419.545285827751
321.572236408348;419.317593094323
321.593859094069;419.101775237178
321.615481779791;418.901314207911
321.637104465513;418.719202580323
321.658727151234;418.555878883621
321.680349836956;418.415447126288
321.701972522678;418.297916433112
321.7235952084;418.202929059737
321.745217894121;418.132135503961
321.766840579843;418.08260212602
321.788463265565;418.047326700091
321.810085951286;418.018842113848
321.831708637008;417.989713255192
321.85333132273;417.950676578648
321.874954008452;417.884127546519
321.896576694173;417.779742898496
321.918199379895;417.635440920651
321.939822065617;417.450482712332
321.961444751338;417.223361946098
321.98306743706;416.953930054533
322.004690122782;416.641175148973
322.026312808504;416.288693373708
322.047935494225;415.892395641189
322.069558179947;415.455262211971
322.091180865669;414.994311479899
322.11280355139;414.525775111264
322.134426237112;414.049721911504
322.156048922834;413.557541742678
322.177671608556;413.049965774025
322.199294294277;412.52428123705
322.220916979999;411.963033695329
322.242539665721;411.376704318116
322.264162351442;410.796534107409
322.285785037164;410.226904995565
322.307407722886;409.647095953352
322.329030408608;409.044369073662
322.350653094329;408.432411625139
322.372275780051;407.819738476921
322.393898465773;407.21934681044
322.415521151494;406.653805857591
322.437143837216;406.138347708287
322.458766522938;405.661501382101
322.48038920866;405.204353688903
322.502011894381;404.743412881609
322.523634580103;404.258710471152
322.545257265825;403.751940438853
322.566879951546;403.229181865622
322.588502637268;402.682601196839
322.61012532299;402.103300204674
322.631748008712;401.475118224828
322.653370694433;400.790531937735
322.674993380155;400.055238213496
322.696616065877;399.270531028597
322.718238751598;398.459002292201
322.73986143732;397.64501137274
322.761484123042;396.823162992454
322.783106808763;395.983634160579
322.804729494485;395.132620662931
322.826352180207;394.281412254318
322.847974865929;393.418420950822
322.86959755165;392.554927649439
322.891220237372;391.716696317565
322.912842923094;390.923896941507
322.934465608816;390.172955346298
322.956088294537;389.441886995049
322.977710980259;388.715662597827
322.999333665981;387.984396628854
323.020956351702;387.257484265272
323.042579037424;386.550317086133
323.064201723146;385.853396048978
323.085824408868;385.16165206391
323.107447094589;384.47523287345
323.129069780311;383.766081210708
323.150692466033;383.025305599955
323.172315151754;382.27511772664
323.193937837476;381.49735094717
323.215560523198;380.659028877439
323.237183208919;379.776684588355
323.258805894641;378.876716143445
323.280428580363;377.960167717242
323.302051266085;377.033563671625
323.323673951806;376.097884608028
323.345296637528;375.140096972584
323.36691932325;374.152184044735
323.388542008972;373.147847296231
323.410164694693;372.145223157227
323.431787380415;371.134119707395
323.453410066137;370.082273756613
323.475032751858;368.993319286144
323.49665543758;367.930736543778
323.518278123302;366.89738181153
323.539900809023;365.863127831052
323.561523494745;364.823103989196
323.583146180467;363.766821043922
323.604768866189;362.657441907224
323.62639155191;361.467843941405
323.648014237632;360.204080537341
323.669636923354;358.933692910772
323.691259609075;357.746071204204
323.712882294797;356.629930246098
323.734504980519;355.536189692954
323.756127666241;354.451316138439
323.777750351962;353.408590108409
323.799373037684;352.429178905169
323.820995723406;351.506308300354
323.842618409128;350.639964063813
323.864241094849;349.827259868511
323.885863780571;349.051434165854
323.907486466293;348.322738622727
323.929109152014;347.636566380463
323.950731837736;346.975358352662
323.972354523458;346.338342735815
323.993977209179;345.733204684494
324.015599894901;345.149817390585
324.037222580623;344.578426386953
324.058845266345;344.023320967457
324.080467952066;343.487589159004
324.102090637788;342.961224760404
324.12371332351;342.418802155034
324.145336009231;341.839849441439
324.166958694953;341.233654634795
324.188581380675;340.583437354566
324.210204066397;339.883982964147
324.231826752118;339.140529151006
324.25344943784;338.395706460343
324.275072123562;337.675185364479
324.296694809283;336.960325753533
324.318317495005;336.232754825051
324.339940180727;335.511120307318
324.361562866449;334.82807310701
324.38318555217;334.180924146228
324.404808237892;333.547552966857
324.426430923614;332.920435412362
324.448053609335;332.299323409788
324.469676295057;331.684589869496
324.491298980779;331.061265645962
324.512921666501;330.39438367164
324.534544352222;329.666203505582
324.556167037944;328.902307682697
324.577789723666;328.113339745539
324.599412409387;327.273872307114
324.621035095109;326.34561787541
324.642657780831;325.282592966995
324.664280466553;324.044853194276
324.685903152274;322.660299761365
324.707525837996;321.205293989759
324.729148523718;319.728800956098
324.750771209439;318.249931689288
