Name;ESR_BC_1_3600s_X_gon_100dg_result

Recipe
Accumulations;5;Number of accumulations
RetryCount;0;Number of retries on error
AbortOnError;True;Abort on error
EnableQFactorMeasurement;False;Enable/Disable q-Factor measurement
Bfrom;313;B from
Bto;363;B to
SweepTime;60;Sweep time
Modulation;0.2;Modulation
ModulationFreq;100;Modulation
BHoldEnabled;False;B hold enabled
BHold;0;B hold
MicrowavePower;2;Microwave power
MarkerEnabled;False;
MarkerStartField;0;
MarkerEndField;0;
Mode;;
KineticGFact;0;
KineticTotalTransientTime;0;
KineticTimeResolution;0;
TempFrom;5;
TempUseSlope;False;
TempTo;5;
TempdT;1;
TempSetupTime;0;
GonFrom;0;
GonTo;180;
GonSteps;20;
XRayEnabled;False;
XRayTime;3;
XRayVoltage;40;
XRayCurrent;0.5;
UVEnabled;False;
UVIntensity;0;
UVTime;0;
UVLeadTime;0;
UVWavelength;0;
PowSweepFrom;1;
PowSweepTo;5;
PowSweepSteps;5;
AmpModSweepFrom;0;
AmpModSweepTo;1;
AmpModSweepSteps;10;
ExtTriggerEnabled;False;
ExtTrigLeadTime;0;
ExtTrigOnTime;5;

Meas
BField [mT];MW_Absorption []
313.030545806885;529.999938683527
313.052174229083;529.424197908512
313.073802651281;528.892615430987
313.095431073479;528.383232525328
313.117059495677;527.868558959169
313.138687917875;527.350837955449
313.160316340073;526.855058557049
313.181944762272;526.356787854345
313.20357318447;525.81068374183
313.225201606668;525.198789570113
313.246830028866;524.539234659895
313.268458451064;523.841497637925
313.290086873262;523.101947250176
313.31171529546;522.336330760849
313.333343717658;521.540696045734
313.354972139857;520.710932790557
313.376600562055;519.86893066595
313.398228984253;519.017657585805
313.419857406451;518.158904162422
313.441485828649;517.302028120478
313.463114250847;516.462820879921
313.484742673045;515.649544412939
313.506371095243;514.860951974639
313.527999517442;514.089464413943
313.54962793964;513.338435882977
313.571256361838;512.621086987874
313.592884784036;511.935690719959
313.614513206234;511.265088312977
313.636141628432;510.580143916573
313.65777005063;509.857469762333
313.679398472828;509.089439901379
313.701026895027;508.287790613151
313.722655317225;507.472772021171
313.744283739423;506.645604945263
313.765912161621;505.783415560988
313.787540583819;504.864089845947
313.809169006017;503.88512346074
313.830797428215;502.861058514232
313.852425850413;501.832427178964
313.874054272612;500.824451322486
313.89568269481;499.817322247893
313.917311117008;498.763063220332
313.938939539206;497.641634751134
313.960567961404;496.500833287196
313.982196383602;495.399900169269
314.0038248058;494.335389665302
314.025453227998;493.298855163266
314.047081650197;492.310466342883
314.068710072395;491.333368432735
314.090338494593;490.328397833656
314.111966916791;489.31579533632
314.133595338989;488.363916297679
314.155223761187;487.507375982748
314.176852183385;486.717369024811
314.198480605583;485.94755987284
314.220109027782;485.210864998027
314.24173744998;484.523681338809
314.263365872178;483.880637659139
314.284994294376;483.276926530047
314.306622716574;482.708622232358
314.328251138772;482.160247613392
314.34987956097;481.622184911958
314.371507983168;481.101177664056
314.393136405367;480.589300309745
314.414764827565;480.047406808589
314.436393249763;479.455061727883
314.458021671961;478.827119389936
314.479650094159;478.179372256579
314.501278516357;477.513551381233
314.522906938555;476.825366921811
314.544535360753;476.102962358705
314.566163782952;475.34592689073
314.58779220515;474.575282377265
314.609420627348;473.808000230091
314.631049049546;473.05612352328
314.652677471744;472.309886193644
314.674305893942;471.574543965994
314.69593431614;470.88528582677
314.717562738338;470.251283460595
314.739191160537;469.649070246273
314.760819582735;469.05571928027
314.782448004933;468.465121146792
314.804076427131;467.891736847205
314.825704849329;467.355773123081
314.847333271527;466.851391878266
314.868961693725;466.361648711146
314.890590115923;465.867217602336
314.912218538122;465.36636360953
314.93384696032;464.863154756908
314.955475382518;464.350700286965
314.977103804716;463.827451505938
314.998732226914;463.29703633014
315.020360649112;462.766855624042
315.04198907131;462.241126115049
315.063617493508;461.723499489675
315.085245915707;461.227454178109
315.106874337905;460.760962722966
315.128502760103;460.308438456252
315.150131182301;459.871701389455
315.171759604499;459.468331085716
315.193388026697;459.094043254732
315.215016448895;458.743348575845
315.236644871093;458.413353567542
315.258273293292;458.095151704974
315.27990171549;457.783795816091
315.301530137688;457.477244590878
315.323158559886;457.182457307353
315.344786982084;456.892367011633
315.366415404282;456.585485028734
315.38804382648;456.239777834105
315.409672248678;455.851630270291
315.431300670877;455.432084639943
315.452929093075;454.978297634609
315.474557515273;454.454272659851
315.496185937471;453.805800845384
315.517814359669;453.013085925218
315.539442781867;452.141136437276
315.561071204065;451.268905983838
315.582699626263;450.382135832717
315.604328048462;449.432693970994
315.62595647066;448.393010286546
315.647584892858;447.293659064743
315.669213315056;446.180262671385
315.690841737254;445.103137017608
315.712470159452;444.08426031429
315.73409858165;443.128309818082
315.755727003848;442.240484620358
315.777355426046;441.426938113947
315.798983848245;440.698276014545
315.820612270443;440.049853991144
315.842240692641;439.48429707286
315.863869114839;439.003443642368
315.885497537037;438.58504878247
315.907125959235;438.209057701766
315.928754381433;437.858355384501
315.950382803632;437.515711653195
315.97201122583;437.172407598597
315.993639648028;436.831186640592
316.015268070226;436.488694118951
316.036896492424;436.144922285735
316.058524914622;435.808491807723
316.08015333682;435.479249865373
316.101781759018;435.179608088275
316.123410181217;434.905962210603
316.145038603415;434.639735859478
316.166667025613;434.375097038475
316.188295447811;434.111037028072
316.209923870009;433.844641151281
316.231552292207;433.582481179729
316.253180714405;433.318233887367
316.274809136603;433.037312775136
316.296437558801;432.727850713124
316.318065981;432.385030585786
316.339694403198;431.998818439719
316.361322825396;431.580878192936
316.382951247594;431.151134364458
316.404579669792;430.719055928532
316.42620809199;430.284892556714
316.447836514188;429.850464885434
316.469464936386;429.420080510653
316.491093358585;428.995547757616
316.512721780783;428.596521520248
316.534350202981;428.251611132996
316.555978625179;427.948942178661
316.577607047377;427.670443409098
316.599235469575;427.412537115507
316.620863891773;427.173643919851
316.642492313971;426.94219688116
316.66412073617;426.710501444378
316.685749158368;426.475236634084
316.707377580566;426.223318520878
316.729006002764;425.942657952655
316.750634424962;425.641513084129
316.77226284716;425.328788073997
316.793891269358;425.00285003025
316.815519691556;424.664380568732
316.837148113755;424.313134671135
316.858776535953;423.950222241785
316.880404958151;423.586729499386
316.902033380349;423.237503640677
316.923661802547;422.902232582549
316.945290224745;422.573111434572
316.966918646943;422.245585218734
316.988547069141;421.916537075837
317.01017549134;421.580248287502
317.031803913538;421.233492208058
317.053432335736;420.885465104103
317.075060757934;420.544736195654
317.096689180132;420.203702134046
317.11831760233;419.849031971002
317.139946024528;419.470912428737
317.161574446726;419.057599148817
317.183202868925;418.608118795915
317.204831291123;418.13449562262
317.226459713321;417.651999097035
317.248088135519;417.17389880915
317.269716557717;416.698023660005
317.291344979915;416.220918253395
317.312973402113;415.749272393069
317.334601824311;415.285777541681
317.35623024651;414.833894075657
317.377858668708;414.41675308278
317.399487090906;414.043858944088
317.421115513104;413.715762836543
317.442743935302;413.433225199382
317.4643723575;413.190595697689
317.486000779698;412.980709655111
317.507629201896;412.804418404749
317.529257624095;412.664588461782
317.550886046293;412.557600609618
317.572514468491;412.469470344636
317.594142890689;412.373397975315
317.615771312887;412.245610264648
317.637399735085;412.069450116229
317.659028157283;411.833365686791
317.680656579481;411.531916159731
317.70228500168;411.139430154453
317.723913423878;410.637958901595
317.745541846076;410.047146098907
317.767170268274;409.378116762612
317.788798690472;408.60383542405
317.81042711267;407.733306261971
317.832055534868;406.792610497326
317.853683957066;405.799343445591
317.875312379265;404.769441476048
317.896940801463;403.743667969832
317.918569223661;402.760420224012
317.940197645859;401.80961142428
317.961826068057;400.877556575973
317.983454490255;399.998103503701
318.005082912453;399.197950371703
318.026711334651;398.47217647408
318.04833975685;397.833723996641
318.069968179048;397.278423852957
318.091596601246;396.788320768816
318.113225023444;396.349544429448
318.134853445642;395.948016101811
318.15648186784;395.577258817335
318.178110290038;395.241882376643
318.199738712236;394.936998864259
318.221367134435;394.643504070722
318.242995556633;394.349187003226
318.264623978831;394.056741541477
318.286252401029;393.773623212425
318.307880823227;393.51015981841
318.329509245425;393.274529501291
318.351137667623;393.077052662039
318.372766089821;392.929144441065
318.39439451202;392.845172158638
318.416022934218;392.832597424725
318.437651356416;392.889401331375
318.459279778614;393.007951062308
318.480908200812;393.170079402297
318.50253662301;393.363453506173
318.524165045208;393.582968897736
318.545793467406;393.809949876928
318.567421889605;394.008935764952
318.589050311803;394.152601796946
318.610678734001;394.228863694635
318.632307156199;394.223726921846
318.653935578397;394.119195943011
318.675564000595;393.904862546172
318.697192422793;393.579969674692
318.718820844991;393.150751837068
318.74044926719;392.626541260459
318.762077689388;392.02935108583
318.783706111586;391.392332848749
318.805334533784;390.734621273609
318.826962955982;390.07271780356
318.84859137818;389.422787243452
318.870219800378;388.775382496216
318.891848222576;388.118769687945
318.913476644775;387.474408505574
318.935105066973;386.868651377634
318.956733489171;386.291801229418
318.978361911369;385.726010971507
318.999990333567;385.17004325682
319.021618755765;384.633614077942
319.043247177963;384.107289077493
319.064875600161;383.562135068611
319.08650402236;382.986212217374
319.108132444558;382.388839744831
319.129760866756;381.771834896528
319.151389288954;381.121578262978
319.173017711152;380.43733883645
319.19464613335;379.744451438656
319.216274555548;379.060003164943
319.237902977746;378.370423052538
319.259531399944;377.660124930708
319.281159822143;376.934732253462
319.302788244341;376.226239967716
319.324416666539;375.563657449886
319.346045088737;374.970156005119
319.367673510935;374.454649311195
319.389301933133;373.998184452121
319.410930355331;373.576817451463
319.432558777529;373.191506279984
319.454187199728;372.857149041708
319.475815621926;372.566192896814
319.497444044124;372.297786341787
319.519072466322;372.028600321887
319.54070088852;371.74457562787
319.562329310718;371.451874492827
319.583957732916;371.154138516805
319.605586155115;370.834475535756
319.627214577313;370.481264930237
319.648842999511;370.111492354576
319.670471421709;369.747995218091
319.692099843907;369.403818912393
319.713728266105;369.089958128172
319.735356688303;368.809384918921
319.756985110501;368.559520623803
319.778613532699;368.357231151875
319.800241954898;368.21924984669
319.821870377096;368.150736036008
319.843498799294;368.160798424702
319.865127221492;368.266985658182
319.88675564369;368.4622587312
319.908384065888;368.74183171287
319.930012488086;369.106101689577
319.951640910284;369.556888310961
319.973269332483;370.082572209463
319.994897754681;370.680284413702
320.016526176879;371.349122911469
320.038154599077;372.065018755745
320.059783021275;372.788374509114
320.081411443473;373.496937671452
320.103039865671;374.2095786227
320.124668287869;374.953819205344
320.146296710068;375.703827820117
320.167925132266;376.410615828733
320.189553554464;377.036591021236
320.211181976662;377.57358382532
320.23281039886;378.025312988019
320.254438821058;378.387766096758
320.276067243256;378.655457579009
320.297695665454;378.819685822715
320.319324087653;378.873429646447
320.340952509851;378.813373840108
320.362580932049;378.622740100782
320.384209354247;378.280370741647
320.405837776445;377.794276413203
320.427466198643;377.170521220688
320.449094620841;376.397068949567
320.470723043039;375.474702180018
320.492351465238;374.418385858615
320.513979887436;373.228531734394
320.535608309634;371.917689888968
320.557236731832;370.564974172275
320.57886515403;369.235387904529
320.600493576228;367.911633894765
320.622121998426;366.530116780189
320.643750420624;365.084719249539
320.665378842823;363.687603267724
320.687007265021;362.430060899517
320.708635687219;361.280892997704
320.730264109417;360.240673983325
320.751892531615;359.322045374214
320.773520953813;358.511053447841
320.795149376011;357.784809461211
320.816777798209;357.115548310904
320.838406220408;356.459900400115
320.860034642606;355.768232218888
320.881663064804;355.039471574448
320.903291487002;354.288510638468
320.9249199092;353.497192213915
320.946548331398;352.656642761322
320.968176753596;351.762251974664
320.989805175794;350.790532590172
321.011433597993;349.699590710703
321.033062020191;348.447866095166
321.054690442389;347.057938667234
321.076318864587;345.604365939018
321.097947286785;344.114583953224
321.119575708983;342.554408046999
321.141204131181;340.885678846964
321.162832553379;339.150291126673
321.184460975578;337.434407793416
321.206089397776;335.764478717914
321.227717819974;334.091687742216
321.249346242172;332.40801177666
321.27097466437;330.760303291292
321.292603086568;329.203967054481
321.314231508766;327.773349237963
321.335859930964;326.502698249757
321.357488353163;325.433601250338
321.379116775361;324.569307827735
321.400745197559;323.883522615625
321.422373619757;323.365187154144
321.444002041955;323.007355396096
321.465630464153;322.79264987842
321.487258886351;322.692148091445
321.508887308549;322.687366074444
321.530515730748;322.769369484253
321.552144152946;322.932152163399
321.573772575144;323.171314410482
321.595400997342;323.467729511805
321.61702941954;323.807023973536
321.638657841738;324.179258266912
321.660286263936;324.583133542409
321.681914686134;325.00639337565
321.703543108333;325.427929317005
321.725171530531;325.83025032221
321.746799952729;326.206457888828
321.768428374927;326.555328450262
321.790056797125;326.867120050897
321.811685219323;327.125640583967
321.833313641521;327.319829548878
321.854942063719;327.443177056541
321.876570485918;327.492763131104
321.898198908116;327.472319570652
321.919827330314;327.389849305492
321.941455752512;327.255874993489
321.96308417471;327.078365506889
321.984712596908;326.864152554903
322.006341019106;326.635845914948
322.027969441304;326.414759201817
322.049597863503;326.203423207946
322.071226285701;326.004454851445
322.092854707899;325.829757177597
322.114483130097;325.687116332596
322.136111552295;325.577284942331
322.157739974493;325.503072679883
322.179368396691;325.472631055574
322.200996818889;325.484512762918
322.222625241088;325.519316045257
322.244253663286;325.567681123683
322.265882085484;325.623954853634
322.287510507682;325.678326201816
322.30913892988;325.713335794297
322.330767352078;325.711828739973
322.352395774276;325.657981799156
322.374024196474;325.538241847075
322.395652618673;325.353579372543
322.417281040871;325.101117620671
322.438909463069;324.76098905053
322.460537885267;324.33834449059
322.482166307465;323.874476747085
322.503794729663;323.385351829499
322.525423151861;322.873300092467
322.547051574059;322.356318683204
322.568679996258;321.838799255921
322.590308418456;321.321706235245
322.611936840654;320.829314312647
322.633565262852;320.406490063456
322.65519368505;320.058585897685
322.676822107248;319.766266283414
322.698450529446;319.529997056649
322.720078951644;319.348132326438
322.741707373842;319.221955362846
322.763335796041;319.152419162412
322.784964218239;319.131754684605
322.806592640437;319.147483433974
322.828221062635;319.188747913264
322.849849484833;319.241069265638
322.871477907031;319.294761224813
322.893106329229;319.342289203508
322.914734751427;319.369497060462
322.936363173626;319.360182204246
322.957991595824;319.295081606892
322.979620018022;319.17427636865
323.00124844022;319.008344441612
323.022876862418;318.801192921598
323.044505284616;318.543051188816
323.066133706814;318.225485693401
323.087762129013;317.877375766233
323.109390551211;317.519007331772
323.131018973409;317.15207275554
323.152647395607;316.780762726221
323.174275817805;316.413114935646
323.195904240003;316.044741880259
323.217532662201;315.658360707675
323.239161084399;315.2504365726
323.260789506597;314.84636795205
323.282417928796;314.464531284939
323.304046350994;314.096163331395
323.325674773192;313.742868490925
323.34730319539;313.408921706835
323.368931617588;313.083976531972
323.390560039786;312.759899626576
323.412188461984;312.451374679407
323.433816884182;312.150102802859
323.455445306381;311.843019534169
323.477073728579;311.527547778544
323.498702150777;311.201650612285
323.520330572975;310.870423894061
323.541958995173;310.529897374405
323.563587417371;310.171884093204
323.585215839569;309.796925686954
323.606844261767;309.397077743184
323.628472683966;308.962832029473
323.650101106164;308.488880745433
323.671729528362;307.968902511991
323.69335795056;307.422816736963
323.714986372758;306.869602333157
323.736614794956;306.288055739826
323.758243217154;305.66225486216
323.779871639352;304.984963285061
323.801500061551;304.247804606102
323.823128483749;303.476602509535
323.844756905947;302.670376436272
323.866385328145;301.839660197872
323.888013750343;300.968676624237
323.909642172541;300.040321420549
323.931270594739;299.097531447538
323.952899016937;298.159586006327
323.974527439136;297.196450781385
323.996155861334;296.198917026488
324.017784283532;295.166028684343
324.03941270573;294.117633570761
324.061041127928;293.098018149096
324.082669550126;292.148923275985
324.104297972324;291.249949207992
324.125926394522;290.362660172732
324.147554816721;289.468981928456
324.169183238919;288.596602705152
324.190811661117;287.752347589834
324.212440083315;286.923719373946
324.234068505513;286.098704441449
324.255696927711;285.252192050285
324.277325349909;284.363065549272
324.298953772107;283.450337811045
324.320582194306;282.523673156223
324.342210616504;281.572583367718
324.363839038702;280.610018444155
324.3854674609;279.635708415724
324.407095883098;278.623319326482
324.428724305296;277.565059101634
324.450352727494;276.524571632346
324.471981149692;275.52859786473
324.493609571891;274.550760817031
324.515237994089;273.56866691508
324.536866416287;272.577107395087
324.558494838485;271.604928548522
324.580123260683;270.674603873401
324.601751682881;269.772949289515
324.623380105079;268.878257907694
324.645008527277;267.981858393364
324.666636949476;267.090288504953
324.688265371674;266.194384708327
324.709893793872;265.269633638617
324.73152221607;264.303949907409
324.753150638268;263.301943259496
324.774779060466;262.324053016346
