Name;ESR_BC_1_3600s_Y_gon_20dg_result

Recipe
Accumulations;5;Number of accumulations
RetryCount;0;Number of retries on error
AbortOnError;True;Abort on error
EnableQFactorMeasurement;False;Enable/Disable q-Factor measurement
Bfrom;313;B from
Bto;363;B to
SweepTime;60;Sweep time
Modulation;0.2;Modulation
ModulationFreq;100;Modulation
BHoldEnabled;False;B hold enabled
BHold;0;B hold
MicrowavePower;2;Microwave power
MarkerEnabled;False;
MarkerStartField;0;
MarkerEndField;0;
Mode;;
KineticGFact;0;
KineticTotalTransientTime;0;
KineticTimeResolution;0;
TempFrom;5;
TempUseSlope;False;
TempTo;5;
TempdT;1;
TempSetupTime;0;
GonFrom;0;
GonTo;180;
GonSteps;20;
XRayEnabled;False;
XRayTime;3;
XRayVoltage;40;
XRayCurrent;0.5;
UVEnabled;False;
UVIntensity;0;
UVTime;0;
UVLeadTime;0;
UVWavelength;0;
PowSweepFrom;1;
PowSweepTo;5;
PowSweepSteps;5;
AmpModSweepFrom;0;
AmpModSweepTo;1;
AmpModSweepSteps;10;
ExtTriggerEnabled;False;
ExtTrigLeadTime;0;
ExtTrigOnTime;5;

Meas
BField [mT];MW_Absorption []
313.023320236206;148.709384890539
313.044943081084;148.384441807094
313.066565925961;148.027890497189
313.088188770839;147.639702808917
313.109811615717;147.207780546163
313.131434460595;146.729661126785
313.153057305472;146.207516867649
313.17468015035;145.631128523415
313.196302995228;144.989735069506
313.217925840105;144.277784968816
313.239548684983;143.508310895489
313.261171529861;142.720466571938
313.282794374738;141.934618964635
313.304417219616;141.143281894489
313.326040064494;140.364354101413
313.347662909371;139.645535654402
313.369285754249;138.997216329252
313.390908599127;138.420140550283
313.412531444005;137.936877503155
313.434154288882;137.563438101864
313.45577713376;137.289498329512
313.477399978638;137.107847168834
313.499022823515;137.029926315102
313.520645668393;137.048969329804
313.542268513271;137.136513087864
313.563891358148;137.283867227186
313.585514203026;137.475189922838
313.607137047904;137.697880511184
313.628759892782;137.941296116648
313.650382737659;138.184395090128
313.672005582537;138.410588694861
313.693628427415;138.607099774753
313.715251272292;138.757061288833
313.73687411717;138.843550291454
313.758496962048;138.870199527262
313.780119806925;138.84905132433
313.801742651803;138.785738913606
313.823365496681;138.682359376934
313.844988341559;138.544394504752
313.866611186436;138.377060661341
313.888234031314;138.178935638662
313.909856876192;137.9488636798
313.931479721069;137.693861513681
313.953102565947;137.435685005102
313.974725410825;137.188524074666
313.996348255702;136.953263142169
314.01797110058;136.734716917684
314.039593945458;136.539987080136
314.061216790335;136.371174549161
314.082839635213;136.233544904838
314.104462480091;136.132613644204
314.126085324969;136.065411760297
314.147708169846;136.018925802553
314.169331014724;135.988039169108
314.190953859602;135.977171138552
314.212576704479;135.996971261416
314.234199549357;136.033035402486
314.255822394235;136.071788357937
314.277445239112;136.107452393231
314.29906808399;136.13407408722
314.320690928868;136.147676711601
314.342313773746;136.144411811978
314.363936618623;136.123952576272
314.385559463501;136.086805027899
314.407182308379;136.028623725613
314.428805153256;135.954341416728
314.450427998134;135.873052066595
314.472050843012;135.784542592491
314.493673687889;135.683270455311
314.515296532767;135.572422650641
314.536919377645;135.472410477712
314.558542222523;135.388558613517
314.5801650674;135.31743009136
314.601787912278;135.248357050673
314.623410757156;135.180441413006
314.645033602033;135.11713414976
314.666656446911;135.067443126572
314.688279291789;135.044085446486
314.709902136666;135.060226461492
314.731524981544;135.120103652676
314.753147826422;135.215646420193
314.7747706713;135.344560998054
314.796393516177;135.509842772107
314.818016361055;135.704629167884
314.839639205933;135.917806669164
314.86126205081;136.147152793657
314.882884895688;136.405191301931
314.904507740566;136.682146662743
314.926130585443;136.95074461417
314.947753430321;137.195939285625
314.969376275199;137.414476639979
314.990999120076;137.600375495516
315.012621964954;137.740468416674
315.034244809832;137.828097228484
315.05586765471;137.867161022996
315.077490499587;137.856067789463
315.099113344465;137.787453630222
315.120736189343;137.662897065039
315.14235903422;137.487302610869
315.163981879098;137.261669311955
315.185604723976;136.984924994331
315.207227568853;136.646185220018
315.228850413731;136.268622777727
315.250473258609;135.869694624081
315.272096103487;135.459935595062
315.293718948364;135.035651510643
315.315341793242;134.602113481772
315.33696463812;134.184247017286
315.358587482997;133.79840942082
315.380210327875;133.459865870547
315.401833172753;133.161548413033
315.42345601763;132.896881602749
315.445078862508;132.668371600711
315.466701707386;132.4784963282
315.488324552264;132.33703984827
315.509947397141;132.251334711094
315.531570242019;132.208528444898
315.553193086897;132.207237681384
315.574815931774;132.248923695955
315.596438776652;132.3225586025
315.61806162153;132.408370881092
315.639684466407;132.492111268514
315.661307311285;132.567844844667
315.682930156163;132.631582450437
315.70455300104;132.679815606826
315.726175845918;132.709342763098
315.747798690796;132.718089355896
315.769421535674;132.705954348136
315.791044380551;132.672073862528
315.812667225429;132.612652499072
315.834290070307;132.525379985084
315.855912915184;132.419294341708
315.877535760062;132.313084432445
315.89915860494;132.221926910253
315.920781449817;132.150131079623
315.942404294695;132.100024708579
315.964027139573;132.078435841318
315.985649984451;132.098155196505
316.007272829328;132.165967780556
316.028895674206;132.280458350392
316.050518519084;132.44213468598
316.072141363961;132.644480007486
316.093764208839;132.880958931894
316.115387053717;133.156559620187
316.137009898594;133.479062166025
316.158632743472;133.833362350722
316.18025558835;134.183114397834
316.201878433227;134.511875517777
316.223501278105;134.82320754132
316.245124122983;135.121904488006
316.266746967861;135.403784747098
316.288369812738;135.657966775512
316.309992657616;135.872774931038
316.331615502494;136.043575401308
316.353238347371;136.169801936302
316.374861192249;136.251174545015
316.396484037127;136.286593067343
316.418106882004;136.282442981849
316.439729726882;136.253753026136
316.46135257176;136.205522770568
316.482975416638;136.13512622316
316.504598261515;136.040075739054
316.526221106393;135.926251341909
316.547843951271;135.789409187549
316.569466796148;135.624862933408
316.591089641026;135.432125194807
316.612712485904;135.210750180382
316.634335330781;134.966370424182
316.655958175659;134.70490172626
316.677581020537;134.423951542169
316.699203865415;134.122779722864
316.720826710292;133.821453830838
316.74244955517;133.525445564185
316.764072400048;133.235723214705
316.785695244925;132.969847924868
316.807318089803;132.746527245901
316.828940934681;132.569999583833
316.850563779558;132.443676042187
316.872186624436;132.368696680917
316.893809469314;132.336809178572
316.915432314191;132.348096028518
316.937055159069;132.400824904875
316.958678003947;132.485388228706
316.980300848825;132.590982471596
317.001923693702;132.711233294829
317.02354653858;132.832703039305
317.045169383458;132.942801979688
317.066792228335;133.045455837565
317.088415073213;133.13684890061
317.110037918091;133.202363181798
317.131660762968;133.236269069947
317.153283607846;133.243243159524
317.174906452724;133.221004990709
317.196529297602;133.171226387758
317.218152142479;133.090485993351
317.239774987357;132.992321054517
317.261397832235;132.880452220748
317.283020677112;132.773919514181
317.30464352199;132.688253906863
317.326266366868;132.612621585407
317.347889211745;132.537993357192
317.369512056623;132.471380277369
317.391134901501;132.430859844435
317.412757746379;132.433606400022
317.434380591256;132.458043640406
317.456003436134;132.486164688996
317.477626281012;132.513808645426
317.499249125889;132.536577883881
317.520871970767;132.547150598113
317.542494815645;132.526268344281
317.564117660522;132.450211740673
317.5857405054;132.325577913097
317.607363350278;132.166128054784
317.628986195156;131.968309825493
317.650609040033;131.729579976882
317.672231884911;131.461940129592
317.693854729789;131.179530166446
317.715477574666;130.883369769514
317.737100419544;130.574518860965
317.758723264422;130.272774565078
317.780346109299;130.008149043332
317.801968954177;129.791865054013
317.823591799055;129.621999321788
317.845214643932;129.499182212453
317.86683748881;129.431055272474
317.888460333688;129.411044883082
317.910083178566;129.430086742521
317.931706023443;129.48427250719
317.953328868321;129.569588488909
317.974951713199;129.676680841857
317.996574558076;129.796074324934
318.018197402954;129.924715732309
318.039820247832;130.061530686946
318.061443092709;130.201241147373
318.083065937587;130.33176030693
318.104688782465;130.446359154904
318.126311627343;130.549496301061
318.14793447222;130.64608296268
318.169557317098;130.741136656014
318.191180161976;130.840893260475
318.212803006853;130.951766028294
318.234425851731;131.07514336721
318.256048696609;131.19938413759
318.277671541486;131.318974960882
318.299294386364;131.441511066161
318.320917231242;131.569242878245
318.34254007612;131.698523482499
318.364162920997;131.82048076353
318.385785765875;131.927568127584
318.407408610753;132.013805515926
318.42903145563;132.074830909964
318.450654300508;132.113429803519
318.472277145386;132.136691307968
318.493899990263;132.152711647892
318.515522835141;132.167996879056
318.537145680019;132.187471568982
318.558768524896;132.217478866087
318.580391369774;132.267493042113
318.602014214652;132.347056812779
318.62363705953;132.460576916949
318.645259904407;132.593952338225
318.666882749285;132.734311448848
318.688505594163;132.869205074759
318.71012843904;132.978629664006
318.731751283918;133.051042227864
318.753374128796;133.082499208885
318.774996973673;133.070057161904
318.796619818551;133.013614466501
318.818242663429;132.912603940161
318.839865508307;132.766097319361
318.861488353184;132.583015758499
318.883111198062;132.376053064254
318.90473404294;132.147706533936
318.926356887817;131.90122957596
318.947979732695;131.670141290104
318.969602577573;131.482901688964
318.99122542245;131.33541823831
319.012848267328;131.227267324634
319.034471112206;131.154217933221
319.056093957084;131.108766353966
319.077716801961;131.09581133266
319.099339646839;131.107663949479
319.120962491717;131.127446393754
319.142585336594;131.141962680833
319.164208181472;131.146833162125
319.18583102635;131.151044745028
319.207453871227;131.147923656612
319.229076716105;131.123661639046
319.250699560983;131.074027989073
319.272322405861;131.010448353141
319.293945250738;130.948947364705
319.315568095616;130.898924325487
319.337190940494;130.871686776717
319.358813785371;130.863837559078
319.380436630249;130.86127304398
319.402059475127;130.868414489207
319.423682320004;130.904523879563
319.445305164882;130.985151394402
319.46692800976;131.085241367055
319.488550854637;131.189548296339
319.510173699515;131.300711620444
319.531796544393;131.41765419894
319.553419389271;131.535445168728
319.575042234148;131.658715238007
319.596665079026;131.782337509991
319.618287923904;131.891410994211
319.639910768781;131.983368612885
319.661533613659;132.064750710878
319.683156458537;132.144520942025
319.704779303414;132.214297240743
319.726402148292;132.253889595265
319.74802499317;132.264326327127
319.769647838048;132.252564518083
319.791270682925;132.22672108116
319.812893527803;132.199295159971
319.834516372681;132.176069010717
319.856139217558;132.153098128092
319.877762062436;132.121408298368
319.899384907314;132.073735339187
319.921007752191;132.009013580697
319.942630597069;131.929373527427
319.964253441947;131.833874051044
319.985876286825;131.713762681116
320.007499131702;131.55973283357
320.02912197658;131.371081095604
320.050744821458;131.151022239857
320.072367666335;130.900476540286
320.093990511213;130.617421336138
320.115613356091;130.311513308241
320.137236200968;130.009445001767
320.158859045846;129.732255730905
320.180481890724;129.486317911977
320.202104735601;129.276087097096
320.223727580479;129.115139086259
320.245350425357;129.017162892624
320.266973270235;128.991034229428
320.288596115112;129.032950695031
320.31021895999;129.122374060239
320.331841804868;129.238900634733
320.353464649745;129.373548312269
320.375087494623;129.521836660663
320.396710339501;129.675819710031
320.418333184378;129.824777432811
320.439956029256;129.959330803486
320.461578874134;130.063696625406
320.483201719012;130.12761495743
320.504824563889;130.159414500557
320.526447408767;130.175925225562
320.548070253645;130.184401244873
320.569693098522;130.18227122798
320.5913159434;130.171662503597
320.612938788278;130.16004743146
320.634561633155;130.153920771363
320.656184478033;130.149219703684
320.677807322911;130.131540513289
320.699430167789;130.098557034211
320.721053012666;130.050465099861
320.742675857544;129.980964480002
320.764298702422;129.871753818654
320.785921547299;129.709889860375
320.807544392177;129.510121689244
320.829167237055;129.290972859612
320.850790081932;129.062087329423
320.87241292681;128.837118330081
320.894035771688;128.642952630376
320.915658616566;128.496186992594
320.937281461443;128.39341566605
320.958904306321;128.335078034713
320.980527151199;128.325117270805
321.002149996076;128.369893654947
321.023772840954;128.475137149882
321.045395685832;128.623569355426
321.067018530709;128.796970021323
321.088641375587;128.991543170901
321.110264220465;129.204807344683
321.131887065342;129.432071539971
321.15350991022;129.669084032121
321.175132755098;129.908745000997
321.196755599976;130.142709766582
321.218378444853;130.370304867345
321.240001289731;130.588946341932
321.261624134609;130.780978634812
321.283246979486;130.925642196414
321.304869824364;131.027361162995
321.326492669242;131.094819017359
321.348115514119;131.128084479619
321.369738358997;131.107104952875
321.391361203875;131.015900988622
321.412984048753;130.861642110285
321.43460689363;130.646067849206
321.456229738508;130.363847223556
321.477852583386;130.005468646118
321.499475428263;129.575856571422
321.521098273141;129.094907544084
321.542721118019;128.582647973903
321.564343962896;128.029541860439
321.585966807774;127.427186421092
321.607589652652;126.810324150111
321.62921249753;126.201890253802
321.650835342407;125.609508038643
321.672458187285;125.02891337366
321.694081032163;124.455202109923
321.71570387704;123.888114752561
321.737326721918;123.326485263003
321.758949566796;122.767117549892
321.780572411673;122.224743447112
321.802195256551;121.707031825175
321.823818101429;121.193267116634
321.845440946307;120.665610462323
321.867063791184;120.126472321271
321.888686636062;119.556384264181
321.91030948094;118.933750564714
321.931932325817;118.241437961813
321.953555170695;117.478410441949
321.975178015573;116.644123787605
321.99680086045;115.716804153417
322.018423705328;114.711741356443
322.040046550206;113.657728167402
322.061669395083;112.557436220667
322.083292239961;111.398380010699
322.104915084839;110.159834108526
322.126537929717;108.866624080502
322.148160774594;107.589513430064
322.169783619472;106.354917004598
322.19140646435;105.161988393914
322.213029309227;103.990197696457
322.234652154105;102.815081378343
322.256274998983;101.678292532391
322.27789784386;100.631061972769
322.299520688738;99.6561622685723
322.321143533616;98.7378542554393
322.342766378493;97.8913246721493
322.364389223371;97.1111454983132
322.386012068249;96.3706446833716
322.407634913127;95.6478642155231
322.429257758004;94.9453742172919
322.450880602882;94.2627771077658
322.47250344776;93.5983976381251
322.494126292637;92.9469236770961
322.515749137515;92.3081536612234
322.537371982393;91.6955427334725
322.55899482727;91.1079397834539
322.580617672148;90.5275918764031
322.602240517026;89.9289231686477
322.623863361904;89.3156981340156
322.645486206781;88.7117628164513
322.667109051659;88.1209617056429
322.688731896537;87.5318834877641
322.710354741414;86.9363620840467
322.731977586292;86.3306162750098
322.75360043117;85.7007195347022
322.775223276047;85.0440635228301
322.796846120925;84.3736443725183
322.818468965803;83.6910611522202
322.840091810681;82.9886446388526
322.861714655558;82.2505014784834
322.883337500436;81.477573129972
322.904960345314;80.6985577129477
322.926583190191;79.935878384147
322.948206035069;79.2042300527401
322.969828879947;78.4922032315443
322.991451724824;77.7789245772762
323.013074569702;77.0430856120751
323.03469741458;76.2982927235881
323.056320259457;75.5859622143162
323.077943104335;74.9375236236384
323.099565949213;74.3463442929083
323.121188794091;73.78053914355
323.142811638968;73.2116370721414
323.164434483846;72.6459700655146
323.186057328724;72.0942861242536
323.207680173601;71.5625561058262
323.229303018479;71.0669079105203
323.250925863357;70.6049843942864
323.272548708234;70.1596518316286
323.294171553112;69.7087445684547
323.31579439799;69.2340564348454
323.337417242868;68.7354573396816
323.359040087745;68.2225565641103
323.380662932623;67.7053771903173
323.402285777501;67.1887501480805
323.423908622378;66.6666278822712
323.445531467256;66.1298290879833
323.467154312134;65.5912736718719
323.488777157011;65.0644690293205
323.510400001889;64.5569410980064
323.532022846767;64.0788635671401
323.553645691645;63.6329857235079
323.575268536522;63.2073560129017
323.5968913814;62.7908906902503
323.618514226278;62.3976249943729
323.640137071155;62.0265452217292
323.661759916033;61.6720029875849
323.683382760911;61.3333050261267
323.705005605788;61.0046060255385
323.726628450666;60.6668508701839
323.748251295544;60.3248151632945
323.769874140422;59.9964173783265
323.791496985299;59.6804245814129
323.813119830177;59.3733171214104
323.834742675055;59.0668980819903
323.856365519932;58.7458119879571
323.87798836481;58.4206120994076
323.899611209688;58.1132240978509
323.921234054565;57.8242138508038
323.942856899443;57.5510695340047
323.964479744321;57.2889229817787
323.986102589198;57.0252013845669
324.007725434076;56.7562444777878
324.029348278954;56.4863414567146
324.050971123832;56.2234852357849
324.072593968709;55.964449286028
324.094216813587;55.7045084989548
324.115839658465;55.4490806863316
324.137462503342;55.2058898021967
324.15908534822;54.9830489504604
324.180708193098;54.7780143762609
324.202331037975;54.583906832159
324.223953882853;54.3953305121719
324.245576727731;54.2142453117046
324.267199572609;54.0427905644821
324.288822417486;53.8771917637987
324.310445262364;53.708336123723
324.332068107242;53.541041933814
324.353690952119;53.3931948367075
324.375313796997;53.2693376426889
324.396936641875;53.1733860471001
324.418559486752;53.1072197962287
324.44018233163;53.0715103652976
324.461805176508;53.0691909276682
324.483428021386;53.1131939521898
324.505050866263;53.1978810820884
324.526673711141;53.2954183053568
324.548296556019;53.3843975552682
324.569919400896;53.4671700157457
324.591542245774;53.5602741471842
324.613165090652;53.6501526297849
324.634787935529;53.7223289556274
324.656410780407;53.7749001681335
324.678033625285;53.8071218965735
324.699656470162;53.8166458396668
324.72127931504;53.8116061514952
324.742902159918;53.8006792750585
324.764525004796;53.7957749447225
