Name;ESR_BC_1_359s_Y_gon_100dg_result

Recipe
Accumulations;5;Number of accumulations
RetryCount;0;Number of retries on error
AbortOnError;True;Abort on error
EnableQFactorMeasurement;False;Enable/Disable q-Factor measurement
Bfrom;313;B from
Bto;363;B to
SweepTime;60;Sweep time
Modulation;0.2;Modulation
ModulationFreq;100;Modulation
BHoldEnabled;False;B hold enabled
BHold;0;B hold
MicrowavePower;2;Microwave power
MarkerEnabled;False;
MarkerStartField;0;
MarkerEndField;0;
Mode;;
KineticGFact;0;
KineticTotalTransientTime;0;
KineticTimeResolution;0;
TempFrom;5;
TempUseSlope;False;
TempTo;5;
TempdT;1;
TempSetupTime;0;
GonFrom;0;
GonTo;180;
GonSteps;20;
XRayEnabled;False;
XRayTime;3;
XRayVoltage;40;
XRayCurrent;0.5;
UVEnabled;False;
UVIntensity;0;
UVTime;0;
UVLeadTime;0;
UVWavelength;0;
PowSweepFrom;1;
PowSweepTo;5;
PowSweepSteps;5;
AmpModSweepFrom;0;
AmpModSweepTo;1;
AmpModSweepSteps;10;
ExtTriggerEnabled;False;
ExtTrigLeadTime;0;
ExtTrigOnTime;5;

Meas
BField [mT];MW_Absorption []
313.028781814575;176.784395721248
313.050407587291;176.399709377978
313.072033360007;175.931407643587
313.093659132722;175.381788787807
313.115284905438;174.789165010266
313.136910678153;174.186322452551
313.158536450869;173.580127018817
313.180162223585;172.970902563674
313.2017879963;172.381664818086
313.223413769016;171.846945889348
313.245039541732;171.37896641019
313.266665314447;170.982788048313
313.288291087163;170.66483229239
313.309916859879;170.420232723679
313.331542632594;170.24145221762
313.35316840531;170.129753282715
313.374794178026;170.086439500644
313.396419950741;170.101237915254
313.418045723457;170.163495714305
313.439671496172;170.275028520638
313.461297268888;170.436259480495
313.482923041604;170.632747714915
313.504548814319;170.84373647142
313.526174587035;171.064152023839
313.547800359751;171.305896668111
313.569426132466;171.566390443091
313.591051905182;171.82609709456
313.612677677898;172.070220754359
313.634303450613;172.295130010286
313.655929223329;172.493623500436
313.677554996045;172.659481674316
313.69918076876;172.787812137844
313.720806541476;172.866238061402
313.742432314192;172.894431295096
313.764058086907;172.886176752179
313.785683859623;172.854685715742
313.807309632339;172.809384675509
313.828935405054;172.756896224113
313.85056117777;172.707567329373
313.872186950485;172.679165487178
313.893812723201;172.690395061322
313.915438495917;172.740950588378
313.937064268632;172.813624819365
313.958690041348;172.90918392586
313.980315814064;173.022941281259
314.001941586779;173.138890930229
314.023567359495;173.244694424835
314.045193132211;173.330129297122
314.066818904926;173.387469553322
314.088444677642;173.409487084809
314.110070450358;173.382068559311
314.131696223073;173.29788107582
314.153321995789;173.174459737491
314.174947768505;173.043432684411
314.19657354122;172.917588147199
314.218199313936;172.787849039898
314.239825086651;172.661148530137
314.261450859367;172.573857145158
314.283076632083;172.53298582133
314.304702404798;172.525124585232
314.326328177514;172.548512551477
314.34795395023;172.620117371276
314.369579722945;172.747642780918
314.391205495661;172.921540590772
314.412831268377;173.124689430305
314.434457041092;173.341907524432
314.456082813808;173.556329361294
314.477708586524;173.76442621805
314.499334359239;173.972808562653
314.520960131955;174.172507332302
314.54258590467;174.348363448915
314.564211677386;174.512543254274
314.585837450102;174.667868760799
314.607463222817;174.800206484996
314.629088995533;174.8959451091
314.650714768249;174.967145093113
314.672340540964;175.021117490694
314.69396631368;175.054177043297
314.715592086396;175.065293380821
314.737217859111;175.059675558691
314.758843631827;175.04319021425
314.780469404543;175.017239634358
314.802095177258;174.977775151267
314.823720949974;174.920152035255
314.84534672269;174.846678350989
314.866972495405;174.771795589247
314.888598268121;174.698007115487
314.910224040837;174.618820091512
314.931849813552;174.52910240984
314.953475586268;174.434705454072
314.975101358983;174.342770163734
314.996727131699;174.253881898113
315.018352904415;174.177165471843
315.03997867713;174.125793602744
315.061604449846;174.098261024758
315.083230222562;174.089683161016
315.104855995277;174.097012174984
315.126481767993;174.119600011166
315.148107540709;174.162826959728
315.169733313424;174.233789113935
315.19135908614;174.331862977222
315.212984858856;174.451741079612
315.234610631571;174.594277776126
315.256236404287;174.76026631758
315.277862177002;174.945720695958
315.299487949718;175.146104023233
315.321113722434;175.359467075131
315.342739495149;175.583346520868
315.364365267865;175.807867082463
315.385991040581;176.020048367902
315.407616813296;176.212165925436
315.429242586012;176.380746998304
315.450868358728;176.519211375689
315.472494131443;176.620490026569
315.494119904159;176.686399139855
315.515745676875;176.716696802886
315.53737144959;176.724540291779
315.558997222306;176.715377709021
315.580622995022;176.695842089716
315.602248767737;176.66570762227
315.623874540453;176.628380845518
315.645500313169;176.589298010676
315.667126085884;176.547518441666
315.6887518586;176.501031392802
315.710377631315;176.447248320862
315.732003404031;176.385595045991
315.753629176747;176.324481083673
315.775254949462;176.275359459586
315.796880722178;176.235742382762
315.818506494894;176.198788710448
315.840132267609;176.165925640898
315.861758040325;176.145394380089
315.883383813041;176.151427081963
315.905009585756;176.192710707983
315.926635358472;176.269612909968
315.948261131188;176.375940380674
315.969886903903;176.502786395885
315.991512676619;176.643541725977
316.013138449335;176.797191733517
316.03476422205;176.963333503677
316.056389994766;177.130868059292
316.078015767481;177.29067555981
316.099641540197;177.437184554753
316.121267312913;177.562815404385
316.142893085628;177.652690766485
316.164518858344;177.708730816905
316.18614463106;177.737332661685
316.207770403775;177.729096812579
316.229396176491;177.67964194963
316.251021949207;177.603413827541
316.272647721922;177.516077564897
316.294273494638;177.42132969403
316.315899267354;177.314467022283
316.337525040069;177.196134472282
316.359150812785;177.072731187571
316.3807765855;176.944685535486
316.402402358216;176.802620419981
316.424028130932;176.641895163744
316.445653903647;176.456812058522
316.467279676363;176.245360214838
316.488905449079;176.000578062109
316.510531221794;175.712583456412
316.53215699451;175.382610446739
316.553782767226;175.021499019634
316.575408539941;174.627982132912
316.597034312657;174.19437596991
316.618660085373;173.732287230595
316.640285858088;173.259062029617
316.661911630804;172.768084066661
316.68353740352;172.251103235326
316.705163176235;171.73297442573
316.726788948951;171.244759568337
316.748414721667;170.778666203904
316.770040494382;170.322371402885
316.791666267098;169.872164220352
316.813292039813;169.430631792479
316.834917812529;169.009428136859
316.856543585245;168.618608613255
316.87816935796;168.249202797178
316.899795130676;167.889947494393
316.921420903392;167.53244399967
316.943046676107;167.17397068875
316.964672448823;166.816386454704
316.986298221539;166.463203853125
317.007923994254;166.107176971374
317.02954976697;165.742068813548
317.051175539686;165.378739929941
317.072801312401;165.032820321602
317.094427085117;164.709841121775
317.116052857832;164.413785543964
317.137678630548;164.128398861676
317.159304403264;163.858209190186
317.180930175979;163.62159215554
317.202555948695;163.419856156067
317.224181721411;163.243339195322
317.245807494126;163.088859486992
317.267433266842;162.953079231453
317.289059039558;162.830553402784
317.310684812273;162.704476190482
317.332310584989;162.557774987615
317.353936357705;162.380749183463
317.37556213042;162.190574043108
317.397187903136;161.991982286355
317.418813675852;161.763974728214
317.440439448567;161.493891225167
317.462065221283;161.184043034009
317.483690993998;160.84837478344
317.505316766714;160.490415911671
317.52694253943;160.105622606893
317.548568312145;159.68257787547
317.570194084861;159.225941535582
317.591819857577;158.751157442411
317.613445630292;158.258476301319
317.635071403008;157.744136427331
317.656697175724;157.19648087524
317.678322948439;156.601584468087
317.699948721155;155.971082540889
317.721574493871;155.315260628134
317.743200266586;154.64366560336
317.764826039302;153.964854807989
317.786451812018;153.266975710049
317.808077584733;152.552549225164
317.829703357449;151.838015686477
317.851329130164;151.127943304718
317.87295490288;150.419168495978
317.894580675596;149.715255455438
317.916206448311;149.03064012774
317.937832221027;148.367106360156
317.959457993743;147.73354770493
317.981083766458;147.149452968065
318.002709539174;146.609385088425
318.02433531189;146.082450476319
318.045961084605;145.544934725126
318.067586857321;144.995349494293
318.089212630037;144.442886185225
318.110838402752;143.87954859485
318.132464175468;143.285806399644
318.154089948184;142.679850096211
318.175715720899;142.095827438385
318.197341493615;141.54440612703
318.21896726633;140.983027050519
318.240593039046;140.383910310566
318.262218811762;139.758437310378
318.283844584477;139.151096951382
318.305470357193;138.596366235614
318.327096129909;138.09065592075
318.348721902624;137.616808588818
318.37034767534;137.156528216515
318.391973448056;136.690626581373
318.413599220771;136.206145700478
318.435224993487;135.701960645128
318.456850766203;135.179496441748
318.478476538918;134.644896367024
318.500102311634;134.090323379016
318.52172808435;133.490590559819
318.543353857065;132.824400025832
318.564979629781;132.081482419626
318.586605402497;131.263046895562
318.608231175212;130.39384211908
318.629856947928;129.514601891965
318.651482720643;128.64563861172
318.673108493359;127.783969965568
318.694734266075;126.918924310249
318.71636003879;126.050784141915
318.737985811506;125.201655496288
318.759611584222;124.373689585197
318.781237356937;123.560842374955
318.802863129653;122.772171114496
318.824488902369;122.030859177351
318.846114675084;121.355479621032
318.8677404478;120.721238367317
318.889366220516;120.094952937061
318.910991993231;119.470096624401
318.932617765947;118.856887539675
318.954243538662;118.269073150882
318.975869311378;117.699363960336
318.997495084094;117.131616422446
319.019120856809;116.579594040158
319.040746629525;116.057322982621
319.062372402241;115.544631988085
319.083998174956;115.026262267219
319.105623947672;114.531767554733
319.127249720388;114.100973888264
319.148875493103;113.708336576905
319.170501265819;113.33759363049
319.192127038535;112.976240862359
319.21375281125;112.609040019151
319.235378583966;112.244743976594
319.257004356682;111.881237787761
319.278630129397;111.509228359838
319.300255902113;111.132844364894
319.321881674828;110.756109178551
319.343507447544;110.364039726612
319.36513322026;109.945468709235
319.386758992975;109.500227707274
319.408384765691;109.017505873064
319.430010538407;108.509216146212
319.451636311122;107.975879726337
319.473262083838;107.388896422384
319.494887856554;106.753120047058
319.516513629269;106.088865090724
319.538139401985;105.37738974775
319.559765174701;104.648132377724
319.581390947416;103.942198579189
319.603016720132;103.249546339348
319.624642492848;102.554027158428
319.646268265563;101.856282044379
319.667894038279;101.171830216756
319.689519810994;100.510945103766
319.71114558371;99.8639669617407
319.732771356426;99.2265483529765
319.754397129141;98.6139022346927
319.776022901857;98.0343106842867
319.797648674573;97.4847665851796
319.819274447288;96.9565755157185
319.840900220004;96.4562574768218
319.86252599272;95.9888505644267
319.884151765435;95.5502150157716
319.905777538151;95.139715238032
319.927403310867;94.7582271097391
319.949029083582;94.4038157385523
319.970654856298;94.071254978704
319.992280629014;93.7597595320468
320.013906401729;93.4848569485259
320.035532174445;93.2484331369046
320.05715794716;93.0219665472655
320.078783719876;92.7827046713045
320.100409492592;92.5353331835319
320.122035265307;92.2896020406923
320.143661038023;92.0362688802729
320.165286810739;91.7645360456298
320.186912583454;91.4719126554447
320.20853835617;91.1588203429336
320.230164128886;90.8186609775197
320.251789901601;90.4512078718119
320.273415674317;90.0607666319139
320.295041447033;89.6605386200976
320.316667219748;89.2658552069071
320.338292992464;88.8909447051515
320.35991876518;88.5348173921152
320.381544537895;88.1997476646689
320.403170310611;87.8986190291668
320.424796083327;87.6405869494351
320.446421856042;87.418309858148
320.468047628758;87.2290897459982
320.489673401473;87.0860174256074
320.511299174189;86.9957749798286
320.532924946905;86.9539422921968
320.55455071962;86.9566393919466
320.576176492336;86.9981518104265
320.597802265052;87.0694034110303
320.619428037767;87.1681610496607
320.641053810483;87.2924957196288
320.662679583199;87.4362828125572
320.684305355914;87.5889594142513
320.70593112863;87.7427670294864
320.727556901346;87.8933774841783
320.749182674061;88.0367582036373
320.770808446777;88.1668197927001
320.792434219492;88.2768803069592
320.814059992208;88.3621228358353
320.835685764924;88.4202227582268
320.857311537639;88.4549186145574
320.878937310355;88.4709107509921
320.900563083071;88.4748043711498
320.922188855786;88.4733630748835
320.943814628502;88.4614455160394
320.965440401218;88.4409160478018
320.987066173933;88.422739958903
321.008691946649;88.4115062736495
321.030317719365;88.4043878725794
321.05194349208;88.4009802656377
321.073569264796;88.4056954903404
321.095195037512;88.424631362722
321.116820810227;88.4565819942906
321.138446582943;88.501431462011
321.160072355658;88.5625103725226
321.181698128374;88.6275389635426
321.20332390109;88.6838890280579
321.224949673805;88.7316392065049
321.246575446521;88.7728466107927
321.268201219237;88.8094956829888
321.289826991952;88.8345953377662
321.311452764668;88.8364610224073
321.333078537384;88.8125090738034
321.354704310099;88.7702433776549
321.376330082815;88.7099117333963
321.397955855531;88.6420377490724
321.419581628246;88.5886129577453
321.441207400962;88.5508164697641
321.462833173678;88.512044737866
321.484458946393;88.4745264841381
321.506084719109;88.4448996227568
321.527710491824;88.4269527180209
321.54933626454;88.4274398486473
321.570962037256;88.442449846344
321.592587809971;88.4730026164715
321.614213582687;88.517263468528
321.635839355403;88.5583632827344
321.657465128118;88.5763792260404
321.679090900834;88.570518373275
321.70071667355;88.5473948198707
321.722342446265;88.5095405100942
321.743968218981;88.4553284495947
321.765593991697;88.3801083445039
321.787219764412;88.2794808830544
321.808845537128;88.1530963008506
321.830471309844;88.0055494848528
321.852097082559;87.8409216894688
321.873722855275;87.6557077115474
321.89534862799;87.4475654730206
321.916974400706;87.2150501727309
321.938600173422;86.9606814136119
321.960225946137;86.684044155843
321.981851718853;86.3749957372458
322.003477491569;86.0397590898959
322.025103264284;85.686791853617
322.046729037;85.3079998271345
322.068354809716;84.8891007009459
322.089980582431;84.4368001437051
322.111606355147;83.9568736673381
322.133232127863;83.4511678926657
322.154857900578;82.9417651585951
322.176483673294;82.4500602425007
322.19810944601;81.998106749117
322.219735218725;81.5897283121676
322.241360991441;81.2136789715977
322.262986764156;80.8729654972245
322.284612536872;80.5847015028254
322.306238309588;80.3564485166389
322.327864082303;80.1906727121763
322.349489855019;80.0957364586878
322.371115627735;80.0664872929639
322.39274140045;80.0940168164157
322.414367173166;80.1681991230152
322.435992945882;80.2833239054578
322.457618718597;80.4425788809485
322.479244491313;80.6358483165408
322.500870264029;80.8421209912503
322.522496036744;81.0592100253744
322.54412180946;81.2907604305381
322.565747582176;81.5270612469947
322.587373354891;81.756755268497
322.608999127607;81.9628652699969
322.630624900322;82.1338824341059
322.652250673038;82.2711545708354
322.673876445754;82.3733367832538
322.695502218469;82.4363032771373
322.717127991185;82.4708211845701
322.738753763901;82.4848747366392
322.760379536616;82.481532089531
322.782005309332;82.4681957247802
322.803631082048;82.4553783352762
322.825256854763;82.4440295573823
322.846882627479;82.4394544770592
322.868508400195;82.4429544174876
322.89013417291;82.4707378469095
322.911759945626;82.5274317520669
322.933385718342;82.6130710313087
322.955011491057;82.7300429070735
322.976637263773;82.8770847234409
322.998263036488;83.0485347492056
323.019888809204;83.2370543753551
323.04151458192;83.4329366893531
323.063140354635;83.6290871489303
323.084766127351;83.8146827282169
323.106391900067;83.9843519585138
323.128017672782;84.1427322940267
323.149643445498;84.2938671168697
323.171269218214;84.4329187646165
323.192894990929;84.5582496145968
323.214520763645;84.6671359831076
323.236146536361;84.7631089670123
323.257772309076;84.8549847575189
323.279398081792;84.946527129812
323.301023854508;85.0314147749294
323.322649627223;85.1080355981167
323.344275399939;85.1783886301881
323.365901172654;85.2447465328488
323.38752694537;85.3035253507298
323.409152718086;85.3481526904424
323.430778490801;85.3751370417696
323.452404263517;85.3837560040741
323.474030036233;85.3833496840985
323.495655808948;85.3730134976557
323.517281581664;85.3515313265169
323.53890735438;85.3245035465606
323.560533127095;85.2943907924884
323.582158899811;85.2631721976325
323.603784672527;85.2271535177765
323.625410445242;85.1836839587662
323.647036217958;85.130700472307
323.668661990674;85.0687308077534
323.690287763389;84.9964558101774
323.711913536105;84.9044851361637
323.73353930882;84.7804917584829
323.755165081536;84.6230106102342
323.776790854252;84.4335529676301
323.798416626967;84.2229756921951
323.820042399683;83.9975168496689
323.841668172399;83.7513979952612
323.863293945114;83.4792838846573
323.88491971783;83.1876265807803
323.906545490546;82.8840541635278
323.928171263261;82.581580975269
323.949797035977;82.284272933408
323.971422808693;82.0037268135686
323.993048581408;81.743233493546
324.014674354124;81.4821553752352
324.03630012684;81.2122246635014
324.057925899555;80.952830279901
324.079551672271;80.7097302031101
324.101177444986;80.4663009759888
324.122803217702;80.2085849274092
324.144428990418;79.9599997991918
324.166054763133;79.7263738253413
324.187680535849;79.4919843649106
324.209306308565;79.2565068390042
324.23093208128;79.0270984756307
324.252557853996;78.8074351371354
324.274183626712;78.6034287585146
324.295809399427;78.4265451867257
324.317435172143;78.2817618052855
324.339060944859;78.1630296537291
324.360686717574;78.062512905474
324.38231249029;77.976763691646
324.403938263006;77.9081164165617
324.425564035721;77.8546424005824
324.447189808437;77.8132902091699
324.468815581152;77.7876742543066
324.490441353868;77.780635301457
324.512067126584;77.7836750497886
324.533692899299;77.7910251039197
324.555318672015;77.8072715077861
324.576944444731;77.8444606905028
324.598570217446;77.9029454630748
324.620195990162;77.9827585565746
324.641821762878;78.0803516136222
324.663447535593;78.1904528446432
324.685073308309;78.3023947267214
324.706699081025;78.4155177332821
324.72832485374;78.5318003067765
324.749950626456;78.6498124504515
324.771576399172;78.7636294186838
324.793202171887;78.8594017051669
