Name;ESR_BC_1_89s_X_gon_80dg_result

Recipe
Accumulations;5;Number of accumulations
RetryCount;0;Number of retries on error
AbortOnError;True;Abort on error
EnableQFactorMeasurement;False;Enable/Disable q-Factor measurement
Bfrom;313;B from
Bto;363;B to
SweepTime;60;Sweep time
Modulation;0.2;Modulation
ModulationFreq;100;Modulation
BHoldEnabled;False;B hold enabled
BHold;0;B hold
MicrowavePower;2;Microwave power
MarkerEnabled;False;
MarkerStartField;0;
MarkerEndField;0;
Mode;;
KineticGFact;0;
KineticTotalTransientTime;0;
KineticTimeResolution;0;
TempFrom;5;
TempUseSlope;False;
TempTo;5;
TempdT;1;
TempSetupTime;0;
GonFrom;0;
GonTo;180;
GonSteps;20;
XRayEnabled;False;
XRayTime;3;
XRayVoltage;40;
XRayCurrent;0.5;
UVEnabled;False;
UVIntensity;0;
UVTime;0;
UVLeadTime;0;
UVWavelength;0;
PowSweepFrom;1;
PowSweepTo;5;
PowSweepSteps;5;
AmpModSweepFrom;0;
AmpModSweepTo;1;
AmpModSweepSteps;10;
ExtTriggerEnabled;False;
ExtTrigLeadTime;0;
ExtTrigOnTime;5;

Meas
BField [mT];MW_Absorption []
313.018692855835;679.16862070696
313.040313850941;678.79305657475
313.061934846047;678.420809536861
313.083555841153;678.067973183103
313.105176836259;677.730331406061
313.126797831365;677.382411933421
313.148418826471;677.000894393988
313.170039821577;676.573354610502
313.191660816683;676.104231602926
313.213281811789;675.604707737274
313.234902806895;675.073761584087
313.256523802001;674.506361958773
313.278144797107;673.897641603083
313.299765792213;673.24848952539
313.321386787319;672.561532255382
313.343007782425;671.847814332231
313.364628777531;671.111869269039
313.386249772637;670.342901534962
313.407870767743;669.585491773116
313.429491762849;668.877667475929
313.451112757955;668.199820859925
313.472733753061;667.537883604566
313.494354748167;666.892249841605
313.515975743273;666.264083530313
313.537596738379;665.673328912346
313.559217733485;665.123042553682
313.580838728591;664.616136924746
313.602459723697;664.139851780699
313.624080718803;663.685313177221
313.645701713909;663.242367934448
313.667322709015;662.807326460218
313.688943704121;662.379812716175
313.710564699227;661.957411903846
313.732185694333;661.522858036412
313.753806689439;661.056015980217
313.775427684545;660.558171404535
313.797048679651;660.020985135958
313.818669674757;659.419732736885
313.840290669863;658.753957488851
313.861911664969;658.024756037952
313.883532660075;657.227348208538
313.905153655181;656.377780210999
313.926774650287;655.506060325354
313.948395645393;654.608191923263
313.970016640499;653.646113359071
313.991637635604;652.611567389506
314.01325863071;651.527663187057
314.034879625816;650.426841720758
314.056500620922;649.316229703942
314.078121616028;648.188708070318
314.099742611134;647.057398837579
314.12136360624;645.936338847125
314.142984601346;644.836906680054
314.164605596452;643.761102473187
314.186226591558;642.690131771355
314.207847586664;641.611737886837
314.22946858177;640.543298088815
314.251089576876;639.526484962389
314.272710571982;638.574461675589
314.294331567088;637.686760765707
314.315952562194;636.848669789687
314.3375735573;636.029560376507
314.359194552406;635.249758647019
314.380815547512;634.531632994713
314.402436542618;633.838072133289
314.424057537724;633.121832219523
314.44567853283;632.393001173185
314.467299527936;631.67877625972
314.488920523042;630.987085098409
314.510541518148;630.312862927208
314.532162513254;629.661369150502
314.55378350836;629.028604964209
314.575404503466;628.394938975688
314.597025498572;627.742202964099
314.618646493678;627.085842567006
314.640267488784;626.480829612714
314.66188848389;625.923606716376
314.683509478996;625.398058973435
314.705130474102;624.922535265386
314.726751469208;624.4988535389
314.748372464314;624.123727716719
314.76999345942;623.800857322365
314.791614454526;623.529559268952
314.813235449632;623.307055268597
314.834856444738;623.133936676829
314.856477439844;622.993586663525
314.87809843495;622.881827446996
314.899719430056;622.806441536445
314.921340425162;622.765523013528
314.942961420268;622.740303633575
314.964582415374;622.707272941862
314.98620341048;622.651439049371
315.007824405586;622.573231519736
315.029445400692;622.466789004685
315.051066395798;622.314982476258
315.072687390904;622.120186077063
315.09430838601;621.878420439042
315.115929381116;621.573847652028
315.137550376222;621.197909710782
315.159171371328;620.741171616869
315.180792366434;620.215642645527
315.20241336154;619.634919264626
315.224034356646;619.022098076896
315.245655351752;618.365544654198
315.267276346858;617.634991552403
315.288897341964;616.817948576453
315.31051833707;615.932455775179
315.332139332176;614.993003546344
315.353760327282;614.000122184969
315.375381322388;612.989236970091
315.397002317494;611.96260027912
315.4186233126;610.897770707042
315.440244307706;609.785876337468
315.461865302812;608.649694013127
315.483486297918;607.520039482361
315.505107293024;606.389436342192
315.52672828813;605.221255834733
315.548349283236;604.018685604569
315.569970278342;602.82943527259
315.591591273448;601.705234717703
315.613212268554;600.658795166915
315.63483326366;599.669089165327
315.656454258766;598.693391367157
315.678075253872;597.692526020453
315.699696248978;596.625985784408
315.721317244084;595.495367912334
315.74293823919;594.359602900597
315.764559234296;593.274107198776
315.786180229402;592.241710885943
315.807801224508;591.227267133746
315.829422219614;590.215583435102
315.85104321472;589.229272488018
315.872664209826;588.274730364346
315.894285204932;587.324571963328
315.915906200038;586.394532127175
315.937527195144;585.542158590023
315.959148190249;584.772229330911
315.980769185355;584.046927894722
316.002390180461;583.354329516287
316.024011175567;582.695245880087
316.045632170673;582.070988820101
316.067253165779;581.498930566312
316.088874160885;581.00293860794
316.110495155991;580.57525206293
316.132116151097;580.200372598874
316.153737146203;579.877485385435
316.175358141309;579.606569510203
316.196979136415;579.375698983457
316.218600131521;579.174533687675
316.240221126627;579.001020340397
316.261842121733;578.843490571808
316.283463116839;578.683805206764
316.305084111945;578.507052885408
316.326705107051;578.29959730707
316.348326102157;578.05257882009
316.369947097263;577.765398694441
316.391568092369;577.450911081008
316.413189087475;577.109140396041
316.434810082581;576.724766878776
316.456431077687;576.293214641428
316.478052072793;575.826936399041
316.499673067899;575.330891563992
316.521294063005;574.792823106601
316.542915058111;574.213428118305
316.564536053217;573.610578507975
316.586157048323;573.003065151514
316.607778043429;572.38358723749
316.629399038535;571.739244153839
316.651020033641;571.083105712066
316.672641028747;570.431498796928
316.694262023853;569.799945952445
316.715883018959;569.201216881407
316.737504014065;568.615685034874
316.759125009171;568.027945346281
316.780746004277;567.435519489929
316.802366999383;566.843207602209
316.823987994489;566.252940673922
316.845608989595;565.665727345735
316.867229984701;565.079604039653
316.888850979807;564.481163371572
316.910471974913;563.866901969063
316.932092970019;563.269109452266
316.953713965125;562.718336531128
316.975334960231;562.211279063997
316.996955955337;561.750329714957
317.018576950443;561.35013644535
317.040197945549;561.002448609352
317.061818940655;560.702290031325
317.083439935761;560.44119759055
317.105060930867;560.207752112135
317.126681925973;559.998289499387
317.148302921079;559.809931804319
317.169923916185;559.638969661442
317.191544911291;559.476728819501
317.213165906397;559.309187502638
317.234786901503;559.136613342368
317.256407896609;558.965470866004
317.278028891715;558.796557411312
317.299649886821;558.629796617165
317.321270881927;558.459243920086
317.342891877033;558.277896223508
317.364512872139;558.083803063053
317.386133867245;557.87629620189
317.407754862351;557.648517260491
317.429375857457;557.388678971087
317.450996852563;557.086825533911
317.472617847669;556.726764595757
317.494238842775;556.290555312547
317.515859837881;555.777593904808
317.537480832987;555.203035170466
317.559101828093;554.575302023835
317.580722823199;553.888449257876
317.602343818305;553.133008524283
317.623964813411;552.297081585878
317.645585808517;551.355299711178
317.667206803623;550.286580156248
317.688827798729;549.110158668252
317.710448793835;547.869012535306
317.732069788941;546.603720304863
317.753690784047;545.319041134461
317.775311779153;543.95559642945
317.796932774259;542.530126551437
317.818553769365;541.137574327224
317.840174764471;539.793465302129
317.861795759577;538.483867912135
317.883416754683;537.22333824226
317.905037749789;536.005752813811
317.926658744895;534.790530458411
317.948279740001;533.578892433842
317.969900735107;532.412731296134
317.991521730213;531.303992240931
318.013142725319;530.234633020511
318.034763720425;529.199492835244
318.056384715531;528.197389759512
318.078005710636;527.197321012133
318.099626705742;526.173376928189
318.121247700848;525.157683714409
318.142868695954;524.186453415798
318.16448969106;523.22579778166
318.186110686166;522.22911181386
318.207731681272;521.238722756263
318.229352676378;520.291539453926
318.250973671484;519.395569662349
318.27259466659;518.562142468281
318.294215661696;517.797696015512
318.315836656802;517.09757845682
318.337457651908;516.458379137107
318.359078647014;515.876361202662
318.38069964212;515.316619437295
318.402320637226;514.774129925936
318.423941632332;514.301781814492
318.445562627438;513.906090626013
318.467183622544;513.55457090081
318.48880461765;513.235054249868
318.510425612756;512.949083304639
318.532046607862;512.692173085674
318.553667602968;512.452082302054
318.575288598074;512.20099230913
318.59690959318;511.91708230701
318.618530588286;511.598624795246
318.640151583392;511.250055480319
318.661772578498;510.859440041007
318.683393573604;510.418204151274
318.70501456871;509.946534997463
318.726635563816;509.450980825663
318.748256558922;508.908095994559
318.769877554028;508.288242651098
318.791498549134;507.60202183528
318.81311954424;506.894475588302
318.834740539346;506.173237344378
318.856361534452;505.433543621707
318.877982529558;504.678622533863
318.899603524664;503.904779586861
318.92122451977;503.108950045894
318.942845514876;502.279306624421
318.964466509982;501.401512515473
318.986087505088;500.491407580878
319.007708500194;499.571529297092
319.0293294953;498.654332773761
319.050950490406;497.749805181484
319.072571485512;496.863849038916
319.094192480618;495.964007135312
319.115813475724;495.032140946853
319.13743447083;494.103131223241
319.159055465936;493.224254654727
319.180676461042;492.372627786717
319.202297456148;491.501843989389
319.223918451254;490.615403546899
319.24553944636;489.768858041251
319.267160441466;488.981483832898
319.288781436572;488.229346612822
319.310402431678;487.495090244468
319.332023426784;486.786810867751
319.35364442189;486.124308400795
319.375265416996;485.50763382923
319.396886412102;484.933952412297
319.418507407208;484.393648955705
319.440128402314;483.863468577093
319.46174939742;483.342794544895
319.483370392526;482.844196516377
319.504991387632;482.377505470737
319.526612382738;481.941261512102
319.548233377844;481.537493321684
319.56985437295;481.163111461073
319.591475368056;480.803811690928
319.613096363162;480.445064772639
319.634717358268;480.076682152967
319.656338353374;479.708683379624
319.67795934848;479.367069427344
319.699580343586;479.053715873639
319.721201338692;478.759771417236
319.742822333798;478.49744677988
319.764443328904;478.270683749823
319.78606432401;478.0636737349
319.807685319116;477.869455112135
319.829306314222;477.690474068959
319.850927309328;477.529657620915
319.872548304434;477.383767255101
319.89416929954;477.245649272242
319.915790294646;477.108125167777
319.937411289752;476.963697217776
319.959032284858;476.803530717071
319.980653279964;476.61933382871
320.00227427507;476.415924812857
320.023895270176;476.203231738431
320.045516265281;475.990519789157
320.067137260387;475.783430663638
320.088758255493;475.583491649831
320.110379250599;475.397502799399
320.132000245705;475.233273309421
320.153621240811;475.087112518222
320.175242235917;474.945194613037
320.196863231023;474.802027074264
320.218484226129;474.676882464621
320.240105221235;474.57077242772
320.261726216341;474.463572055007
320.283347211447;474.325812509034
320.304968206553;474.143789798174
320.326589201659;473.909260952013
320.348210196765;473.603752393093
320.369831191871;473.218583277777
320.391452186977;472.736456197636
320.413073182083;472.106092076092
320.434694177189;471.303217513886
320.456315172295;470.316039930387
320.477936167401;469.117329169798
320.499557162507;467.708244523092
320.521178157613;466.161561731057
320.542799152719;464.546510193094
320.564420147825;462.830616240951
320.586041142931;460.919745913187
320.607662138037;458.839142594996
320.629283133143;456.72097072252
320.650904128249;454.607255011574
320.672525123355;452.542364967949
320.694146118461;450.603053394502
320.715767113567;448.83238967117
320.737388108673;447.230165276854
320.759009103779;445.740652223933
320.780630098885;444.378965797423
320.802251093991;443.168970519481
320.823872089097;442.098107435827
320.845493084203;441.130503064454
320.867114079309;440.236736363387
320.888735074415;439.400209702903
320.910356069521;438.587429147489
320.931977064627;437.753605739903
320.953598059733;436.873414312924
320.975219054839;435.958475817232
320.996840049945;434.981650637949
321.018461045051;433.902510654824
321.040082040157;432.732848498627
321.061703035263;431.520347511065
321.083324030369;430.261708897674
321.104945025475;428.924962112201
321.126566020581;427.514740913239
321.148187015687;426.074943356123
321.169808010793;424.616736277694
321.191429005899;423.10155951581
321.213050001005;421.476669009963
321.234670996111;419.762187731917
321.256291991217;418.038319387905
321.277912986323;416.389291773637
321.299533981429;414.851993893034
321.321154976535;413.38058554462
321.342775971641;411.956014991497
321.364396966747;410.615130413057
321.386017961853;409.356885957934
321.407638956959;408.232409195592
321.429259952065;407.250998556197
321.450880947171;406.397424879667
321.472501942277;405.673177094745
321.494122937383;405.086961130404
321.515743932489;404.648793690901
321.537364927595;404.341867545926
321.558985922701;404.136503124853
321.580606917807;404.004923811806
321.602227912913;403.931609095481
321.623848908019;403.901602343602
321.645469903125;403.901041376395
321.667090898231;403.917559020556
321.688711893337;403.936627829512
321.710332888443;403.950377219126
321.731953883549;403.956049738051
321.753574878655;403.949919088987
321.775195873761;403.926454647204
321.796816868867;403.882872709727
321.818437863973;403.813192387478
321.840058859079;403.715389257927
321.861679854185;403.593930627218
321.883300849291;403.452798769706
321.904921844397;403.293128971476
321.926542839503;403.11538936059
321.948163834609;402.919393602786
321.969784829715;402.69892933458
321.991405824821;402.448235056278
322.013026819927;402.166875733299
322.034647815033;401.851412677195
322.056268810139;401.49675229118
322.077889805245;401.095583443324
322.099510800351;400.635504507684
322.121131795456;400.114507959584
322.142752790562;399.542204953324
322.164373785668;398.943071014894
322.185994780774;398.299758159224
322.20761577588;397.609410019988
322.229236770986;396.885197802144
322.250857766092;396.138147034374
322.272478761198;395.36318369461
322.294099756304;394.560653169513
322.31572075141;393.735032576205
322.337341746516;392.893423191563
322.358962741622;392.067299112372
322.380583736728;391.29054825868
322.402204731834;390.558840527441
322.42382572694;389.857243593008
322.445446722046;389.176799160091
322.467067717152;388.530170642705
322.488688712258;387.948142536889
322.510309707364;387.424654672109
322.53193070247;386.925944792932
322.553551697576;386.439564944259
322.575172692682;385.961378729611
322.596793687788;385.479321090446
322.618414682894;384.971143758646
322.640035678;384.41972138707
322.661656673106;383.837552918196
322.683277668212;383.237809863105
322.704898663318;382.617511798555
322.726519658424;381.944223783966
322.74814065353;381.186622646477
322.769761648636;380.363070410599
322.791382643742;379.505415882955
322.813003638848;378.625144087837
322.834624633954;377.696761660947
322.85624562906;376.702920737424
322.877866624166;375.655411615451
322.899487619272;374.565652239242
322.921108614378;373.463663274305
322.942729609484;372.386256939439
322.96435060459;371.324084740937
322.985971599696;370.249952839983
323.007592594802;369.151987494866
323.029213589908;368.047680492063
323.050834585014;366.977825710299
323.07245558012;365.955897416564
323.094076575226;364.978462064243
323.115697570332;364.04059453717
323.137318565438;363.122782212984
323.158939560544;362.219681996664
323.18056055565;361.341279575213
323.202181550756;360.492522624937
323.223802545862;359.665780887561
323.245423540968;358.858686983272
323.267044536074;358.065769044358
323.28866553118;357.270120336345
323.310286526286;356.466003907992
323.331907521392;355.666266684977
323.353528516498;354.879109345221
323.375149511604;354.107181586206
323.39677050671;353.357946546802
323.418391501816;352.624040675252
323.440012496922;351.884607241026
323.461633492028;351.124528666359
323.483254487134;350.369586039904
323.50487548224;349.649827660713
323.526496477346;348.958494865589
323.548117472452;348.280397858773
323.569738467558;347.599556052729
323.591359462664;346.923979379923
323.61298045777;346.279253193463
323.634601452876;345.666835473049
323.656222447982;345.075489332992
323.677843443088;344.500587990905
323.699464438194;343.961638624935
323.7210854333;343.476263761376
323.742706428406;343.046777192106
323.764327423512;342.678779493046
323.785948418618;342.374622361085
323.807569413724;342.119165088291
323.82919040883;341.896861677578
323.850811403936;341.702983906446
323.872432399042;341.538521719724
323.894053394148;341.397987111345
323.915674389254;341.2594119527
323.93729538436;341.098645205593
323.958916379466;340.899544662726
323.980537374572;340.652282966044
324.002158369678;340.35257176805
324.023779364784;340.000085803126
324.04540035989;339.593148329162
324.067021354996;339.117816767617
324.088642350102;338.554708701338
324.110263345208;337.89865235859
324.131884340313;337.157067447915
324.153505335419;336.338835189544
324.175126330525;335.460698964024
324.196747325631;334.539147713513
324.218368320737;333.560236397191
324.239989315843;332.506034272848
324.261610310949;331.392068687798
324.283231306055;330.243678790973
324.304852301161;329.064594549823
324.326473296267;327.83939176747
324.348094291373;326.573287106015
324.369715286479;325.301959166264
324.391336281585;324.045418669013
324.412957276691;322.813329376502
324.434578271797;321.580211034011
324.456199266903;320.285934638888
324.477820262009;318.8793624791
324.499441257115;317.469592324158
324.521062252221;316.100590429707
324.542683247327;314.746270981469
324.564304242433;313.377205017554
324.585925237539;311.974092421316
324.607546232645;310.51988120198
324.629167227751;308.999718107643
324.650788222857;307.424600004404
324.672409217963;305.822384625126
324.694030213069;304.203729374777
324.715651208175;302.560842390573
324.737272203281;300.834687711726
324.758893198387;299.031424919153
