Name;ESR_BC_1_29min_X_gon_160dg_result

Recipe
Accumulations;5;Number of accumulations
RetryCount;0;Number of retries on error
AbortOnError;True;Abort on error
EnableQFactorMeasurement;False;Enable/Disable q-Factor measurement
Bfrom;313;B from
Bto;363;B to
SweepTime;60;Sweep time
Modulation;0.2;Modulation
ModulationFreq;100;Modulation
BHoldEnabled;False;B hold enabled
BHold;0;B hold
MicrowavePower;2;Microwave power
MarkerEnabled;False;
MarkerStartField;0;
MarkerEndField;0;
Mode;;
KineticGFact;0;
KineticTotalTransientTime;0;
KineticTimeResolution;0;
TempFrom;5;
TempUseSlope;False;
TempTo;5;
TempdT;1;
TempSetupTime;0;
GonFrom;0;
GonTo;180;
GonSteps;20;
XRayEnabled;False;
XRayTime;3;
XRayVoltage;40;
XRayCurrent;0.5;
UVEnabled;False;
UVIntensity;0;
UVTime;0;
UVLeadTime;0;
UVWavelength;0;
PowSweepFrom;1;
PowSweepTo;5;
PowSweepSteps;5;
AmpModSweepFrom;0;
AmpModSweepTo;1;
AmpModSweepSteps;10;
ExtTriggerEnabled;False;
ExtTrigLeadTime;0;
ExtTrigOnTime;5;

Meas
BField [mT];MW_Absorption []
313.017635345459;576.955065296093
313.039259082811;576.376173579504
313.060882820162;575.772486479513
313.082506557514;575.16371610439
313.104130294866;574.554913666659
313.125754032218;573.931244977429
313.147377769569;573.282975266352
313.169001506921;572.612325229734
313.190625244273;571.922689402192
313.212248981625;571.205825894448
313.233872718976;570.457027853021
313.255496456328;569.6954953989
313.27712019368;568.953866596464
313.298743931031;568.257627169961
313.320367668383;567.600154780359
313.341991405735;566.959256486148
313.363615143087;566.31613105921
313.385238880438;565.655968723904
313.40686261779;564.968002377607
313.428486355142;564.252778893813
313.450110092493;563.515399491718
313.471733829845;562.754015641531
313.493357567197;561.976657704737
313.514981304549;561.18911513631
313.5366050419;560.371522395082
313.558228779252;559.530196945797
313.579852516604;558.69691048139
313.601476253955;557.882375824529
313.623099991307;557.067041253055
313.644723728659;556.241469797854
313.666347466011;555.440753491003
313.687971203362;554.689186393606
313.709594940714;553.967567818832
313.731218678066;553.268611866213
313.752842415417;552.59814235521
313.774466152769;551.963373918277
313.796089890121;551.36877827161
313.817713627473;550.805896358224
313.839337364824;550.235190912644
313.860961102176;549.643086951552
313.882584839528;549.045558958479
313.90420857688;548.446905866303
313.925832314231;547.847436305738
313.947456051583;547.245824626274
313.969079788935;546.649964429983
313.990703526286;546.057731737967
314.012327263638;545.463075194751
314.03395100099;544.865739735002
314.055574738342;544.272463146134
314.077198475693;543.69346153377
314.098822213045;543.132259030381
314.120445950397;542.590981470861
314.142069687748;542.079082818597
314.1636934251;541.59520508671
314.185317162452;541.123737242339
314.206940899804;540.664581405366
314.228564637155;540.242728989528
314.250188374507;539.853273037874
314.271812111859;539.465564864896
314.29343584921;539.063939319671
314.315059586562;538.655264601288
314.336683323914;538.249861838797
314.358307061266;537.850631149402
314.379930798617;537.448779858536
314.401554535969;537.034305897017
314.423178273321;536.59755003464
314.444802010673;536.125865255313
314.466425748024;535.600324832127
314.488049485376;535.005083387475
314.509673222728;534.356090478273
314.531296960079;533.683614839696
314.552920697431;532.992065827765
314.574544434783;532.258643156548
314.596168172135;531.470851962261
314.617791909486;530.619627100568
314.639415646838;529.684135847042
314.66103938419;528.661771042139
314.682663121541;527.585375503919
314.704286858893;526.506989753644
314.725910596245;525.477370156834
314.747534333597;524.52694589071
314.769158070948;523.653204140551
314.7907818083;522.848673256788
314.812405545652;522.132052787586
314.834029283003;521.494741425879
314.855653020355;520.90110802741
314.877276757707;520.329223149189
314.898900495059;519.78509443712
314.92052423241;519.299158150647
314.942147969762;518.888039500333
314.963771707114;518.533172430532
314.985395444465;518.218433830786
315.007019181817;517.934726111481
315.028642919169;517.682333333905
315.050266656521;517.462491407917
315.071890393872;517.276521939527
315.093514131224;517.115518021717
315.115137868576;516.969744705492
315.136761605928;516.834038677567
315.158385343279;516.697502087777
315.180009080631;516.553373409444
315.201632817983;516.393833044581
315.223256555334;516.214531413993
315.244880292686;516.011979124701
315.266504030038;515.777511227454
315.28812776739;515.498149919568
315.309751504741;515.162420475286
315.331375242093;514.765899561732
315.352998979445;514.309482752241
315.374622716796;513.803060394079
315.396246454148;513.241440328442
315.4178701915;512.607507859944
315.439493928852;511.892272649751
315.461117666203;511.10908163533
315.482741403555;510.29182030511
315.504365140907;509.447202133181
315.525988878258;508.57626260269
315.54761261561;507.67284571577
315.569236352962;506.73135457358
315.590860090314;505.746629020658
315.612483827665;504.726752080058
315.634107565017;503.691292373699
315.655731302369;502.659449496257
315.67735503972;501.639545546876
315.698978777072;500.613735357882
315.720602514424;499.566465761057
315.742226251776;498.505762942815
315.763849989127;497.460020670718
315.785473726479;496.457075669768
315.807097463831;495.486073729681
315.828721201182;494.536906585625
315.850344938534;493.612429924847
315.871968675886;492.713035723382
315.893592413238;491.852193320863
315.915216150589;491.017873917136
315.936839887941;490.195109016964
315.958463625293;489.38397817986
315.980087362645;488.590770150421
316.001711099996;487.789499458691
316.023334837348;486.956492451469
316.0449585747;486.076605814706
316.066582312051;485.152157283336
316.088206049403;484.197246460351
316.109829786755;483.206329758767
316.131453524107;482.177929738574
316.153077261458;481.117203136548
316.17470099881;480.032351740625
316.196324736162;478.944451143785
316.217948473513;477.849768465541
316.239572210865;476.718428038909
316.261195948217;475.547014390882
316.282819685569;474.378064044538
316.30444342292;473.246227928153
316.326067160272;472.162597678884
316.347690897624;471.127659132519
316.369314634975;470.121038865374
316.390938372327;469.125919588317
316.412562109679;468.14149629531
316.434185847031;467.17978372143
316.455809584382;466.254665263698
316.477433321734;465.369070106617
316.499057059086;464.480090111142
316.520680796437;463.611092392831
316.542304533789;462.817856684526
316.563928271141;462.081344600222
316.585552008493;461.340301052826
316.607175745844;460.540909936055
316.628799483196;459.693868245545
316.650423220548;458.859027792074
316.6720469579;458.072004169964
316.693670695251;457.320484951074
316.715294432603;456.58698868213
316.736918169955;455.852411306417
316.758541907306;455.113087962659
316.780165644658;454.368359516848
316.80178938201;453.62664310198
316.823413119362;452.908990821019
316.845036856713;452.224055823414
316.866660594065;451.572097355843
316.888284331417;450.935494024362
316.909908068768;450.297334646019
316.93153180612;449.664974121483
316.953155543472;449.059758661715
316.974779280824;448.494000389209
316.996403018175;447.942746607515
317.018026755527;447.384113770484
317.039650492879;446.818359725578
317.06127423023;446.237915212047
317.082897967582;445.64087280873
317.104521704934;445.019283504621
317.126145442286;444.370932043857
317.147769179637;443.705492084676
317.169392916989;443.033980417846
317.191016654341;442.353616687664
317.212640391693;441.657510261783
317.234264129044;440.942443710554
317.255887866396;440.21775396579
317.277511603748;439.511034965162
317.299135341099;438.837755907973
317.320759078451;438.171471065526
317.342382815803;437.523242536286
317.364006553155;436.910236078003
317.385630290506;436.322072470206
317.407254027858;435.751393819148
317.42887776521;435.208424164611
317.450501502561;434.69398228154
317.472125239913;434.191267419254
317.493748977265;433.673768777909
317.515372714617;433.130476543637
317.536996451968;432.570448487948
317.55862018932;431.98846006521
317.580243926672;431.369540286137
317.601867664023;430.694377237762
317.623491401375;429.919347654424
317.645115138727;429.003256932156
317.666738876079;427.969636069969
317.68836261343;426.869876366608
317.709986350782;425.683581584808
317.731610088134;424.361800565243
317.753233825485;422.913334605783
317.774857562837;421.423792129769
317.796481300189;419.950661806371
317.818105037541;418.461266866332
317.839728774892;416.931521089888
317.861352512244;415.42507527831
317.882976249596;414.037958485434
317.904599986948;412.78598300917
317.926223724299;411.660284026675
317.947847461651;410.667057578433
317.969471199003;409.80937651085
317.991094936354;409.073669484074
318.012718673706;408.450342213226
318.034342411058;407.931433383689
318.05596614841;407.510966783783
318.077589885761;407.202382159298
318.099213623113;407.000173109175
318.120837360465;406.881988612338
318.142461097816;406.830689771528
318.164084835168;406.838878660015
318.18570857252;406.893669865595
318.207332309872;406.982218915106
318.228956047223;407.100628942298
318.250579784575;407.238262469238
318.272203521927;407.374444066971
318.293827259278;407.491550523687
318.31545099663;407.584692061087
318.337074733982;407.645425932718
318.358698471334;407.651690806056
318.380322208685;407.595015211732
318.401945946037;407.462133159128
318.423569683389;407.228530453807
318.445193420741;406.867030895207
318.466817158092;406.38911622602
318.488440895444;405.820714570297
318.510064632796;405.163688442188
318.531688370147;404.399702760829
318.553312107499;403.532725073075
318.574935844851;402.579623669664
318.596559582203;401.562798332003
318.618183319554;400.504603698838
318.639807056906;399.41797105945
318.661430794258;398.361181188724
318.683054531609;397.370766331332
318.704678268961;396.432651504011
318.726302006313;395.53514629688
318.747925743665;394.674364004288
318.769549481016;393.874303829086
318.791173218368;393.14029986472
318.81279695572;392.455269251756
318.834420693071;391.80904746219
318.856044430423;391.207124503325
318.877668167775;390.649621465364
318.899291905127;390.124391197456
318.920915642478;389.612218947383
318.94253937983;389.113772682421
318.964163117182;388.644416800074
318.985786854533;388.203145698982
319.007410591885;387.790012991939
319.029034329237;387.409569539861
319.050658066589;387.059813354928
319.07228180394;386.730714194831
319.093905541292;386.408173595797
319.115529278644;386.094905191215
319.137153015995;385.806912178992
319.158776753347;385.54254877466
319.180400490699;385.284985972073
319.202024228051;385.024735612587
319.223647965402;384.776515090168
319.245271702754;384.556071637549
319.266895440106;384.351827167727
319.288519177458;384.140071694361
319.310142914809;383.912628880122
319.331766652161;383.698134866521
319.353390389513;383.516546195643
319.375014126864;383.35439273266
319.396637864216;383.195615347724
319.418261601568;383.036078979322
319.43988533892;382.885145590299
319.461509076271;382.737306704115
319.483132813623;382.577432816976
319.504756550975;382.396597177869
319.526380288326;382.19330711085
319.548004025678;381.969913760794
319.56962776303;381.727871252846
319.591251500382;381.461332335169
319.612875237733;381.16417837457
319.634498975085;380.83740795632
319.656122712437;380.490315003649
319.677746449788;380.120425070965
319.69937018714;379.726016686957
319.720993924492;379.321057501941
319.742617661844;378.912462119627
319.764241399195;378.498542604721
319.785865136547;378.08485883779
319.807488873899;377.67898776545
319.82911261125;377.281943476925
319.850736348602;376.891180308134
319.872360085954;376.509670435632
319.893983823306;376.148782499373
319.915607560657;375.821194206613
319.937231298009;375.534465793476
319.958855035361;375.284789813164
319.980478772713;375.06752162967
320.002102510064;374.891295986002
320.023726247416;374.777315541265
320.045349984768;374.731040921074
320.066973722119;374.749970172849
320.088597459471;374.836680465123
320.110221196823;374.992931833382
320.131844934175;375.216420031149
320.153468671526;375.509340423059
320.175092408878;375.881818506751
320.19671614623;376.337225481608
320.218339883581;376.851905511244
320.239963620933;377.390361442531
320.261587358285;377.921745061155
320.283211095637;378.406129176863
320.304834832988;378.807704748533
320.32645857034;379.105387462978
320.348082307692;379.264246239864
320.369706045043;379.24464886325
320.391329782395;379.020945002764
320.412953519747;378.5664994143
320.434577257099;377.860386298983
320.45620099445;376.900172004849
320.477824731802;375.696226559866
320.499448469154;374.280022579165
320.521072206505;372.671043314851
320.542695943857;370.889105313928
320.564319681209;368.995985825892
320.585943418561;367.069476121365
320.607567155912;365.155887565859
320.629190893264;363.270635489828
320.650814630616;361.483755139927
320.672438367968;359.900960719321
320.694062105319;358.548731440774
320.715685842671;357.357741008786
320.737309580023;356.294571174687
320.758933317374;355.346216495954
320.780557054726;354.520530473352
320.802180792078;353.826135658652
320.82380452943;353.242398103553
320.845428266781;352.731078762601
320.867052004133;352.256876280716
320.888675741485;351.799991112352
320.910299478836;351.343107715721
320.931923216188;350.858304265614
320.95354695354;350.320356719293
320.975170690892;349.714798627637
320.996794428243;349.02259093832
321.018418165595;348.238297770863
321.040041902947;347.360755215933
321.061665640298;346.387889520287
321.08328937765;345.33337886016
321.104913115002;344.20304780984
321.126536852354;342.984953298978
321.148160589705;341.667644462246
321.169784327057;340.277181310047
321.191408064409;338.880030468667
321.213031801761;337.495807602014
321.234655539112;336.137279053429
321.256279276464;334.856021461324
321.277903013816;333.689417220338
321.299526751167;332.661174356822
321.321150488519;331.817659428319
321.342774225871;331.153727042298
321.364397963223;330.631629119215
321.386021700574;330.235708115507
321.407645437926;329.964045889721
321.429269175278;329.809025159691
321.450892912629;329.762455188647
321.472516649981;329.805511151106
321.494140387333;329.912839330951
321.515764124685;330.054314716526
321.537387862036;330.202831851392
321.559011599388;330.349103458185
321.58063533674;330.483560026735
321.602259074091;330.59599668514
321.623882811443;330.673511463529
321.645506548795;330.711158577347
321.667130286147;330.709273421744
321.688754023498;330.672592953806
321.71037776085;330.604396196209
321.732001498202;330.500075555412
321.753625235554;330.362284835307
321.775248972905;330.179856055624
321.796872710257;329.944180199581
321.818496447609;329.675410570508
321.84012018496;329.384475077108
321.861743922312;329.071526652735
321.883367659664;328.744056660165
321.904991397016;328.409440158774
321.926615134367;328.060347720946
321.948238871719;327.702982305442
321.969862609071;327.35567348873
321.991486346422;327.012444318171
322.013110083774;326.659200322989
322.034733821126;326.282716100794
322.056357558478;325.89463460182
322.077981295829;325.505201436372
322.099605033181;325.096608551553
322.121228770533;324.651833411648
322.142852507884;324.173841856552
322.164476245236;323.67577422984
322.186099982588;323.158462823908
322.20772371994;322.629128394525
322.229347457291;322.09787631357
322.250971194643;321.571183341176
322.272594931995;321.05166625314
322.294218669346;320.541654546053
322.315842406698;320.044051775113
322.33746614405;319.55996720174
322.359089881402;319.094316120028
322.380713618753;318.645952903235
322.402337356105;318.195887467255
322.423961093457;317.722041395305
322.445584830808;317.20565032042
322.46720856816;316.651675572595
322.488832305512;316.090044156017
322.510456042864;315.527934104466
322.532079780215;314.93933525449
322.553703517567;314.307116152861
322.575327254919;313.633466338451
322.596950992271;312.940413004302
322.618574729622;312.25769226599
322.640198466974;311.602435205111
322.661822204326;310.994332950742
322.683445941677;310.426667526114
322.705069679029;309.880477839584
322.726693416381;309.350261334931
322.748317153733;308.831312336351
322.769940891084;308.304860271182
322.791564628436;307.770949373621
322.813188365788;307.244740635078
322.834812103139;306.728065082151
322.856435840491;306.211883163942
322.878059577843;305.685552249377
322.899683315195;305.137766218835
322.921307052546;304.545541735903
322.942930789898;303.898947728346
322.96455452725;303.220796352207
322.986178264601;302.530501605058
323.007802001953;301.834224778584
323.029425739305;301.135939814041
323.051049476657;300.438249306841
323.072673214008;299.747145789131
323.09429695136;299.0624620796
323.115920688712;298.385294006956
323.137544426063;297.710995505938
323.159168163415;297.048893780393
323.180791900767;296.413553907565
323.202415638119;295.809874188285
323.22403937547;295.233916214049
323.245663112822;294.680438599362
323.267286850174;294.165504911159
323.288910587525;293.70426095185
323.310534324877;293.292805045398
323.332158062229;292.934482930888
323.353781799581;292.645413751024
323.375405536932;292.429578660732
323.397029274284;292.285684617171
323.418653011636;292.199668225561
323.440276748988;292.166473566326
323.461900486339;292.202570989453
323.483524223691;292.295315290313
323.505147961043;292.427494184641
323.526771698394;292.586063328386
323.548395435746;292.752774931913
323.570019173098;292.914914817181
323.59164291045;293.065318149166
323.613266647801;293.189723476839
323.634890385153;293.269592387677
323.656514122505;293.295063858841
323.678137859856;293.261561425678
323.699761597208;293.168721729972
323.72138533456;293.00915513118
323.743009071912;292.761696764414
323.764632809263;292.4020556337
323.786256546615;291.941608552305
323.807880283967;291.403836942334
323.829504021318;290.787786571071
323.85112775867;290.082272682239
323.872751496022;289.285775107569
323.894375233374;288.394311615886
323.915998970725;287.423837338748
323.937622708077;286.412946980562
323.959246445429;285.342818284232
323.980870182781;284.200748438067
324.002493920132;283.040076262412
324.024117657484;281.887391199247
324.045741394836;280.715876368156
324.067365132187;279.495493781431
324.088988869539;278.259951476574
324.110612606891;277.040214533333
324.132236344243;275.839521112512
324.153860081594;274.656758133174
324.175483818946;273.470097293213
324.197107556298;272.247449687659
324.218731293649;270.985829224393
324.240355031001;269.744295941455
324.261978768353;268.530530487531
324.283602505705;267.320886224118
324.305226243056;266.096902512661
324.326849980408;264.840722399882
324.34847371776;263.572366302918
324.370097455111;262.312771643775
324.391721192463;261.039319045296
324.413344929815;259.768362519276
324.434968667167;258.525442659624
324.456592404518;257.291422518091
324.47821614187;256.047061869148
324.499839879222;254.798902762043
324.521463616574;253.554684999302
324.543087353925;252.313491145064
324.564711091277;251.083706357824
324.586334828629;249.859011161016
324.60795856598;248.630151514461
324.629582303332;247.392297322545
324.651206040684;246.142327709527
324.672829778036;244.91300572927
324.694453515387;243.706473738981
324.716077252739;242.497478935991
324.737700990091;241.29053832255
324.759324727442;240.126118344642
324.780948464794;238.996161926189
