Name;ESR_BC_1_14400s_Y_gon_180dg_result

Recipe
Accumulations;5;Number of accumulations
RetryCount;0;Number of retries on error
AbortOnError;True;Abort on error
EnableQFactorMeasurement;False;Enable/Disable q-Factor measurement
Bfrom;313;B from
Bto;363;B to
SweepTime;60;Sweep time
Modulation;0.2;Modulation
ModulationFreq;100;Modulation
BHoldEnabled;False;B hold enabled
BHold;0;B hold
MicrowavePower;2;Microwave power
MarkerEnabled;False;
MarkerStartField;0;
MarkerEndField;0;
Mode;;
KineticGFact;0;
KineticTotalTransientTime;0;
KineticTimeResolution;0;
TempFrom;5;
TempUseSlope;False;
TempTo;5;
TempdT;1;
TempSetupTime;0;
GonFrom;0;
GonTo;180;
GonSteps;20;
XRayEnabled;False;
XRayTime;3;
XRayVoltage;40;
XRayCurrent;0.5;
UVEnabled;False;
UVIntensity;0;
UVTime;0;
UVLeadTime;0;
UVWavelength;0;
PowSweepFrom;1;
PowSweepTo;5;
PowSweepSteps;5;
AmpModSweepFrom;0;
AmpModSweepTo;1;
AmpModSweepSteps;10;
ExtTriggerEnabled;False;
ExtTrigLeadTime;0;
ExtTrigOnTime;5;

Meas
BField [mT];MW_Absorption []
313.024058837891;141.116088694999
313.045680450473;140.781068355818
313.067302063054;140.340390983504
313.088923675636;139.822273408364
313.110545288218;139.214801708766
313.1321669008;138.528322816242
313.153788513382;137.795872969816
313.175410125964;137.033851899046
313.197031738545;136.223817311421
313.218653351127;135.395518734248
313.240274963709;134.621696838336
313.261896576291;133.900129515902
313.283518188873;133.202198165338
313.305139801455;132.555141064017
313.326761414037;131.999370056564
313.348383026618;131.543652672766
313.3700046392;131.181029728418
313.391626251782;130.913940483721
313.413247864364;130.737197423135
313.434869476946;130.642545752131
313.456491089528;130.629164100096
313.47811270211;130.690308701829
313.499734314691;130.814189175721
313.521355927273;130.989962939635
313.542977539855;131.203915101838
313.564599152437;131.430497709913
313.586220765019;131.658085725872
313.607842377601;131.883216150967
313.629463990183;132.095406604417
313.651085602765;132.280439865255
313.672707215346;132.423239723972
313.694328827928;132.518007235106
313.71595044051;132.563758704756
313.737572053092;132.549162119411
313.759193665674;132.462729815091
313.780815278256;132.314062067172
313.802436890838;132.118864200814
313.824058503419;131.882147108488
313.845680116001;131.604321124644
313.867301728583;131.288905292789
313.888923341165;130.952532245429
313.910544953747;130.614290862685
313.932166566329;130.280057041601
313.95378817891;129.957344807266
313.975409791492;129.652809636913
313.997031404074;129.357972299583
314.018653016656;129.07452327467
314.040274629238;128.817585623541
314.06189624182;128.597605299346
314.083517854402;128.419462460735
314.105139466983;128.289562333273
314.126761079565;128.204870786034
314.148382692147;128.158767845373
314.170004304729;128.142458959364
314.191625917311;128.15807982849
314.213247529893;128.204635833663
314.234869142475;128.273442693057
314.256490755056;128.345957995767
314.278112367638;128.410889341219
314.29973398022;128.471404762698
314.321355592802;128.52799479484
314.342977205384;128.576211204332
314.364598817966;128.604240746841
314.386220430548;128.603794953598
314.407842043129;128.569175668144
314.429463655711;128.500784045481
314.451085268293;128.401684960648
314.472706880875;128.275466547677
314.494328493457;128.130507295586
314.515950106039;127.98308220142
314.537571718621;127.847598338085
314.559193331202;127.728991945494
314.580814943784;127.633616172485
314.602436556366;127.569838753707
314.624058168948;127.548778087677
314.64567978153;127.568133429561
314.667301394112;127.618552953165
314.688923006694;127.697863142107
314.710544619275;127.801716226058
314.732166231857;127.924886980217
314.753787844439;128.057083686923
314.775409457021;128.194624993272
314.797031069603;128.342086453031
314.818652682185;128.503577250399
314.840274294767;128.673022371585
314.861895907348;128.847969397218
314.88351751993;129.028192489333
314.905139132512;129.213055375692
314.926760745094;129.40223161284
314.948382357676;129.590534285493
314.970003970258;129.770544789644
314.99162558284;129.93975735878
315.013247195421;130.101763267583
315.034868808003;130.256679189267
315.056490420585;130.396243197702
315.078112033167;130.506535784071
315.099733645749;130.579745161785
315.121355258331;130.614883212644
315.142976870913;130.616919626473
315.164598483494;130.590642367721
315.186220096076;130.535866813046
315.207841708658;130.450080373343
315.22946332124;130.349124810987
315.251084933822;130.255904845463
315.272706546404;130.172420090113
315.294328158986;130.096741467819
315.315949771567;130.03191287786
315.337571384149;129.979212146724
315.359192996731;129.938329204257
315.380814609313;129.91532860057
315.402436221895;129.904822340965
315.424057834477;129.897383557373
315.445679447059;129.882121723803
315.46730105964;129.860822394181
315.488922672222;129.846680920344
315.510544284804;129.823564954574
315.532165897386;129.771274872505
315.553787509968;129.683689497931
315.57540912255;129.570240611945
315.597030735132;129.438820916078
315.618652347713;129.28741978533
315.640273960295;129.109225825069
315.661895572877;128.90539095334
315.683517185459;128.69225725771
315.705138798041;128.478508199253
315.726760410623;128.271659119489
315.748382023205;128.083777366484
315.770003635786;127.920325865083
315.791625248368;127.784344510379
315.81324686095;127.69153523698
315.834868473532;127.648440541246
315.856490086114;127.645829536502
315.878111698696;127.67736460534
315.899733311277;127.743474488869
315.921354923859;127.847043440456
315.942976536441;127.980433713041
315.964598149023;128.125175381935
315.986219761605;128.268429557966
316.007841374187;128.408072678085
316.029462986769;128.53342663184
316.05108459935;128.638817385013
316.072706211932;128.729880394873
316.094327824514;128.81181822665
316.115949437096;128.891748699937
316.137571049678;128.980402480239
316.15919266226;129.086660044875
316.180814274842;129.213001919596
316.202435887423;129.355264311423
316.224057500005;129.510717031347
316.245679112587;129.678732920653
316.267300725169;129.853900313947
316.288922337751;130.037912152405
316.310543950333;130.239457609334
316.332165562915;130.458052848156
316.353787175496;130.685886418334
316.375408788078;130.91407133383
316.39703040066;131.122870092995
316.418652013242;131.30330723532
316.440273625824;131.45434913568
316.461895238406;131.577430139543
316.483516850988;131.669179682329
316.505138463569;131.71932037368
316.526760076151;131.720816356432
316.548381688733;131.676107607517
316.570003301315;131.588549298104
316.591624913897;131.456523649499
316.613246526479;131.281759579066
316.634868139061;131.069934287527
316.656489751642;130.83217613158
316.678111364224;130.583355896254
316.699732976806;130.343629820117
316.721354589388;130.117885602588
316.74297620197;129.896674548322
316.764597814552;129.672634894519
316.786219427134;129.457520171843
316.807841039715;129.276146849307
316.829462652297;129.132782743395
316.851084264879;129.004783670751
316.872705877461;128.875452095473
316.894327490043;128.744961474249
316.915949102625;128.612650727105
316.937570715207;128.479390728583
316.959192327788;128.345223373625
316.98081394037;128.207508580369
317.002435552952;128.064389665549
317.024057165534;127.915951067174
317.045678778116;127.772456512657
317.067300390698;127.651756005404
317.08892200328;127.558753371779
317.110543615861;127.490902682269
317.132165228443;127.448448677579
317.153786841025;127.429964859542
317.175408453607;127.428875743257
317.197030066189;127.442506833493
317.218651678771;127.469971956476
317.240273291353;127.504057791136
317.261894903934;127.531195085164
317.283516516516;127.538923918127
317.305138129098;127.520963892838
317.32675974168;127.475526901994
317.348381354262;127.405901176034
317.370002966844;127.316403951812
317.391624579426;127.20323774904
317.413246192007;127.07127892622
317.434867804589;126.931162750964
317.456489417171;126.789307588098
317.478111029753;126.648931930559
317.499732642335;126.516765107262
317.521354254917;126.397100940654
317.542975867499;126.290723819044
317.56459748008;126.202394917291
317.586219092662;126.132602224027
317.607840705244;126.078639779865
317.629462317826;126.036234266096
317.651083930408;126.002770053917
317.67270554299;125.985584496748
317.694327155572;125.981653324709
317.715948768153;125.979231864131
317.737570380735;125.969959620251
317.759191993317;125.949387638699
317.780813605899;125.924371206628
317.802435218481;125.895384906454
317.824056831063;125.851074531457
317.845678443644;125.78645597966
317.867300056226;125.703236508983
317.888921668808;125.599364339187
317.91054328139;125.476234413126
317.932164893972;125.349331636015
317.953786506554;125.226717894041
317.975408119136;125.104208635551
317.997029731717;124.97271701795
318.018651344299;124.837666838516
318.040272956881;124.715600246117
318.061894569463;124.614148407925
318.083516182045;124.528988927656
318.105137794627;124.451184628952
318.126759407209;124.377233956756
318.14838101979;124.320736726922
318.170002632372;124.286607028321
318.191624244954;124.26454207629
318.213245857536;124.244841712874
318.234867470118;124.224179373731
318.2564890827;124.204709365651
318.278110695282;124.189895548486
318.299732307864;124.176057768131
318.321353920445;124.162596382073
318.342975533027;124.15178963717
318.364597145609;124.150025342112
318.386218758191;124.165028284172
318.407840370773;124.187244508252
318.429461983355;124.204630042779
318.451083595937;124.209828928055
318.472705208518;124.192910618673
318.4943268211;124.154724203253
318.515948433682;124.088164154406
318.537570046264;123.979300113856
318.559191658846;123.819514245524
318.580813271428;123.611119333203
318.602434884009;123.363831529549
318.624056496591;123.094293176426
318.645678109173;122.805124875937
318.667299721755;122.490055364581
318.688921334337;122.152793721174
318.710542946919;121.811174992745
318.732164559501;121.494626302795
318.753786172082;121.211514294868
318.775407784664;120.962220183024
318.797029397246;120.744621233401
318.818651009828;120.553480243118
318.84027262241;120.393201587126
318.861894234992;120.272460010196
318.883515847574;120.192109496463
318.905137460155;120.14035167509
318.926759072737;120.10522689308
318.948380685319;120.086785642839
318.970002297901;120.086607555842
318.991623910483;120.096174069173
319.013245523065;120.110855383462
319.034867135647;120.122142390531
319.056488748228;120.12309326425
319.07811036081;120.114796240912
319.099731973392;120.099717976296
319.121353585974;120.082003005281
319.142975198556;120.067217545521
319.164596811138;120.053857251983
319.18621842372;120.033204703705
319.207840036301;119.999672247442
319.229461648883;119.948239306972
319.251083261465;119.881882996118
319.272704874047;119.802910387494
319.294326486629;119.706218405304
319.315948099211;119.58343595803
319.337569711793;119.436351178064
319.359191324374;119.276646652766
319.380812936956;119.111016832183
319.402434549538;118.933118958318
319.42405616212;118.740125140684
319.445677774702;118.54130715386
319.467299387284;118.346367194462
319.488920999866;118.154235467832
319.510542612447;117.956734317794
319.532164225029;117.749558788495
319.553785837611;117.541192468907
319.575407450193;117.337176707621
319.597029062775;117.130673943926
319.618650675357;116.914842999858
319.640272287939;116.682089837833
319.66189390052;116.426547577316
319.683515513102;116.147186346838
319.705137125684;115.832672228424
319.726758738266;115.458610721936
319.748380350848;115.026961128867
319.77000196343;114.569033114174
319.791623576012;114.107878578696
319.813245188593;113.646676292627
319.834866801175;113.181544351222
319.856488413757;112.71217369269
319.878110026339;112.259920933807
319.899731638921;111.852564484779
319.921353251503;111.491446494683
319.942974864085;111.162646439814
319.964596476666;110.871781280461
319.986218089248;110.629810935557
320.00783970183;110.42513258532
320.029461314412;110.258891970339
320.051082926994;110.144880802148
320.072704539576;110.083507321274
320.094326152158;110.070283500503
320.115947764739;110.095354694589
320.137569377321;110.144067830546
320.159190989903;110.206512571761
320.180812602485;110.269991720562
320.202434215067;110.317525409255
320.224055827649;110.339047181548
320.245677440231;110.326938439381
320.267299052812;110.277406193099
320.288920665394;110.186192907632
320.310542277976;110.045642841988
320.332163890558;109.850933230559
320.35378550314;109.610695062216
320.375407115722;109.348949944066
320.397028728304;109.077593494724
320.418650340885;108.792633867192
320.440271953467;108.506840163262
320.461893566049;108.250234973519
320.483515178631;108.025076978567
320.505136791213;107.819141277956
320.526758403795;107.620362950928
320.548380016376;107.424802343173
320.570001628958;107.23481866446
320.59162324154;107.046266587646
320.613244854122;106.852659590529
320.634866466704;106.646928246576
320.656488079286;106.417927751885
320.678109691868;106.161333819688
320.699731304449;105.889425623579
320.721352917031;105.609821312275
320.742974529613;105.320313676452
320.764596142195;105.021995311832
320.786217754777;104.723032826343
320.807839367359;104.42599912081
320.829460979941;104.127742466632
320.851082592522;103.825733589621
320.872704205104;103.50921839708
320.894325817686;103.178103564842
320.915947430268;102.86185964431
320.93756904285;102.574000624388
320.959190655432;102.311220842179
320.980812268014;102.074999462333
321.002433880595;101.869722103353
321.024055493177;101.700710633936
321.045677105759;101.573045795931
321.067298718341;101.488400548804
321.088920330923;101.451449760466
321.110541943505;101.469963098186
321.132163556087;101.53298466576
321.153785168668;101.623679751636
321.17540678125;101.737295077318
321.197028393832;101.870142015118
321.218650006414;102.015176250367
321.240271618996;102.159704516442
321.261893231578;102.294816359669
321.28351484416;102.407746771338
321.305136456741;102.485235038579
321.326758069323;102.523935341131
321.348379681905;102.521390051885
321.370001294487;102.465166210069
321.391622907069;102.348559303157
321.413244519651;102.180028565234
321.434866132233;101.959720965538
321.456487744814;101.688110585502
321.478109357396;101.360178763324
321.499730969978;100.975583091569
321.52135258256;100.544796065755
321.542974195142;100.066013421715
321.564595807724;99.5470245442191
321.586217420306;99.0083405519687
321.607839032887;98.4554508059293
321.629460645469;97.8867721304824
321.651082258051;97.2942475841959
321.672703870633;96.6753367156596
321.694325483215;96.0381651409928
321.715947095797;95.3988155226669
321.737568708379;94.7921225167529
321.75919032096;94.2283760484114
321.780811933542;93.6860757142792
321.802433546124;93.155579040557
321.824055158706;92.6394007430134
321.845676771288;92.1584641584964
321.86729838387;91.7157064297019
321.888919996452;91.2902982004151
321.910541609033;90.8579266985929
321.932163221615;90.4158754458082
321.953784834197;89.9798324642514
321.975406446779;89.5410204391884
321.997028059361;89.0790590156599
322.018649671943;88.5947629417684
322.040271284525;88.0889570226783
322.061892897106;87.5573516785677
322.083514509688;86.9886241455287
322.10513612227;86.3757215107505
322.126757734852;85.7300174681438
322.148379347434;85.0918857133518
322.170000960016;84.484884535548
322.191622572598;83.9064852502625
322.213244185179;83.3530135373364
322.234865797761;82.8291759659306
322.256487410343;82.3493311048627
322.278109022925;81.9279745390711
322.299730635507;81.5647238976423
322.321352248089;81.2653370973929
322.342973860671;81.0319640428645
322.364595473252;80.8706388124642
322.386217085834;80.7811182264332
322.407838698416;80.7556918471513
322.429460310998;80.779440445567
322.45108192358;80.8377764475926
322.472703536162;80.9213513343841
322.494325148743;81.0234190202792
322.515946761325;81.1475742801892
322.537568373907;81.2894168299079
322.559189986489;81.4357556043725
322.580811599071;81.5839299574876
322.602433211653;81.7288323619053
322.624054824235;81.8582090173698
322.645676436816;81.9670836987318
322.667298049398;82.0568334955588
322.68891966198;82.1393449711911
322.710541274562;82.2214748720733
322.732162887144;82.2989473183483
322.753784499726;82.3609416110806
322.775406112308;82.3988357598706
322.797027724889;82.4070012323992
322.818649337471;82.3900271590078
322.840270950053;82.3581417357362
322.861892562635;82.3097075972198
322.883514175217;82.2293483597715
322.905135787799;82.1110547101393
322.926757400381;81.966751773714
322.948379012963;81.8085787591077
322.970000625544;81.6272397103816
322.991622238126;81.4156026643298
323.013243850708;81.1803737863385
323.03486546329;80.9312097128436
323.056487075872;80.6831396957166
323.078108688454;80.4481679826186
323.099730301035;80.2309909999347
323.121351913617;80.0335188883037
323.142973526199;79.8508927913754
323.164595138781;79.6711866880319
323.186216751363;79.4872127316508
323.207838363945;79.3002394937405
323.229459976527;79.1105771916993
323.251081589108;78.908187807349
323.27270320169;78.6808603424154
323.294324814272;78.4322085961468
323.315946426854;78.1692711717887
323.337568039436;77.8925579373787
323.359189652018;77.604539272118
323.3808112646;77.3204246089617
323.402432877181;77.0498004329426
323.424054489763;76.7990238146647
323.445676102345;76.573853942636
323.467297714927;76.3742297824422
323.488919327509;76.2104639900104
323.510540940091;76.0952923129817
323.532162552673;76.0269867496709
323.553784165254;75.9933956088832
323.575405777836;75.9831441501632
323.597027390418;75.9888351004181
323.618649003;76.0065664308311
323.640270615582;76.0342498361958
323.661892228164;76.0677741223196
323.683513840746;76.0982137557818
323.705135453327;76.1179242993619
323.726757065909;76.1232563703472
323.748378678491;76.1147270979392
323.770000291073;76.0933178609325
323.791621903655;76.0593709596148
323.813243516237;76.0146714469133
323.834865128819;75.9588930054357
323.8564867414;75.8967877271381
323.878108353982;75.841157809553
323.899729966564;75.7884236573511
323.921351579146;75.7170463747651
323.942973191728;75.612457063542
323.96459480431;75.4747302488656
323.986216416892;75.3054295939442
324.007838029473;75.1098088756928
324.029459642055;74.9021882494871
324.051081254637;74.6873222931939
324.072702867219;74.4603301865679
324.094324479801;74.2249057988242
324.115946092383;74.0032061098015
324.137567704965;73.8094006872807
324.159189317546;73.6393874287856
324.180810930128;73.4930964257407
324.20243254271;73.3839487651187
324.224054155292;73.3211808968568
324.245675767874;73.2973855849107
324.267297380456;73.3068184133805
324.288918993038;73.345844779148
324.310540605619;73.4072647540277
324.332162218201;73.4851213702033
324.353783830783;73.5793427872788
324.375405443365;73.6836545717467
324.397027055947;73.7811373089112
324.418648668529;73.8577541351957
324.440270281111;73.9077369976325
324.461891893692;73.9347362461278
324.483513506274;73.9412510437511
324.505135118856;73.9199300820656
324.526756731438;73.8617367772683
324.54837834402;73.7677424252881
324.569999956602;73.6412800582025
324.591621569184;73.4829296278367
324.613243181765;73.2975860256181
324.634864794347;73.0884048240072
324.656486406929;72.8554620181946
324.678108019511;72.5945608328274
324.699729632093;72.3126377105275
324.721351244675;72.0162745629218
324.742972857257;71.7140983589704
324.764594469838;71.4187113446339
