Name;ESR_BC_1_14400s_Z_gon_40dg_result

Recipe
Accumulations;5;Number of accumulations
RetryCount;0;Number of retries on error
AbortOnError;True;Abort on error
EnableQFactorMeasurement;False;Enable/Disable q-Factor measurement
Bfrom;313;B from
Bto;363;B to
SweepTime;60;Sweep time
Modulation;0.2;Modulation
ModulationFreq;100;Modulation
BHoldEnabled;False;B hold enabled
BHold;0;B hold
MicrowavePower;2;Microwave power
MarkerEnabled;False;
MarkerStartField;0;
MarkerEndField;0;
Mode;;
KineticGFact;0;
KineticTotalTransientTime;0;
KineticTimeResolution;0;
TempFrom;5;
TempUseSlope;False;
TempTo;5;
TempdT;1;
TempSetupTime;0;
GonFrom;0;
GonTo;180;
GonSteps;20;
XRayEnabled;False;
XRayTime;3;
XRayVoltage;40;
XRayCurrent;0.5;
UVEnabled;False;
UVIntensity;0;
UVTime;0;
UVLeadTime;0;
UVWavelength;0;
PowSweepFrom;1;
PowSweepTo;5;
PowSweepSteps;5;
AmpModSweepFrom;0;
AmpModSweepTo;1;
AmpModSweepSteps;10;
ExtTriggerEnabled;False;
ExtTrigLeadTime;0;
ExtTrigOnTime;5;

Meas
BField [mT];MW_Absorption []
313.018207321167;85.9729061552453
313.039827699517;85.8034162908088
313.061448077867;85.7169923773716
313.083068456217;85.7095540594831
313.104688834566;85.7734498525974
313.126309212916;85.8973434803445
313.147929591266;86.0765149259497
313.169549969616;86.3083962629749
313.191170347966;86.5985671146069
313.212790726316;86.9533600720809
313.234411104665;87.3490193426406
313.256031483015;87.7373081369132
313.277651861365;88.125606394155
313.299272239715;88.532049638667
313.320892618065;88.961125304165
313.342512996414;89.3912793090424
313.364133374764;89.7917613477689
313.385753753114;90.1489837327937
313.407374131464;90.4611468205311
313.428994509814;90.709416625518
313.450614888164;90.8858931208039
313.472235266513;90.9985114036481
313.493855644863;91.0567544313032
313.515476023213;91.0608125663449
313.537096401563;91.0066603426543
313.558716779913;90.890893944917
313.580337158263;90.7323637798785
313.601957536612;90.5647082114818
313.623577914962;90.3988647969571
313.645198293312;90.2270643958596
313.666818671662;90.0459639235981
313.688439050012;89.8647659109643
313.710059428362;89.68586550862
313.731679806711;89.50612607279
313.753300185061;89.3275626095517
313.774920563411;89.1466643567583
313.796540941761;88.9616841350286
313.818161320111;88.7742524042938
313.839781698461;88.583063738434
313.86140207681;88.3838254731626
313.88302245516;88.1779330559218
313.90464283351;87.9716016991121
313.92626321186;87.7717641223235
313.94788359021;87.5890708142597
313.96950396856;87.433273345182
313.991124346909;87.300466511181
314.012744725259;87.1985984543519
314.034365103609;87.1333840857809
314.055985481959;87.0921033307889
314.077605860309;87.0658507177069
314.099226238659;87.0555003211399
314.120846617008;87.0585269803349
314.142466995358;87.0620889116582
314.164087373708;87.0525656746271
314.185707752058;87.0147950601761
314.207328130408;86.9363899968487
314.228948508757;86.8293455107921
314.250568887107;86.6967485753994
314.272189265457;86.536413028738
314.293809643807;86.362912443958
314.315430022157;86.1793476802838
314.337050400507;85.9847413958233
314.358670778856;85.7943743793272
314.380291157206;85.6138505197505
314.401911535556;85.4480868397486
314.423531913906;85.3012324837537
314.445152292256;85.167945962039
314.466772670606;85.0296617584746
314.488393048955;84.8839282754669
314.510013427305;84.7427109586675
314.531633805655;84.6036147655623
314.553254184005;84.4498218544743
314.574874562355;84.2916669745733
314.596494940705;84.1447428561497
314.618115319054;84.007790156031
314.639735697404;83.8784025327314
314.661356075754;83.767924707046
314.682976454104;83.6956982642729
314.704596832454;83.6651536010297
314.726217210804;83.6665362648985
314.747837589153;83.7028696214974
314.769457967503;83.7844350837968
314.791078345853;83.9068100903015
314.812698724203;84.0543816884249
314.834319102553;84.2269796663394
314.855939480903;84.4310067617208
314.877559859252;84.6521311203255
314.899180237602;84.8641156270905
314.920800615952;85.0614341531359
314.942420994302;85.2393771309479
314.964041372652;85.3968672304377
314.985661751001;85.5342641257393
315.007282129351;85.6519474941279
315.028902507701;85.7621920536791
315.050522886051;85.8735230092758
315.072143264401;85.9876260617875
315.093763642751;86.0915362252614
315.1153840211;86.1783497781646
315.13700439945;86.2706423932763
315.1586247778;86.3867289248055
315.18024515615;86.516505347658
315.2018655345;86.6599928798285
315.22348591285;86.8161137427273
315.245106291199;86.9771462963913
315.266726669549;87.1374248874671
315.288347047899;87.3003765526488
315.309967426249;87.4664869987944
315.331587804599;87.6339942143205
315.353208182949;87.7947985483381
315.374828561298;87.9307548244751
315.396448939648;88.0263848996478
315.418069317998;88.0670593696513
315.439689696348;88.0416890950919
315.461310074698;87.9568674730668
315.482930453048;87.819759167058
315.504550831397;87.6210767992813
315.526171209747;87.3643854350875
315.547791588097;87.0803952911991
315.569411966447;86.7905836677403
315.591032344797;86.4916732495487
315.612652723147;86.1840580088183
315.634273101496;85.8558078341938
315.655893479846;85.4931320568243
315.677513858196;85.1129191962262
315.699134236546;84.7521515941979
315.720754614896;84.4093672204843
315.742374993246;84.0770764069274
315.763995371595;83.7594705263258
315.785615749945;83.4665098132545
315.807236128295;83.2121658566262
315.828856506645;83.0176190362046
315.850476884995;82.8805975525527
315.872097263344;82.7946160911746
315.893717641694;82.7604988433054
315.915338020044;82.7845866821512
315.936958398394;82.8714097360899
315.958578776744;83.0150013156905
315.980199155094;83.2085033632862
316.001819533443;83.4513606718043
316.023439911793;83.7312203344823
316.045060290143;84.03090571737
316.066680668493;84.3408224032054
316.088301046843;84.6632353962979
316.109921425193;84.9965175926581
316.131541803542;85.3283292165465
316.153162181892;85.6424787750941
316.174782560242;85.9200762167521
316.196402938592;86.1569391590312
316.218023316942;86.3622385826511
316.239643695292;86.5375966019573
316.261264073641;86.6722794990866
316.282884451991;86.7520943977574
316.304504830341;86.7697840069907
316.326125208691;86.7235407920258
316.347745587041;86.6186800853147
316.369365965391;86.4579604887332
316.39098634374;86.2473662689221
316.41260672209;85.9921818187435
316.43422710044;85.6916571483301
316.45584747879;85.3512940950681
316.47746785714;85.0014599577099
316.49908823549;84.6549809471017
316.520708613839;84.3095422339867
316.542328992189;83.9735933178411
316.563949370539;83.6614703457673
316.585569748889;83.3789229503196
316.607190127239;83.1338112754724
316.628810505588;82.9226772607273
316.650430883938;82.7306797976101
316.672051262288;82.5442625059049
316.693671640638;82.3679058329869
316.715292018988;82.1948973298385
316.736912397338;82.0020692690823
316.758532775687;81.7831439562339
316.780153154037;81.5614210097386
316.801773532387;81.3484649330771
316.823393910737;81.1394509775698
316.845014289087;80.9242863221356
316.866634667437;80.7013375248594
316.888255045786;80.4805987214606
316.909875424136;80.2831000864674
316.931495802486;80.1299523886169
316.953116180836;80.0313119390026
316.974736559186;79.9880297018686
316.996356937536;79.9959595111122
317.017977315885;80.0497644378123
317.039597694235;80.1497014900077
317.061218072585;80.2996959642122
317.082838450935;80.5010947740801
317.104458829285;80.7266703026599
317.126079207635;80.937636286798
317.147699585984;81.1252136687724
317.169319964334;81.2928787994093
317.190940342684;81.4402347757286
317.212560721034;81.5565828510198
317.234181099384;81.6279526058655
317.255801477734;81.646881553792
317.277421856083;81.6125023231505
317.299042234433;81.5370201930727
317.320662612783;81.4357297749464
317.342282991133;81.3095853095458
317.363903369483;81.1557579546119
317.385523747833;80.9790401013465
317.407144126182;80.8006278482361
317.428764504532;80.6394335040538
317.450384882882;80.4875965356276
317.472005261232;80.3352817950536
317.493625639582;80.1865946438908
317.515246017931;80.0472695086733
317.536866396281;79.9175862294418
317.558486774631;79.8085935751534
317.580107152981;79.7230219559229
317.601727531331;79.6556841494342
317.623347909681;79.6112428190443
317.64496828803;79.5958153215476
317.66658866638;79.6058320460371
317.68820904473;79.6384654188201
317.70982942308;79.6960221145837
317.73144980143;79.7834237534204
317.75307017978;79.9066921744817
317.774690558129;80.0724722378276
317.796310936479;80.2850429831043
317.817931314829;80.5416637469194
317.839551693179;80.8305018575755
317.861172071529;81.1360981485051
317.882792449879;81.4480657836038
317.904412828228;81.7614928999487
317.926033206578;82.0655402382676
317.947653584928;82.3523306613486
317.969273963278;82.6129429385061
317.990894341628;82.8424851217174
318.012514719978;83.0383574481519
318.034135098327;83.2047975268378
318.055755476677;83.3348035913528
318.077375855027;83.40478857128
318.098996233377;83.4266077372544
318.120616611727;83.4261971042114
318.142236990077;83.3966294498194
318.163857368426;83.3335690205911
318.185477746776;83.2326830261397
318.207098125126;83.1116670581544
318.228718503476;82.9794400857244
318.250338881826;82.8233711945991
318.271959260175;82.6354619539066
318.293579638525;82.4159619944267
318.315200016875;82.1678338449957
318.336820395225;81.888507651852
318.358440773575;81.5756754197478
318.380061151925;81.2310941041563
318.401681530274;80.8697939700505
318.423301908624;80.511861531294
318.444922286974;80.1551132322381
318.466542665324;79.790682012503
318.488163043674;79.4156957984004
318.509783422024;79.0370863865433
318.531403800373;78.665968026358
318.553024178723;78.3133655389982
318.574644557073;77.976799702808
318.596264935423;77.6494416578023
318.617885313773;77.3412103127943
318.639505692123;77.0776365381571
318.661126070472;76.8477192919368
318.682746448822;76.6490917547673
318.704366827172;76.4844339570769
318.725987205522;76.3474025116678
318.747607583872;76.245562898216
318.769227962222;76.1825175951826
318.790848340571;76.1486135916544
318.812468718921;76.1386990297654
318.834089097271;76.1517272186176
318.855709475621;76.1945148392017
318.877329853971;76.2738099852265
318.898950232321;76.3785325634186
318.92057061067;76.4983026407665
318.94219098902;76.6362953885332
318.96381136737;76.7933349468275
318.98543174572;76.969499546604
319.00705212407;77.1671219191283
319.02867250242;77.3780847790936
319.050292880769;77.5853202693452
319.071913259119;77.7761660602829
319.093533637469;77.9393823863054
319.115154015819;78.0596137815723
319.136774394169;78.1235909669057
319.158394772518;78.1260863527613
319.180015150868;78.0658155685565
319.201635529218;77.9373105962789
319.223255907568;77.7373945634795
319.244876285918;77.4770489580905
319.266496664268;77.1715421612858
319.288117042618;76.8411047231784
319.309737420967;76.501712063744
319.331357799317;76.1654724114107
319.352978177667;75.8317768477508
319.374598556017;75.5030961687227
319.396218934367;75.1889631360933
319.417839312716;74.892997620564
319.439459691066;74.614964084997
319.461080069416;74.3614814155596
319.482700447766;74.1340402812765
319.504320826116;73.931789698588
319.525941204466;73.7489934213698
319.547561582815;73.5822924966969
319.569181961165;73.434879493937
319.590802339515;73.3151098249918
319.612422717865;73.2248523255956
319.634043096215;73.1621207577665
319.655663474565;73.120653380531
319.677283852914;73.1002482004266
319.698904231264;73.1057949615984
319.720524609614;73.1379410301688
319.742144987964;73.1960655635169
319.763765366314;73.2747005309158
319.785385744664;73.3623702887571
319.807006123013;73.4472460662179
319.828626501363;73.5180970697839
319.850246879713;73.5726148505036
319.871867258063;73.6138929443888
319.893487636413;73.6465283094111
319.915108014763;73.672741611428
319.936728393112;73.6934017331578
319.958348771462;73.7038754003402
319.979969149812;73.7055840404509
320.001589528162;73.7064651370622
320.023209906512;73.7112248802586
320.044830284862;73.7219959315644
320.066450663211;73.7382643006374
320.088071041561;73.7570955579684
320.109691419911;73.7713065276837
320.131311798261;73.770650670204
320.152932176611;73.7517577767584
320.17455255496;73.7192669340059
320.19617293331;73.6717494323931
320.21779331166;73.6069719408995
320.23941369001;73.5267692340067
320.26103406836;73.4371477486049
320.28265444671;73.3497901732157
320.304274825059;73.2750364168288
320.325895203409;73.2158197810951
320.347515581759;73.1729201951564
320.369135960109;73.1505649300219
320.390756338459;73.1547825029946
320.412376716809;73.1904336709587
320.433997095158;73.2518669641208
320.455617473508;73.3317116762254
320.477237851858;73.4328657055043
320.498858230208;73.5596983487799
320.520478608558;73.7028004234122
320.542098986908;73.849645513981
320.563719365257;74.001072343485
320.585339743607;74.1674111503335
320.606960121957;74.3578553140889
320.628580500307;74.5654233152395
320.650200878657;74.7775116928089
320.671821257007;74.9953048805055
320.693441635356;75.2287808491492
320.715062013706;75.4822281977493
320.736682392056;75.7499897771221
320.758302770406;76.0240126095562
320.779923148756;76.2999691576232
320.801543527106;76.5709998635862
320.823163905455;76.8294589929095
320.844784283805;77.0823938164549
320.866404662155;77.3381654963701
320.888025040505;77.5873807426434
320.909645418855;77.8318576982556
320.931265797205;78.0737104934718
320.952886175554;78.3053250073014
320.974506553904;78.5270432112456
320.996126932254;78.7340090978465
321.017747310604;78.9171417354616
321.039367688954;79.0648190687943
321.060988067303;79.1663556386133
321.082608445653;79.2170718426069
321.104228824003;79.2089535447192
321.125849202353;79.1291867701241
321.147469580703;78.9780378505323
321.169089959053;78.766294137567
321.190710337402;78.4951251319277
321.212330715752;78.1671750145617
321.233951094102;77.806140563774
321.255571472452;77.4257330142757
321.277191850802;77.0249518802011
321.298812229152;76.6135260782935
321.320432607501;76.2119588511172
321.342052985851;75.8401922899199
321.363673364201;75.5144394696791
321.385293742551;75.2335436049155
321.406914120901;74.9967480914435
321.428534499251;74.8069338112903
321.4501548776;74.6646216883836
321.47177525595;74.5613281726923
321.4933956343;74.479219535875
321.51501601265;74.4091391130009
321.536636391;74.3475566822074
321.55825676935;74.2834154466666
321.579877147699;74.1944768941735
321.601497526049;74.0595174503861
321.623117904399;73.8721026826679
321.644738282749;73.62831834791
321.666358661099;73.3236122103108
321.687979039449;72.9507141031118
321.709599417798;72.4937348177427
321.731219796148;71.9782031791844
321.752840174498;71.4331815766938
321.774460552848;70.8396725892916
321.796080931198;70.1850172092905
321.817701309547;69.492194887618
321.839321687897;68.7836182486569
321.860942066247;68.0771364329656
321.882562444597;67.3740243981992
321.904182822947;66.6999490706861
321.925803201297;66.1020138268381
321.947423579646;65.5762580404946
321.969043957996;65.1092280713463
321.990664336346;64.7013160553641
322.012284714696;64.3504376898102
322.033905093046;64.0588303925219
322.055525471396;63.8289038901811
322.077145849745;63.6492203126194
322.098766228095;63.518973428287
322.120386606445;63.4460234179503
322.142006984795;63.4374516349406
322.163627363145;63.4996549418466
322.185247741495;63.6161301562269
322.206868119844;63.7813463780858
322.228488498194;63.9920785433945
322.250108876544;64.2397540396632
322.271729254894;64.5168730268255
322.293349633244;64.8254246137003
322.314970011594;65.1590632241888
322.336590389943;65.4953069898604
322.358210768293;65.8110643447039
322.379831146643;66.1081954601214
322.401451524993;66.384645558871
322.423071903343;66.6314466190879
322.444692281693;66.8381512330317
322.466312660042;67.0024840938165
322.487933038392;67.1224508278144
322.509553416742;67.2024353444108
322.531173795092;67.2455761372525
322.552794173442;67.2522757502023
322.574414551792;67.2273482832073
322.596034930141;67.1724715739265
322.617655308491;67.0855287682761
322.639275686841;66.9697573319863
322.660896065191;66.8215731471713
322.682516443541;66.631513631037
322.70413682189;66.4011610196696
322.72575720024;66.1389296991618
322.74737757859;65.8440519128507
322.76899795694;65.5145114542705
322.79061833529;65.1564826077083
322.81223871364;64.7948384847764
322.833859091989;64.4424644331615
322.855479470339;64.1074047142752
322.877099848689;63.8072869247338
322.898720227039;63.5383276604363
322.920340605389;63.3020369660689
322.941960983739;63.1094365683764
322.963581362088;62.9611321118594
322.985201740438;62.851044371188
323.006822118788;62.7702435735595
323.028442497138;62.7091552087536
323.050062875488;62.6631043833781
323.071683253838;62.6332272247275
323.093303632187;62.6138632525546
323.114924010537;62.5948403473488
323.136544388887;62.5718435602198
323.158164767237;62.5418565275679
323.179785145587;62.5012983975726
323.201405523937;62.4436367547731
323.223025902286;62.369122841352
323.244646280636;62.2751445819445
323.266266658986;62.1543859450919
323.287887037336;62.0019384746055
323.309507415686;61.8197486585023
323.331127794036;61.6067481314666
323.352748172385;61.3600573911935
323.374368550735;61.0739175183537
323.395988929085;60.7543560387645
323.417609307435;60.4175173676226
323.439229685785;60.0768670658632
323.460850064134;59.7310770625962
323.482470442484;59.3834256964725
323.504090820834;59.0440262881554
323.525711199184;58.7265278095512
323.547331577534;58.4448575695011
323.568951955884;58.2079017158022
323.590572334233;58.0101517844694
323.612192712583;57.8458639221714
323.633813090933;57.714131774176
323.655433469283;57.6140442922791
323.677053847633;57.5368600278079
323.698674225983;57.4652067535001
323.720294604332;57.3823266234641
323.741914982682;57.2779963196403
323.763535361032;57.1490912184023
323.785155739382;56.9954383366296
323.806776117732;56.8138391273927
323.828396496082;56.598355257385
323.850016874431;56.3490880088991
323.871637252781;56.0798003299184
323.893257631131;55.8108343183604
323.914878009481;55.5540832793964
323.936498387831;55.3171502871953
323.958118766181;55.1205202512151
323.97973914453;54.9846561317644
324.00135952288;54.911031179326
324.02297990123;54.8959690356033
324.04460027958;54.9335751274877
324.06622065793;55.0169561106199
324.08784103628;55.1429075061145
324.109461414629;55.3078663626597
324.131081792979;55.5050124778775
324.152702171329;55.7205839084645
324.174322549679;55.9407408548139
324.195942928029;56.1571050565817
324.217563306379;56.3602274600001
324.239183684728;56.5304475880928
324.260804063078;56.6523979697056
324.282424441428;56.7164939195264
324.304044819778;56.7100052732078
324.325665198128;56.6397778786853
324.347285576477;56.5226435744981
324.368905954827;56.3616143027941
324.390526333177;56.143412485215
324.412146711527;55.8604134442347
324.433767089877;55.5361316943903
324.455387468227;55.2003209544254
324.477007846576;54.8554879602746
324.498628224926;54.4975423832661
324.520248603276;54.1389940243456
324.541868981626;53.8019082345543
324.563489359976;53.4922050754586
324.585109738326;53.2148764333219
324.606730116675;52.9829502071799
324.628350495025;52.8046001203009
324.649970873375;52.6743120756625
324.671591251725;52.5853891456974
324.693211630075;52.5330314930647
324.714832008425;52.511245244523
324.736452386774;52.513544990353
324.758072765124;52.5357405240182
