Name;ESR_BC_1_7200s_Y_gon_20dg_result

Recipe
Accumulations;5;Number of accumulations
RetryCount;0;Number of retries on error
AbortOnError;True;Abort on error
EnableQFactorMeasurement;False;Enable/Disable q-Factor measurement
Bfrom;313;B from
Bto;363;B to
SweepTime;60;Sweep time
Modulation;0.2;Modulation
ModulationFreq;100;Modulation
BHoldEnabled;False;B hold enabled
BHold;0;B hold
MicrowavePower;2;Microwave power
MarkerEnabled;False;
MarkerStartField;0;
MarkerEndField;0;
Mode;;
KineticGFact;0;
KineticTotalTransientTime;0;
KineticTimeResolution;0;
TempFrom;5;
TempUseSlope;False;
TempTo;5;
TempdT;1;
TempSetupTime;0;
GonFrom;0;
GonTo;180;
GonSteps;20;
XRayEnabled;False;
XRayTime;3;
XRayVoltage;40;
XRayCurrent;0.5;
UVEnabled;False;
UVIntensity;0;
UVTime;0;
UVLeadTime;0;
UVWavelength;0;
PowSweepFrom;1;
PowSweepTo;5;
PowSweepSteps;5;
AmpModSweepFrom;0;
AmpModSweepTo;1;
AmpModSweepSteps;10;
ExtTriggerEnabled;False;
ExtTrigLeadTime;0;
ExtTrigOnTime;5;

Meas
BField [mT];MW_Absorption []
313.01535118103;184.948815371086
313.036977429378;184.623369392541
313.058603677725;183.74620129705
313.080229926072;182.693187336744
313.101856174419;181.573356107038
313.123482422767;180.393989143849
313.145108671114;179.127488390055
313.166734919461;177.780802824483
313.188361167809;176.328206862816
313.209987416156;174.732460885521
313.231613664503;173.060912100686
313.253239912851;171.389701224
313.274866161198;169.723530887845
313.296492409545;168.043303606323
313.318118657892;166.367950022698
313.33974490624;164.728059012979
313.361371154587;163.158365432638
313.382997402934;161.687335277154
313.404623651282;160.321211622222
313.426249899629;159.041515301229
313.447876147976;157.829980740023
313.469502396323;156.672657001947
313.491128644671;155.546236284279
313.512754893018;154.45154332462
313.534381141365;153.40679778116
313.556007389713;152.421850669162
313.57763363806;151.469823367823
313.599259886407;150.523641937795
313.620886134755;149.570378918717
313.642512383102;148.617591712818
313.664138631449;147.69985307829
313.685764879796;146.837165967771
313.707391128144;146.007393692935
313.729017376491;145.201181534872
313.750643624838;144.43957024008
313.772269873186;143.721714891884
313.793896121533;143.049686132311
313.81552236988;142.428999890985
313.837148618228;141.862973134848
313.858774866575;141.350225857663
313.880401114922;140.87887219085
313.902027363269;140.443627583565
313.923653611617;140.044902595389
313.945279859964;139.676929570838
313.966906108311;139.338398446552
313.988532356659;139.008200764129
314.010158605006;138.681259676789
314.031784853353;138.372478888791
314.0534111017;138.08295645915
314.075037350048;137.812531636582
314.096663598395;137.562697003952
314.118289846742;137.341429322743
314.13991609509;137.142874381046
314.161542343437;136.947782386232
314.183168591784;136.751631844698
314.204794840132;136.563961953155
314.226421088479;136.386832718898
314.248047336826;136.208827628844
314.269673585173;136.020623574865
314.291299833521;135.823073128056
314.312926081868;135.621263936289
314.334552330215;135.412979009741
314.356178578563;135.192691575352
314.37780482691;134.950032006717
314.399431075257;134.682452171415
314.421057323604;134.401602397465
314.442683571952;134.111329071798
314.464309820299;133.80924259224
314.485936068646;133.492441697828
314.507562316994;133.158422327136
314.529188565341;132.799314968973
314.550814813688;132.434382638451
314.572441062036;132.080561138021
314.594067310383;131.736503579024
314.61569355873;131.385819714426
314.637319807077;131.004606228881
314.658946055425;130.586045546718
314.680572303772;130.153968995043
314.702198552119;129.717164133236
314.723824800467;129.285142113185
314.745451048814;128.853353828029
314.767077297161;128.417144617223
314.788703545509;127.995303716784
314.810329793856;127.592318349942
314.831956042203;127.20864689073
314.85358229055;126.841596274402
314.875208538898;126.501735221998
314.896834787245;126.205881498598
314.918461035592;125.949819479074
314.94008728394;125.722208982843
314.961713532287;125.524117131308
314.983339780634;125.370227676052
315.004966028981;125.267109328455
315.026592277329;125.218381467657
315.048218525676;125.209411447229
315.069844774023;125.224938450473
315.091471022371;125.251244288407
315.113097270718;125.283546020712
315.134723519065;125.319747720773
315.156349767413;125.352733615432
315.17797601576;125.373907747315
315.199602264107;125.377408911442
315.221228512454;125.359920049346
315.242854760802;125.327479732916
315.264481009149;125.280492930547
315.286107257496;125.217116664026
315.307733505844;125.144982300353
315.329359754191;125.068217687175
315.350986002538;124.983108413795
315.372612250885;124.884824780185
315.394238499233;124.782270684015
315.41586474758;124.687106005074
315.437490995927;124.601116677382
315.459117244275;124.512993384771
315.480743492622;124.431641746656
315.502369740969;124.36511445691
315.523995989317;124.310725620082
315.545622237664;124.2624439849
315.567248486011;124.22816775035
315.588874734358;124.219374786616
315.610500982706;124.23615819294
315.632127231053;124.269271935103
315.6537534794;124.309851537551
315.675379727748;124.353626041066
315.697005976095;124.404859636015
315.718632224442;124.464614171514
315.740258472789;124.53282616807
315.761884721137;124.6113183735
315.783510969484;124.698740018967
315.805137217831;124.7921929642
315.826763466179;124.884749338649
315.848389714526;124.97319427175
315.870015962873;125.058761159678
315.891642211221;125.143101823026
315.913268459568;125.221337450757
315.934894707915;125.284528999282
315.956520956262;125.334323308199
315.97814720461;125.372697270531
315.999773452957;125.397313819146
316.021399701304;125.405065262011
316.043025949652;125.396085062191
316.064652197999;125.378032681278
316.086278446346;125.36012731479
316.107904694694;125.343187807459
316.129530943041;125.318621789139
316.151157191388;125.278492539883
316.172783439735;125.227214178695
316.194409688083;125.16506997977
316.21603593643;125.090842532282
316.237662184777;125.021048699147
316.259288433125;124.972462706749
316.280914681472;124.936145478645
316.302540929819;124.901359212966
316.324167178166;124.877943692018
316.345793426514;124.873240761732
316.367419674861;124.891778938261
316.389045923208;124.939729604623
316.410672171556;125.018596516947
316.432298419903;125.118195223607
316.45392466825;125.228417561738
316.475550916598;125.341301994167
316.497177164945;125.451261978666
316.518803413292;125.555532493413
316.540429661639;125.644452836372
316.562055909987;125.704711907385
316.583682158334;125.724916782923
316.605308406681;125.699882137618
316.626934655029;125.634118125864
316.648560903376;125.538470684163
316.670187151723;125.41724619759
316.69181340007;125.264558231985
316.713439648418;125.08046023761
316.735065896765;124.882102106644
316.756692145112;124.68850182508
316.77831839346;124.510501554871
316.799944641807;124.336906401749
316.821570890154;124.147371169199
316.843197138502;123.936723279782
316.864823386849;123.736111714572
316.886449635196;123.551946539742
316.908075883543;123.376137161008
316.929702131891;123.205435661455
316.951328380238;123.049408146142
316.972954628585;122.921519786099
316.994580876933;122.828901644818
317.01620712528;122.777725465412
317.037833373627;122.777671646054
317.059459621974;122.83567293667
317.081085870322;122.940127951586
317.102712118669;123.07695866538
317.124338367016;123.247686699275
317.145964615364;123.45734519927
317.167590863711;123.701796874821
317.189217112058;123.971478239283
317.210843360406;124.252784179524
317.232469608753;124.534133228148
317.2540958571;124.814620428748
317.275722105447;125.104438003439
317.297348353795;125.411845780595
317.318974602142;125.724052227862
317.340600850489;126.023268623615
317.362227098837;126.311804768885
317.383853347184;126.601887991204
317.405479595531;126.903329328266
317.427105843878;127.200722045938
317.448732092226;127.462006617558
317.470358340573;127.683460991787
317.49198458892;127.864900321839
317.513610837268;127.990205865254
317.535237085615;128.046324147172
317.556863333962;128.040498061702
317.57848958231;127.987655003926
317.600115830657;127.889067033389
317.621742079004;127.743260357082
317.643368327351;127.566264815934
317.664994575699;127.386088018375
317.686620824046;127.228026673221
317.708247072393;127.110467737316
317.729873320741;127.031138069232
317.751499569088;127.001331853427
317.773125817435;127.037511900506
317.794752065782;127.141001842059
317.81637831413;127.304490377975
317.838004562477;127.517859997142
317.859630810824;127.760497059317
317.881257059172;128.018656883314
317.902883307519;128.288004405656
317.924509555866;128.561040945573
317.946135804214;128.821867793734
317.967762052561;129.055535710138
317.989388300908;129.250105930929
318.011014549255;129.399866256446
318.032640797603;129.50352904355
318.05426704595;129.559496358955
318.075893294297;129.571824554063
318.097519542645;129.54660947713
318.119145790992;129.487841468753
318.140772039339;129.403151817199
318.162398287686;129.293938141191
318.184024536034;129.155662526194
318.205650784381;128.98062104005
318.227277032728;128.763318709527
318.248903281076;128.532044105276
318.270529529423;128.298584408713
318.29215577777;128.055762915488
318.313782026118;127.803521278652
318.335408274465;127.544594532909
318.357034522812;127.281562066405
318.378660771159;127.020612100377
318.400287019507;126.768813337301
318.421913267854;126.527490348097
318.443539516201;126.293462594401
318.465165764549;126.06157532547
318.486792012896;125.824552821737
318.508418261243;125.584417992783
318.53004450959;125.35167685661
318.551670757938;125.130325892288
318.573297006285;124.915012702922
318.594923254632;124.693206496436
318.61654950298;124.456462653777
318.638175751327;124.207633522243
318.659801999674;123.942608901744
318.681428248022;123.658361780209
318.703054496369;123.35323175891
318.724680744716;123.028325250082
318.746306993063;122.685635315618
318.767933241411;122.320516034786
318.789559489758;121.919106371493
318.811185738105;121.477039036508
318.832811986453;121.014358840678
318.8544382348;120.559956054697
318.876064483147;120.130327995299
318.897690731494;119.727697102367
318.919316979842;119.343732407975
318.940943228189;118.984981465082
318.962569476536;118.66889175003
318.984195724884;118.41452584799
319.005821973231;118.230680851631
319.027448221578;118.111551299841
319.049074469926;118.05101637884
319.070700718273;118.035691245543
319.09232696662;118.059334053414
319.113953214967;118.10481487679
319.135579463315;118.149618026832
319.157205711662;118.180663715991
319.178831960009;118.191000035117
319.200458208357;118.18089612235
319.222084456704;118.140235319166
319.243710705051;118.062376924066
319.265336953399;117.951320090447
319.286963201746;117.817798596669
319.308589450093;117.659195991441
319.33021569844;117.477296438576
319.351841946788;117.277944032209
319.373468195135;117.0718776104
319.395094443482;116.874814130594
319.41672069183;116.700283138577
319.438346940177;116.545322006948
319.459973188524;116.401433352928
319.481599436871;116.272158670499
319.503225685219;116.164219092019
319.524851933566;116.075682608201
319.546478181913;116.005859424069
319.568104430261;115.952259097311
319.589730678608;115.922470649567
319.611356926955;115.912495265909
319.632983175303;115.911562181517
319.65460942365;115.909247124028
319.676235671997;115.904859719054
319.697861920344;115.90041893428
319.719488168692;115.894982567376
319.741114417039;115.890987993446
319.762740665386;115.880864525215
319.784366913734;115.850090521508
319.805993162081;115.793904649156
319.827619410428;115.709980242637
319.849245658775;115.605535567802
319.870871907123;115.488776717605
319.89249815547;115.361555838356
319.914124403817;115.225397991884
319.935750652165;115.082941787546
319.957376900512;114.941967343943
319.979003148859;114.809406126126
320.000629397207;114.686735008098
320.022255645554;114.57705444694
320.043881893901;114.480509415656
320.065508142248;114.392014354613
320.087134390596;114.310236314797
320.108760638943;114.23365388829
320.13038688729;114.15663471484
320.152013135638;114.078315179132
320.173639383985;114.001908576302
320.195265632332;113.923084935747
320.21689188068;113.835410195086
320.238518129027;113.730377011348
320.260144377374;113.594761102186
320.281770625721;113.421014281997
320.303396874069;113.219238255366
320.325023122416;113.007698394859
320.346649370763;112.77718646535
320.368275619111;112.529593644686
320.389901867458;112.274514621797
320.411528115805;112.015951134978
320.433154364152;111.754691864487
320.4547806125;111.488658916871
320.476406860847;111.217292848555
320.498033109194;110.945959787515
320.519659357542;110.680084297409
320.541285605889;110.419835429803
320.562911854236;110.17409252655
320.584538102584;109.948379674864
320.606164350931;109.73187016299
320.627790599278;109.519153326376
320.649416847625;109.320151893702
320.671043095973;109.138151173578
320.69266934432;108.965040137402
320.714295592667;108.790656779241
320.735921841015;108.616787299041
320.757548089362;108.451847428836
320.779174337709;108.300989000195
320.800800586056;108.164522196985
320.822426834404;108.042658114317
320.844053082751;107.935064968613
320.865679331098;107.84330373901
320.887305579446;107.767803351314
320.908931827793;107.700934683079
320.93055807614;107.639412265063
320.952184324488;107.591431824848
320.973810572835;107.559505808483
320.995436821182;107.524719979337
321.017063069529;107.475964257343
321.038689317877;107.426299444635
321.060315566224;107.391092898595
321.081941814571;107.371686310584
321.103568062919;107.364071296888
321.125194311266;107.375894438024
321.146820559613;107.415971507659
321.16844680796;107.479550474991
321.190073056308;107.565135766922
321.211699304655;107.680123862191
321.233325553002;107.828346375604
321.25495180135;108.010770379466
321.276578049697;108.228318541829
321.298204298044;108.473529608512
321.319830546392;108.732144090758
321.341456794739;108.999042746536
321.363083043086;109.27937430278
321.384709291433;109.578203000015
321.406335539781;109.89257204491
321.427961788128;110.204740837259
321.449588036475;110.49223455049
321.471214284823;110.730053096199
321.49284053317;110.906530210045
321.514466781517;111.020047314903
321.536093029864;111.060697127851
321.557719278212;111.011651852634
321.579345526559;110.861175437693
321.600971774906;110.609727554496
321.622598023254;110.264424650886
321.644224271601;109.834380894133
321.665850519948;109.316499099576
321.687476768296;108.703073859245
321.709103016643;108.021686683139
321.73072926499;107.323416649411
321.752355513337;106.63830319337
321.773981761685;105.984402470416
321.795608010032;105.377861128931
321.817234258379;104.819361731966
321.838860506727;104.291750671344
321.860486755074;103.789535735836
321.882113003421;103.327736644251
321.903739251768;102.927254537737
321.925365500116;102.573108466165
321.946991748463;102.23091020598
321.96861799681;101.886358221037
321.990244245158;101.550989347336
322.011870493505;101.233975090587
322.033496741852;100.923338866898
322.0551229902;100.611063362116
322.076749238547;100.289725595247
322.098375486894;99.9492376341301
322.120001735241;99.5949133184282
322.141627983589;99.2392480295505
322.163254231936;98.8829885907216
322.184880480283;98.5176962936925
322.206506728631;98.1542777826608
322.228132976978;97.8197713083647
322.249759225325;97.5281987947075
322.271385473672;97.2790313299993
322.29301172202;97.0655450144326
322.314637970367;96.8831757454411
322.336264218714;96.7396013814099
322.357890467062;96.6352751455883
322.379516715409;96.5574038967994
322.401142963756;96.4970120624462
322.422769212104;96.4574485796528
322.444395460451;96.4388984866013
322.466021708798;96.4336000964277
322.487647957145;96.4449392111982
322.509274205493;96.4734098811736
322.53090045384;96.5155601219802
322.552526702187;96.5713102272261
322.574152950535;96.6376005715146
322.595779198882;96.7102387301024
322.617405447229;96.7887744690746
322.639031695576;96.8735303463086
322.660657943924;96.9588842827461
322.682284192271;97.0399181591885
322.703910440618;97.1060999766914
322.725536688966;97.1460866787806
322.747162937313;97.1540028334629
322.76878918566;97.122545149638
322.790415434008;97.0500231325921
322.812041682355;96.9413241891129
322.833667930702;96.7868196285167
322.855294179049;96.5847243347178
322.876920427397;96.3453682315458
322.898546675744;96.0808364908632
322.920172924091;95.8039244518677
322.941799172439;95.5265039246624
322.963425420786;95.257666114491
322.985051669133;94.999439742649
323.00667791748;94.754568841465
323.028304165828;94.5313136394297
323.049930414175;94.3365850954225
323.071556662522;94.1720798581549
323.09318291087;94.0375762405318
323.114809159217;93.9300540766718
323.136435407564;93.8417217161557
323.158061655912;93.7589310547028
323.179687904259;93.6731935635703
323.201314152606;93.582211786827
323.222940400953;93.4812957980259
323.244566649301;93.3651116426774
323.266192897648;93.2384225578593
323.287819145995;93.1123772683322
323.309445394343;92.9949474875093
323.33107164269;92.8919040064744
323.352697891037;92.8062948560865
323.374324139385;92.7432411806107
323.395950387732;92.7060994961174
323.417576636079;92.6912111424494
323.439202884426;92.6974367177905
323.460829132774;92.7180054369596
323.482455381121;92.7472061849812
323.504081629468;92.7776969971918
323.525707877816;92.7889467224193
323.547334126163;92.7699555987399
323.56896037451;92.7119597554844
323.590586622857;92.6147878686303
323.612212871205;92.4734242799296
323.633839119552;92.2861615359641
323.655465367899;92.0576107456995
323.677091616247;91.7997829490345
323.698717864594;91.5170970616698
323.720344112941;91.2062738215354
323.741970361289;90.863861182415
323.763596609636;90.4743696037643
323.785222857983;90.066032720911
323.80684910633;89.6787163362687
323.828475354678;89.3116784428753
323.850101603025;88.9497240079452
323.871727851372;88.5879962057985
323.89335409972;88.2367520134865
323.914980348067;87.901395011313
323.936606596414;87.5861436327066
323.958232844761;87.3057336693026
323.979859093109;87.0636176895451
324.001485341456;86.8497619858799
324.023111589803;86.6630577456193
324.044737838151;86.5106534901171
324.066364086498;86.3906700857198
324.087990334845;86.2940219896206
324.109616583193;86.2106415895728
324.13124283154;86.1305697419554
324.152869079887;86.0385867289209
324.174495328234;85.9228380464202
324.196121576582;85.7844212945648
324.217747824929;85.6216139997547
324.239374073276;85.4348927729461
324.261000321624;85.2278642743433
324.282626569971;85.0049739501532
324.304252818318;84.7732710940298
324.325879066665;84.5427928868134
324.347505315013;84.3225830329185
324.36913156336;84.1195510427693
324.390757811707;83.9468823026376
324.412384060055;83.8186135558813
324.434010308402;83.7535239790143
324.455636556749;83.7560155868597
324.477262805097;83.8156394877888
324.498889053444;83.9193196291693
324.520515301791;84.0591954430875
324.542141550138;84.2337562382846
324.563767798486;84.4301801672766
324.585394046833;84.6375395673888
324.60702029518;84.8370965653981
324.628646543528;85.0054234935799
324.650272791875;85.1350860947532
324.671899040222;85.2261008451387
324.69352528857;85.2832161635664
324.715151536917;85.3138324733154
324.736777785264;85.319528456964
324.758404033611;85.2925529671812
324.780030281959;85.2341629544369
