Name;ESR_BC_1_89s_X_gon_60dg_result

Recipe
Accumulations;5;Number of accumulations
RetryCount;0;Number of retries on error
AbortOnError;True;Abort on error
EnableQFactorMeasurement;False;Enable/Disable q-Factor measurement
Bfrom;313;B from
Bto;363;B to
SweepTime;60;Sweep time
Modulation;0.2;Modulation
ModulationFreq;100;Modulation
BHoldEnabled;False;B hold enabled
BHold;0;B hold
MicrowavePower;2;Microwave power
MarkerEnabled;False;
MarkerStartField;0;
MarkerEndField;0;
Mode;;
KineticGFact;0;
KineticTotalTransientTime;0;
KineticTimeResolution;0;
TempFrom;5;
TempUseSlope;False;
TempTo;5;
TempdT;1;
TempSetupTime;0;
GonFrom;0;
GonTo;180;
GonSteps;20;
XRayEnabled;False;
XRayTime;3;
XRayVoltage;40;
XRayCurrent;0.5;
UVEnabled;False;
UVIntensity;0;
UVTime;0;
UVLeadTime;0;
UVWavelength;0;
PowSweepFrom;1;
PowSweepTo;5;
PowSweepSteps;5;
AmpModSweepFrom;0;
AmpModSweepTo;1;
AmpModSweepSteps;10;
ExtTriggerEnabled;False;
ExtTrigLeadTime;0;
ExtTrigOnTime;5;

Meas
BField [mT];MW_Absorption []
313.007443771362;674.204192722004
313.029063211108;673.943623235115
313.050682650855;673.590143760655
313.072302090601;673.277976572729
313.093921530347;672.977199524817
313.115540970093;672.670829516524
313.137160409839;672.36391117931
313.158779849585;672.07103446693
313.180399289331;671.782218398133
313.202018729077;671.471411580476
313.223638168824;671.132423954696
313.24525760857;670.769341977752
313.266877048316;670.3785299974
313.288496488062;669.951072916756
313.310115927808;669.481628499139
313.331735367554;668.979676531759
313.3533548073;668.455142960896
313.374974247046;667.901440289503
313.396593686793;667.324444196208
313.418213126539;666.74858369735
313.439832566285;666.174829279125
313.461452006031;665.59730035716
313.483071445777;665.032634701223
313.504690885523;664.470783052005
313.526310325269;663.873252128217
313.547929765015;663.205464330123
313.569549204762;662.471823891913
313.591168644508;661.771211547226
313.612788084254;661.112335100776
313.634407524;660.45396733683
313.656026963746;659.767963302556
313.677646403492;659.047281247496
313.699265843238;658.295112128726
313.720885282984;657.511852915145
313.742504722731;656.702674386696
313.764124162477;655.878916128905
313.785743602223;655.038029830502
313.807363041969;654.132247536392
313.828982481715;653.13320762946
313.850601921461;652.055137258996
313.872221361207;650.965626894425
313.893840800953;649.907950892287
313.9154602407;648.866267992485
313.937079680446;647.823537340233
313.958699120192;646.745753935767
313.980318559938;645.626202151043
314.001937999684;644.511306602893
314.02355743943;643.436295157111
314.045176879176;642.400306780342
314.066796318922;641.400722255641
314.088415758669;640.438732469189
314.110035198415;639.547779449792
314.131654638161;638.767488864254
314.153274077907;638.082980170311
314.174893517653;637.467347567875
314.196512957399;636.899104583604
314.218132397145;636.368628416401
314.239751836891;635.891198108157
314.261371276638;635.472946641285
314.282990716384;635.114755468589
314.30461015613;634.803134773382
314.326229595876;634.495034793297
314.347849035622;634.178788197218
314.369468475368;633.85619416416
314.391087915114;633.52815936212
314.41270735486;633.205052551707
314.434326794607;632.897745443698
314.455946234353;632.593037674319
314.477565674099;632.274999031842
314.499185113845;631.94034375923
314.520804553591;631.607569161969
314.542423993337;631.296134410305
314.564043433083;631.011862526843
314.585662872829;630.744628762379
314.607282312576;630.48770961341
314.628901752322;630.244292794624
314.650521192068;630.011686785781
314.672140631814;629.78629236977
314.69376007156;629.561060456153
314.715379511306;629.321226248515
314.736998951052;629.051797008231
314.758618390798;628.759003644639
314.780237830545;628.446462986551
314.801857270291;628.099896839811
314.823476710037;627.705343789492
314.845096149783;627.264004948493
314.866715589529;626.779984325429
314.888335029275;626.252901698672
314.909954469021;625.686959222045
314.931573908767;625.09385683663
314.953193348514;624.487221961516
314.97481278826;623.867020542392
314.996432228006;623.227857484403
315.018051667752;622.584885977007
315.039671107498;621.961562507107
315.061290547244;621.340101676783
315.08290998699;620.704334124402
315.104529426736;620.057451293815
315.126148866483;619.41477064522
315.147768306229;618.785452772898
315.169387745975;618.176468731104
315.191007185721;617.587621585027
315.212626625467;617.003973571964
315.234246065213;616.39543241881
315.255865504959;615.764827289959
315.277484944705;615.165675740392
315.299104384452;614.61116949341
315.320723824198;614.065842621513
315.342343263944;613.533339507999
315.36396270369;613.049545395075
315.385582143436;612.620033542711
315.407201583182;612.21693574559
315.428821022928;611.822521552179
315.450440462674;611.486475223534
315.472059902421;611.217471663497
315.493679342167;610.980248264749
315.515298781913;610.756601422048
315.536918221659;610.542225887423
315.558537661405;610.330302135548
315.580157101151;610.1056650652
315.601776540897;609.861119650315
315.623395980644;609.588125233938
315.64501542039;609.279784632764
315.666634860136;608.92792430557
315.688254299882;608.528903532166
315.709873739628;608.085051153414
315.731493179374;607.601142178521
315.75311261912;607.086317353183
315.774732058866;606.537269296759
315.796351498613;605.946046188237
315.817970938359;605.318919190669
315.839590378105;604.659115734764
315.861209817851;603.966382829609
315.882829257597;603.255827891515
315.904448697343;602.549609794341
315.926068137089;601.849793679856
315.947687576835;601.148562272387
315.969307016582;600.456198391154
315.990926456328;599.786454256992
316.012545896074;599.13265237232
316.03416533582;598.494190943457
316.055784775566;597.883904024473
316.077404215312;597.296289480528
316.099023655058;596.722446881497
316.120643094804;596.171892342143
316.142262534551;595.650786250501
316.163881974297;595.151579362855
316.185501414043;594.67399803959
316.207120853789;594.213512058356
316.228740293535;593.770240545728
316.250359733281;593.358761471311
316.271979173027;592.989755232538
316.293598612773;592.665782791622
316.31521805252;592.390978349394
316.336837492266;592.166810745366
316.358456932012;591.991205464645
316.380076371758;591.870453622255
316.401695811504;591.816971228966
316.42331525125;591.828297279587
316.444934690996;591.889752904736
316.466554130742;591.98396222738
316.488173570489;592.093111964999
316.509793010235;592.206396280127
316.531412449981;592.324325044116
316.553031889727;592.446451004999
316.574651329473;592.575227148277
316.596270769219;592.712794062442
316.617890208965;592.850789490065
316.639509648711;592.988421946682
316.661129088458;593.134540367273
316.682748528204;593.292362941987
316.70436796795;593.460934594224
316.725987407696;593.626921373276
316.747606847442;593.7891719966
316.769226287188;593.946383638572
316.790845726934;594.083716737962
316.81246516668;594.195328396271
316.834084606427;594.282311455519
316.855704046173;594.33911296069
316.877323485919;594.341704341903
316.898942925665;594.268403878235
316.920562365411;594.126789044747
316.942181805157;593.936623122772
316.963801244903;593.69432253899
316.985420684649;593.387890549158
317.007040124396;593.026878105241
317.028659564142;592.624451911841
317.050279003888;592.187453899363
317.071898443634;591.711960061707
317.09351788338;591.185459533614
317.115137323126;590.636087847607
317.136756762872;590.110169973653
317.158376202618;589.594159062312
317.179995642365;589.074397835435
317.201615082111;588.543896413313
317.223234521857;588.012799006898
317.244853961603;587.505017296097
317.266473401349;587.041334486971
317.288092841095;586.63302571769
317.309712280841;586.278290943481
317.331331720587;585.961053556968
317.352951160334;585.666425801909
317.37457060008;585.390415743696
317.396190039826;585.128254261395
317.417809479572;584.864140465318
317.439428919318;584.586344823811
317.461048359064;584.295544910957
317.48266779881;583.99014407363
317.504287238556;583.651535630732
317.525906678303;583.270286867612
317.547526118049;582.85345211831
317.569145557795;582.403479094365
317.590764997541;581.905390723465
317.612384437287;581.35037237113
317.634003877033;580.731058776363
317.655623316779;580.035471905294
317.677242756525;579.255837988378
317.698862196272;578.411750085281
317.720481636018;577.525089294333
317.742101075764;576.587698703301
317.76372051551;575.596709532469
317.785339955256;574.592494349868
317.806959395002;573.635902800188
317.828578834748;572.741658415551
317.850198274494;571.883665944628
317.871817714241;571.065482898152
317.893437153987;570.306369797059
317.915056593733;569.627076648213
317.936676033479;569.029685246225
317.958295473225;568.482052612393
317.979914912971;567.948037167685
318.001534352717;567.440043326346
318.023153792463;566.982748417916
318.04477323221;566.558576280703
318.066392671956;566.138837419478
318.088012111702;565.699236551648
318.109631551448;565.244580263486
318.131250991194;564.78513540372
318.15287043094;564.320599631163
318.174489870686;563.850206844296
318.196109310432;563.379754261808
318.217728750179;562.922418650315
318.239348189925;562.472356780927
318.260967629671;562.017779388576
318.282587069417;561.561095463952
318.304206509163;561.11714848747
318.325825948909;560.68897665251
318.347445388655;560.271085609997
318.369064828401;559.861241136062
318.390684268148;559.445038992605
318.412303707894;559.018952602262
318.43392314764;558.583612264297
318.455542587386;558.13392405353
318.477162027132;557.652077994001
318.498781466878;557.131583860406
318.520400906624;556.595651002037
318.54202034637;556.057115855451
318.563639786117;555.487699793346
318.585259225863;554.867839774296
318.606878665609;554.217654710914
318.628498105355;553.568268248909
318.650117545101;552.917465266846
318.671736984847;552.255620524776
318.693356424593;551.591028096218
318.714975864339;550.948554457896
318.736595304086;550.337027389357
318.758214743832;549.742798762951
318.779834183578;549.145724315036
318.801453623324;548.530415297813
318.82307306307;547.919946151037
318.844692502816;547.351664529483
318.866311942562;546.835908158334
318.887931382308;546.366211237207
318.909550822055;545.933527489109
318.931170261801;545.535236340968
318.952789701547;545.187761541011
318.974409141293;544.892766569532
318.996028581039;544.622817515018
319.017648020785;544.35248779405
319.039267460531;544.089258633629
319.060886900277;543.848001267185
319.082506340024;543.615609886876
319.10412577977;543.375234282198
319.125745219516;543.116741895114
319.147364659262;542.844780626123
319.168984099008;542.571985932181
319.190603538754;542.295883261939
319.2122229785;541.996037595388
319.233842418246;541.660908176907
319.255461857993;541.311998887086
319.277081297739;540.962524815361
319.298700737485;540.600805414143
319.320320177231;540.212718897249
319.341939616977;539.786842693566
319.363559056723;539.321232440964
319.385178496469;538.840572852478
319.406797936215;538.354533817415
319.428417375962;537.852149167768
319.450036815708;537.325215962268
319.471656255454;536.785999765393
319.4932756952;536.25250783407
319.514895134946;535.720737404963
319.536514574692;535.17655597955
319.558134014438;534.61797959552
319.579753454184;534.048484207834
319.601372893931;533.466671162426
319.622992333677;532.878644317763
319.644611773423;532.300852214014
319.666231213169;531.738889617552
319.687850652915;531.188463449523
319.709470092661;530.636129631908
319.731089532407;530.062907054468
319.752708972153;529.481348497912
319.7743284119;528.902382381173
319.795947851646;528.312368909229
319.817567291392;527.700221814485
319.839186731138;527.082759214494
319.860806170884;526.475136788017
319.88242561063;525.878946805164
319.904045050376;525.29415993357
319.925664490122;524.723564010624
319.947283929869;524.175345037919
319.968903369615;523.655349116546
319.990522809361;523.164811815121
320.012142249107;522.713988862579
320.033761688853;522.326663756063
320.055381128599;522.024286892184
320.077000568345;521.790493776136
320.098620008091;521.611459107192
320.120239447838;521.492603181926
320.141858887584;521.440114509901
320.16347832733;521.453701533345
320.185097767076;521.536854875198
320.206717206822;521.697973969298
320.228336646568;521.936846779728
320.249956086314;522.247182590816
320.27157552606;522.61321524037
320.293194965807;523.021622483244
320.314814405553;523.454251895594
320.336433845299;523.894428826996
320.358053285045;524.323359694738
320.379672724791;524.710704152408
320.401292164537;525.004297135821
320.422911604283;525.177044313797
320.444531044029;525.217738751214
320.466150483776;525.094047579065
320.487769923522;524.773280930109
320.509389363268;524.247975934712
320.531008803014;523.541478673389
320.55262824276;522.682926896509
320.574247682506;521.702055090282
320.595867122252;520.621513760345
320.617486561998;519.428730241944
320.639106001745;518.08296227233
320.660725441491;516.654711011211
320.682344881237;515.264907201461
320.703964320983;513.931877754854
320.725583760729;512.646674697188
320.747203200475;511.396747948523
320.768822640221;510.17886213144
320.790442079967;508.998299283825
320.812061519714;507.873702603946
320.83368095946;506.791309411694
320.855300399206;505.693020422886
320.876919838952;504.530900232163
320.898539278698;503.335234258045
320.920158718444;502.160460872768
320.94177815819;500.993122828014
320.963397597936;499.811032860624
320.985017037683;498.604286443361
321.006636477429;497.381579525071
321.028255917175;496.12997640484
321.049875356921;494.853119006777
321.071494796667;493.528189413756
321.093114236413;492.138824900416
321.114733676159;490.696973187773
321.136353115905;489.17701696198
321.157972555652;487.596848049628
321.179591995398;486.039551145736
321.201211435144;484.518897669807
321.22283087489;483.014694753181
321.244450314636;481.524506951188
321.266069754382;480.072493505585
321.287689194128;478.694276351476
321.309308633874;477.402164284688
321.330928073621;476.226999920008
321.352547513367;475.12235053249
321.374166953113;474.089673756097
321.395786392859;473.134954646378
321.417405832605;472.257770133999
321.439025272351;471.473761116961
321.460644712097;470.802882563129
321.482264151843;470.261789583744
321.50388359159;469.856088469177
321.525503031336;469.559386265942
321.547122471082;469.355229957167
321.568741910828;469.231824210279
321.590361350574;469.180509270459
321.61198079032;469.192240998728
321.633600230066;469.256400872975
321.655219669812;469.352168383344
321.676839109559;469.466478243658
321.698458549305;469.59634081338
321.720077989051;469.729089442708
321.741697428797;469.859671967025
321.763316868543;469.985309321706
321.784936308289;470.097916336226
321.806555748035;470.185711884513
321.828175187781;470.249693802092
321.849794627528;470.293304382421
321.871414067274;470.317680840437
321.89303350702;470.318909956322
321.914652946766;470.290890000949
321.936272386512;470.219223482979
321.957891826258;470.090015172507
321.979511266004;469.900316957669
322.00113070575;469.663229859442
322.022750145497;469.376323393351
322.044369585243;469.023407115091
322.065989024989;468.582914973774
322.087608464735;468.061288969203
322.109227904481;467.449771540375
322.130847344227;466.750018324934
322.152466783973;465.964111304398
322.174086223719;465.100955400041
322.195705663466;464.165475318135
322.217325103212;463.162046619562
322.238944542958;462.1291200521
322.260563982704;461.113985597103
322.28218342245;460.129110331476
322.303802862196;459.159717635423
322.325422301942;458.215034187264
322.347041741688;457.329105196617
322.368661181435;456.525345573809
322.390280621181;455.805629531893
322.411900060927;455.166867482092
322.433519500673;454.587198860162
322.455138940419;454.050304357741
322.476758380165;453.553834576682
322.498377819911;453.078628755331
322.519997259657;452.603197898
322.541616699404;452.112605664192
322.56323613915;451.592388410089
322.584855578896;451.031630842328
322.606475018642;450.418008057871
322.628094458388;449.751474977734
322.649713898134;449.038098186608
322.67133333788;448.268277145099
322.692952777626;447.42965622431
322.714572217373;446.532469592222
322.736191657119;445.603133755843
322.757811096865;444.664247925802
322.779430536611;443.707122124415
322.801049976357;442.709521586399
322.822669416103;441.695941307453
322.844288855849;440.688134917241
322.865908295596;439.69004652536
322.887527735342;438.691878325196
322.909147175088;437.662256815076
322.930766614834;436.615810054885
322.95238605458;435.599230125815
322.974005494326;434.616081838277
322.995624934072;433.635599755561
323.017244373818;432.61875989053
323.038863813565;431.583174329484
323.060483253311;430.575879345112
323.082102693057;429.64012575431
323.103722132803;428.742690087223
323.125341572549;427.868714158273
323.146961012295;427.028699719259
323.168580452041;426.22719185506
323.190199891787;425.465588570586
323.211819331534;424.744086063331
323.23343877128;424.059149000499
323.255058211026;423.403561070894
323.276677650772;422.768198174493
323.298297090518;422.155969720242
323.319916530264;421.584414365182
323.34153597001;421.072256433433
323.363155409756;420.614630016109
323.384774849503;420.191526001482
323.406394289249;419.787868792104
323.428013728995;419.408207229491
323.449633168741;419.067118143576
323.471252608487;418.770548483769
323.492872048233;418.504002781233
323.514491487979;418.254637456058
323.536110927725;418.027472428903
323.557730367472;417.818865943661
323.579349807218;417.627727919301
323.600969246964;417.464007848372
323.62258868671;417.327473346664
323.644208126456;417.204249107643
323.665827566202;417.076972605434
323.687447005948;416.931609783552
323.709066445694;416.758287268032
323.730685885441;416.553028181804
323.752305325187;416.314597950389
323.773924764933;416.038717492334
323.795544204679;415.731803607676
323.817163644425;415.396618701006
323.838783084171;415.034120199099
323.860402523917;414.652911042291
323.882021963663;414.262404881073
323.90364140341;413.866931977504
323.925260843156;413.464764279249
323.946880282902;413.049085918127
323.968499722648;412.618478817521
323.990119162394;412.163642238271
324.01173860214;411.669270536479
324.033358041886;411.122092049078
324.054977481632;410.523130449395
324.076596921379;409.882340939172
324.098216361125;409.211384460065
324.119835800871;408.518930792975
324.141455240617;407.772217860893
324.163074680363;406.926588245508
324.184694120109;405.986756297628
324.206313559855;404.982535368496
324.227932999601;403.944550742235
324.249552439348;402.903150845062
324.271171879094;401.853032486072
324.29279131884;400.770046946469
324.314410758586;399.630167989746
324.336030198332;398.434072632165
324.357649638078;397.203166841022
324.379269077824;396.000237798459
324.40088851757;394.860506985284
324.422507957317;393.768972470337
324.444127397063;392.693042292788
324.465746836809;391.613685744755
324.487366276555;390.524122920214
324.508985716301;389.418312642025
324.530605156047;388.286980763763
324.552224595793;387.10648221973
324.573844035539;385.864560009311
324.595463475286;384.576917086853
324.617082915032;383.251114971212
324.638702354778;381.884734181512
324.660321794524;380.452556158782
324.68194123427;378.883027646686
324.703560674016;377.15795562591
324.725180113762;375.327254372833
324.746799553508;373.444698482054
324.768418993255;371.554486957268
