Name;ESR_BC_1_14400s_Y_gon_80dg_result

Recipe
Accumulations;5;Number of accumulations
RetryCount;0;Number of retries on error
AbortOnError;True;Abort on error
EnableQFactorMeasurement;False;Enable/Disable q-Factor measurement
Bfrom;313;B from
Bto;363;B to
SweepTime;60;Sweep time
Modulation;0.2;Modulation
ModulationFreq;100;Modulation
BHoldEnabled;False;B hold enabled
BHold;0;B hold
MicrowavePower;2;Microwave power
MarkerEnabled;False;
MarkerStartField;0;
MarkerEndField;0;
Mode;;
KineticGFact;0;
KineticTotalTransientTime;0;
KineticTimeResolution;0;
TempFrom;5;
TempUseSlope;False;
TempTo;5;
TempdT;1;
TempSetupTime;0;
GonFrom;0;
GonTo;180;
GonSteps;20;
XRayEnabled;False;
XRayTime;3;
XRayVoltage;40;
XRayCurrent;0.5;
UVEnabled;False;
UVIntensity;0;
UVTime;0;
UVLeadTime;0;
UVWavelength;0;
PowSweepFrom;1;
PowSweepTo;5;
PowSweepSteps;5;
AmpModSweepFrom;0;
AmpModSweepTo;1;
AmpModSweepSteps;10;
ExtTriggerEnabled;False;
ExtTrigLeadTime;0;
ExtTrigOnTime;5;

Meas
BField [mT];MW_Absorption []
313.029913406372;213.505955327363
313.051538083593;212.653372556317
313.073162760813;211.695819765561
313.094787438034;210.658492726342
313.116412115254;209.578601474685
313.138036792474;208.521404421305
313.159661469695;207.503194532587
313.181286146915;206.499571199319
313.202910824136;205.527231904231
313.224535501356;204.6621297228
313.246160178577;203.905307369628
313.267784855797;203.21575761374
313.289409533018;202.600231864706
313.311034210238;202.08181788303
313.332658887459;201.678825359258
313.354283564679;201.370434612359
313.3759082419;201.134775515145
313.39753291912;200.963027452738
313.41915759634;200.851791197812
313.440782273561;200.787505765336
313.462406950781;200.748631359817
313.484031628002;200.719199738405
313.505656305222;200.688695954392
313.527280982443;200.636135062609
313.548905659663;200.549860391431
313.570530336884;200.446888112847
313.592155014104;200.331251754994
313.613779691325;200.191748328633
313.635404368545;200.018856276743
313.657029045766;199.809210687001
313.678653722986;199.568059643347
313.700278400206;199.298049779931
313.721903077427;198.997993410552
313.743527754647;198.678875613392
313.765152431868;198.348907093994
313.786777109088;198.01024127031
313.808401786309;197.67336415296
313.830026463529;197.346668678513
313.85165114075;197.028526506436
313.87327581797;196.7255168307
313.894900495191;196.453711997009
313.916525172411;196.201186418029
313.938149849632;195.958012178493
313.959774526852;195.7283007863
313.981399204072;195.515015548421
314.003023881293;195.310670072986
314.024648558513;195.103194456167
314.046273235734;194.885698915358
314.067897912954;194.66888431089
314.089522590175;194.458303798601
314.111147267395;194.2513386871
314.132771944616;194.042970100886
314.154396621836;193.845304804393
314.176021299057;193.662525525878
314.197645976277;193.482068090529
314.219270653498;193.299917514738
314.240895330718;193.117746788363
314.262520007939;192.933397557768
314.284144685159;192.740538833869
314.305769362379;192.534885496254
314.3273940396;192.311944816312
314.34901871682;192.064933303671
314.370643394041;191.791141198426
314.392268071261;191.493613697352
314.413892748482;191.177322171809
314.435517425702;190.85877219593
314.457142102923;190.548620112193
314.478766780143;190.243800861393
314.500391457364;189.937520269256
314.522016134584;189.619488292669
314.543640811805;189.290251819771
314.565265489025;188.969711841693
314.586890166246;188.680595601967
314.608514843466;188.428603099293
314.630139520686;188.208708025937
314.651764197907;188.009511790163
314.673388875127;187.818001244512
314.695013552348;187.638114279366
314.716638229568;187.474451555299
314.738262906789;187.336049286753
314.759887584009;187.22679249227
314.78151226123;187.139879356167
314.80313693845;187.063663237083
314.824761615671;186.999610481927
314.846386292891;186.956303402371
314.868010970112;186.939749560453
314.889635647332;186.944806930046
314.911260324552;186.96387243807
314.932885001773;186.993881861883
314.954509678993;187.033156107173
314.976134356214;187.084010218836
314.997759033434;187.139688482095
315.019383710655;187.184587621554
315.041008387875;187.210409456298
315.062633065096;187.211636329149
315.084257742316;187.183254705667
315.105882419537;187.123905754312
315.127507096757;187.029987095149
315.149131773978;186.892920889814
315.170756451198;186.710400438185
315.192381128419;186.48522529589
315.214005805639;186.224072285819
315.235630482859;185.938081413523
315.25725516008;185.634706585158
315.2788798373;185.31130948828
315.300504514521;184.964608085224
315.322129191741;184.606767410551
315.343753868962;184.256295794309
315.365378546182;183.917199148303
315.387003223403;183.588983089612
315.408627900623;183.276020827235
315.430252577844;182.97847421666
315.451877255064;182.69242325885
315.473501932285;182.42460752566
315.495126609505;182.175594950173
315.516751286725;181.943128855541
315.538375963946;181.723416847968
315.560000641166;181.515629139671
315.581625318387;181.329512062466
315.603249995607;181.173773624435
315.624874672828;181.04131994871
315.646499350048;180.923472406465
315.668124027269;180.817420473104
315.689748704489;180.721283016332
315.71137338171;180.638152270336
315.73299805893;180.57940487605
315.754622736151;180.545116418014
315.776247413371;180.514377503806
315.797872090592;180.472122346139
315.819496767812;180.413828760328
315.841121445032;180.345216069837
315.862746122253;180.269701090355
315.884370799473;180.185327626096
315.905995476694;180.088215398282
315.927620153914;179.980970572693
315.949244831135;179.867618986848
315.970869508355;179.745464171852
315.992494185576;179.615671626294
316.014118862796;179.472372714688
316.035743540017;179.305678959065
316.057368217237;179.110758917764
316.078992894458;178.908195156452
316.100617571678;178.696341721517
316.122242248898;178.463833097676
316.143866926119;178.201413666992
316.165491603339;177.919114161134
316.18711628056;177.621844193729
316.20874095778;177.309232692778
316.230365635001;176.987536812063
316.251990312221;176.665435700315
316.273614989442;176.348264117002
316.295239666662;176.035282512531
316.316864343883;175.727061567411
316.338489021103;175.429149194291
316.360113698324;175.145850692451
316.381738375544;174.885089019801
316.403363052765;174.656779394163
316.424987729985;174.456320596292
316.446612407205;174.269899844507
316.468237084426;174.08526213904
316.489861761646;173.900516335019
316.511486438867;173.715677770572
316.533111116087;173.517274197143
316.554735793308;173.291785797791
316.576360470528;173.042214290389
316.597985147749;172.761905480353
316.619609824969;172.440594085217
316.64123450219;172.0723539063
316.66285917941;171.650126376636
316.684483856631;171.163744071481
316.706108533851;170.625043013997
316.727733211072;170.042796096854
316.749357888292;169.419805748574
316.770982565512;168.761968205948
316.792607242733;168.079445817144
316.814231919953;167.386393160387
316.835856597174;166.705317688954
316.857481274394;166.048197632728
316.879105951615;165.41088568962
316.900730628835;164.795970503002
316.922355306056;164.217815834224
316.943979983276;163.67968765385
316.965604660497;163.178721559524
316.987229337717;162.722039945751
317.008854014938;162.328217070409
317.030478692158;161.988354417846
317.052103369378;161.690235119756
317.073728046599;161.437883321528
317.095352723819;161.243286828755
317.11697740104;161.103732922467
317.13860207826;161.013977297446
317.160226755481;160.970584444591
317.181851432701;160.969297378826
317.203476109922;160.990830002166
317.225100787142;161.016403960103
317.246725464363;161.044218240673
317.268350141583;161.074907074913
317.289974818804;161.104526972642
317.311599496024;161.115534254174
317.333224173245;161.099657589697
317.354848850465;161.051686872995
317.376473527685;160.960148369397
317.398098204906;160.816424068809
317.419722882126;160.61255831678
317.441347559347;160.344853133452
317.462972236567;159.995798726673
317.484596913788;159.559222828545
317.506221591008;159.043208044413
317.527846268229;158.458675237033
317.549470945449;157.829633607572
317.57109562267;157.154532722971
317.59272029989;156.417246266983
317.614344977111;155.624679634884
317.635969654331;154.79999577026
317.657594331551;153.976485355209
317.679219008772;153.169467365651
317.700843685992;152.396027303943
317.722468363213;151.65297566015
317.744093040433;150.935257813159
317.765717717654;150.23933584718
317.787342394874;149.56744268599
317.808967072095;148.931946938768
317.830591749315;148.334757809449
317.852216426536;147.775236536371
317.873841103756;147.240163458461
317.895465780977;146.720249534728
317.917090458197;146.197154886895
317.938715135417;145.640514434534
317.960339812638;145.080598979431
317.981964489858;144.544681769041
318.003589167079;144.044580645123
318.025213844299;143.586047861329
318.04683852152;143.172163089683
318.06846319874;142.799050527018
318.090087875961;142.45583403347
318.111712553181;142.135376894653
318.133337230402;141.848938469411
318.154961907622;141.606291152072
318.176586584843;141.413048448329
318.198211262063;141.273211603263
318.219835939283;141.181373368701
318.241460616504;141.123793666164
318.263085293724;141.088818840287
318.284709970945;141.069777538866
318.306334648165;141.062621535445
318.327959325386;141.06169084792
318.349584002606;141.055736931161
318.371208679827;141.038482740426
318.392833357047;141.014504713632
318.414458034268;140.982657848472
318.436082711488;140.932882482148
318.457707388709;140.854218759431
318.479332065929;140.739632751566
318.50095674315;140.5872469315
318.52258142037;140.392338585086
318.54420609759;140.148558756063
318.565830774811;139.849163120575
318.587455452031;139.494683511903
318.609080129252;139.104082276996
318.630704806472;138.692065842723
318.652329483693;138.246371726421
318.673954160913;137.751374603034
318.695578838134;137.224806861976
318.717203515354;136.696794136062
318.738828192575;136.170868045558
318.760452869795;135.651364138004
318.782077547016;135.141651067278
318.803702224236;134.641483987931
318.825326901456;134.147593347352
318.846951578677;133.659267369416
318.868576255897;133.181019673608
318.890200933118;132.717546509642
318.911825610338;132.274238269963
318.933450287559;131.854659420372
318.955074964779;131.458296499123
318.976699642;131.096281174681
318.99832431922;130.782703248744
319.019948996441;130.514695773289
319.041573673661;130.278271142651
319.063198350882;130.068851929897
319.084823028102;129.907932434213
319.106447705323;129.806208203217
319.128072382543;129.742770468692
319.149697059763;129.700308309261
319.171321736984;129.674004998249
319.192946414204;129.661709031735
319.214571091425;129.656819638107
319.236195768645;129.655985101946
319.257820445866;129.659983743812
319.279445123086;129.664032311404
319.301069800307;129.66406933593
319.322694477527;129.654639718783
319.344319154748;129.631241164414
319.365943831968;129.590543483678
319.387568509189;129.536268428535
319.409193186409;129.469326413025
319.43081786363;129.381948874146
319.45244254085;129.26514671311
319.47406721807;129.126554600113
319.495691895291;128.965348916483
319.517316572511;128.767150875796
319.538941249732;128.518075916333
319.560565926952;128.226969287381
319.582190604173;127.902530225688
319.603815281393;127.548659563228
319.625439958614;127.153959383171
319.647064635834;126.70574837619
319.668689313055;126.213784462028
319.690313990275;125.729765755618
319.711938667496;125.278818477904
319.733563344716;124.846021964627
319.755188021936;124.417080587277
319.776812699157;124.008039070399
319.798437376377;123.641956465015
319.820062053598;123.326972341181
319.841686730818;123.07835514007
319.863311408039;122.914054164039
319.884936085259;122.830905142938
319.90656076248;122.823005985512
319.9281854397;122.891758619928
319.949810116921;123.033523510365
319.971434794141;123.236267732728
319.993059471362;123.500141244769
320.014684148582;123.813352373849
320.036308825803;124.141190101392
320.057933503023;124.447794879691
320.079558180243;124.72381700036
320.101182857464;124.967327405314
320.122807534684;125.170124532137
320.144432211905;125.32236740267
320.166056889125;125.411717657762
320.187681566346;125.430046991204
320.209306243566;125.379680070236
320.230930920787;125.265343369902
320.252555598007;125.088948297363
320.274180275228;124.846987544236
320.295804952448;124.538554885063
320.317429629669;124.193222722136
320.339054306889;123.837510031352
320.360678984109;123.487291301822
320.38230366133;123.147403259977
320.40392833855;122.818923448397
320.425553015771;122.505369269413
320.447177692991;122.210462925934
320.468802370212;121.95324111002
320.490427047432;121.741562700992
320.512051724653;121.566514238328
320.533676401873;121.429662883343
320.555301079094;121.333792400369
320.576925756314;121.273791083828
320.598550433535;121.247203481952
320.620175110755;121.239994279987
320.641799787976;121.240326976394
320.663424465196;121.239758780603
320.685049142416;121.239160527394
320.706673819637;121.235334519081
320.728298496857;121.228823906443
320.749923174078;121.21912655924
320.771547851298;121.213086596004
320.793172528519;121.218670471708
320.814797205739;121.234314021294
320.83642188296;121.256944871002
320.85804656018;121.291076885177
320.879671237401;121.341040112633
320.901295914621;121.40811969928
320.922920591842;121.484692269235
320.944545269062;121.557347496268
320.966169946282;121.616069376716
320.987794623503;121.661949081546
321.009419300723;121.697811980671
321.031043977944;121.722509680997
321.052668655164;121.732028410846
321.074293332385;121.723557659431
321.095918009605;121.698813979773
321.117542686826;121.659824979439
321.139167364046;121.607274501701
321.160792041267;121.547260840849
321.182416718487;121.48921900003
321.204041395708;121.434959484585
321.225666072928;121.386839576402
321.247290750149;121.353183362697
321.268915427369;121.329471954426
321.290540104589;121.300566408265
321.31216478181;121.262597620893
321.33378945903;121.217044415215
321.355414136251;121.154183110856
321.377038813471;121.051025559997
321.398663490692;120.896948402423
321.420288167912;120.690322227542
321.441912845133;120.426451558028
321.463537522353;120.097344468337
321.485162199574;119.709160575689
321.506786876794;119.281223478838
321.528411554015;118.821678493701
321.550036231235;118.32352422145
321.571660908455;117.793178319211
321.593285585676;117.260953854767
321.614910262896;116.748542790574
321.636534940117;116.255939741567
321.658159617337;115.775637905489
321.679784294558;115.307695774417
321.701408971778;114.849200045936
321.723033648999;114.401252380134
321.744658326219;113.988892855801
321.76628300344;113.620469132829
321.78790768066;113.270427674315
321.809532357881;112.910079547291
321.831157035101;112.529722993935
321.852781712322;112.133690590695
321.874406389542;111.710431433346
321.896031066762;111.229051305685
321.917655743983;110.663792125256
321.939280421203;110.032928712261
321.960905098424;109.370117612636
321.982529775644;108.671720741371
322.004154452865;107.910735816039
322.025779130085;107.075167038305
322.047403807306;106.204962742877
322.069028484526;105.34197221285
322.090653161747;104.49470116073
322.112277838967;103.662589280995
322.133902516188;102.847453539539
322.155527193408;102.058417569935
322.177151870628;101.33626251241
322.198776547849;100.692048157925
322.220401225069;100.115421800672
322.24202590229;99.6030317416719
322.26365057951;99.15897130777
322.285275256731;98.7736101803335
322.306899933951;98.4300934771214
322.328524611172;98.1318127564468
322.350149288392;97.878173954713
322.371773965613;97.67026236541
322.393398642833;97.5001831620898
322.415023320054;97.3586191715959
322.436647997274;97.2449304657304
322.458272674494;97.1536248732706
322.479897351715;97.0770657546988
322.501522028935;97.0105646251558
322.523146706156;96.9538761147774
322.544771383376;96.9102937330555
322.566396060597;96.8760084730009
322.588020737817;96.8498092620948
322.609645415038;96.8457209476054
322.631270092258;96.8769857408115
322.652894769479;96.9402761643711
322.674519446699;97.0423906780371
322.69614412392;97.1886150779042
322.71776880114;97.3765619449263
322.739393478361;97.5891509147857
322.761018155581;97.8043973928509
322.782642832801;98.0235846590637
322.804267510022;98.2530780978476
322.825892187242;98.4908428523115
322.847516864463;98.7318734884686
322.869141541683;98.9637350185912
322.890766218904;99.1721404302065
322.912390896124;99.3528773696416
322.934015573345;99.5027894327266
322.955640250565;99.6062038935609
322.977264927786;99.659178071067
322.998889605006;99.6631537528718
323.020514282227;99.6058911753333
323.042138959447;99.4793692461084
323.063763636667;99.2907651212905
323.085388313888;99.0431292380895
323.107012991108;98.7351487269635
323.128637668329;98.3703921827338
323.150262345549;97.9686038287358
323.17188702277;97.5454541882957
323.19351169999;97.104005664841
323.215136377211;96.6513986762439
323.236761054431;96.1988227369043
323.258385731652;95.7833641924831
323.280010408872;95.4334528231826
323.301635086093;95.1424198721261
323.323259763313;94.9167637446078
323.344884440534;94.7587343378518
323.366509117754;94.6572580694189
323.388133794974;94.6004891044571
323.409758472195;94.585540124858
323.431383149415;94.6073593480446
323.453007826636;94.6474345832379
323.474632503856;94.6909312591093
323.496257181077;94.7289008334193
323.517881858297;94.7494479831758
323.539506535518;94.7455612224596
323.561131212738;94.716402957701
323.582755889959;94.6636055184719
323.604380567179;94.5853161576719
323.6260052444;94.4758936152344
323.64762992162;94.3464719764874
323.669254598841;94.2009811381038
323.690879276061;94.0500862791098
323.712503953281;93.89793859832
323.734128630502;93.7398096756796
323.755753307722;93.5799348090188
323.777377984943;93.4145378877526
323.799002662163;93.2364925665541
323.820627339384;93.0539824169371
323.842252016604;92.8778539780788
323.863876693825;92.7060143150698
323.885501371045;92.5315370458669
323.907126048266;92.3476470822852
323.928750725486;92.149979177625
323.950375402707;91.935252497882
323.972000079927;91.702802839845
323.993624757147;91.4426628107121
324.015249434368;91.1563781030186
324.036874111588;90.8629206934623
324.058498788809;90.5766894047453
324.080123466029;90.2886997265715
324.10174814325;89.9921467075065
324.12337282047;89.6972730270519
324.144997497691;89.4098827617059
324.166622174911;89.1211224856494
324.188246852132;88.8356570284688
324.209871529352;88.5710967306938
324.231496206573;88.342729544579
324.253120883793;88.1397470488025
324.274745561014;87.954443783174
324.296370238234;87.7883624755306
324.317994915454;87.6359345852842
324.339619592675;87.4844686773193
324.361244269895;87.3218044916092
324.382868947116;87.14857876267
324.404493624336;86.9546147529856
324.426118301557;86.7223496502601
324.447742978777;86.4536256020249
324.469367655998;86.1671977621999
324.490992333218;85.8747738738263
324.512617010439;85.5843173872431
324.534241687659;85.3036314180277
324.55586636488;85.0399150484105
324.5774910421;84.8081083933935
324.59911571932;84.6232828873299
324.620740396541;84.4967391307908
324.642365073761;84.427997763693
324.663989750982;84.4097799205028
324.685614428202;84.4361596848959
324.707239105423;84.4959648781712
324.728863782643;84.5738645070132
324.750488459864;84.656997640054
324.772113137084;84.7350644915521
324.793737814305;84.795727454024
