Name;ESR_BC_1_89s_Z_gon_60dg_result

Recipe
Accumulations;5;Number of accumulations
RetryCount;0;Number of retries on error
AbortOnError;True;Abort on error
EnableQFactorMeasurement;False;Enable/Disable q-Factor measurement
Bfrom;313;B from
Bto;363;B to
SweepTime;60;Sweep time
Modulation;0.2;Modulation
ModulationFreq;100;Modulation
BHoldEnabled;False;B hold enabled
BHold;0;B hold
MicrowavePower;2;Microwave power
MarkerEnabled;False;
MarkerStartField;0;
MarkerEndField;0;
Mode;;
KineticGFact;0;
KineticTotalTransientTime;0;
KineticTimeResolution;0;
TempFrom;5;
TempUseSlope;False;
TempTo;5;
TempdT;1;
TempSetupTime;0;
GonFrom;0;
GonTo;180;
GonSteps;20;
XRayEnabled;False;
XRayTime;3;
XRayVoltage;40;
XRayCurrent;0.5;
UVEnabled;False;
UVIntensity;0;
UVTime;0;
UVLeadTime;0;
UVWavelength;0;
PowSweepFrom;1;
PowSweepTo;5;
PowSweepSteps;5;
AmpModSweepFrom;0;
AmpModSweepTo;1;
AmpModSweepSteps;10;
ExtTriggerEnabled;False;
ExtTrigLeadTime;0;
ExtTrigOnTime;5;

Meas
BField [mT];MW_Absorption []
313.017961349487;83.8496681374911
313.039587075105;83.3700434237167
313.061212800724;82.6532211614421
313.082838526342;81.954291975395
313.10446425196;81.298344144352
313.126089977578;80.7073151031912
313.147715703196;80.176531417557
313.169341428815;79.7117160401977
313.190967154433;79.3445237795914
313.212592880051;79.0852692331531
313.234218605669;78.9240002258465
313.255844331287;78.8546714358454
313.277470056905;78.8707463085827
313.299095782524;78.9638027195733
313.320721508142;79.121097432678
313.34234723376;79.3204445399618
313.363972959378;79.5356492191652
313.385598684996;79.7587416545501
313.407224410614;79.9949618152832
313.428850136233;80.243841833397
313.450475861851;80.4850229934326
313.472101587469;80.7098693255822
313.493727313087;80.9346848211376
313.515353038705;81.158983838535
313.536978764323;81.3776886206659
313.558604489942;81.595553278275
313.58023021556;81.8201108344893
313.601855941178;82.0485302438904
313.623481666796;82.2507079566578
313.645107392414;82.4348531798981
313.666733118033;82.6139152425459
313.688358843651;82.7826302843658
313.709984569269;82.9153122939446
313.731610294887;83.000069039328
313.753236020505;83.0417540994334
313.774861746123;83.0434194635937
313.796487471742;82.9993139377035
313.81811319736;82.9116263337078
313.839738922978;82.7850105084338
313.861364648596;82.6251565966163
313.882990374214;82.4369955786118
313.904616099832;82.2213629316896
313.926241825451;81.9925306228493
313.947867551069;81.7745774324083
313.969493276687;81.5733263250545
313.991119002305;81.3857392443179
314.012744727923;81.2173757784865
314.034370453541;81.0834081461729
314.05599617916;80.9972547993064
314.077621904778;80.9528579313363
314.099247630396;80.9503720451138
314.120873356014;80.9951455675162
314.142499081632;81.0799480132413
314.16412480725;81.1936664853249
314.185750532869;81.3363857330448
314.207376258487;81.5177411653596
314.229001984105;81.719160792052
314.250627709723;81.9131406474205
314.272253435341;82.0888575613305
314.29387916096;82.2435494665632
314.315504886578;82.3817533239089
314.337130612196;82.5060631471109
314.358756337814;82.6142736968289
314.380382063432;82.7042381191614
314.40200778905;82.7795937241938
314.423633514669;82.8398799966646
314.445259240287;82.8744043186614
314.466884965905;82.8790087789891
314.488510691523;82.8691400643881
314.510136417141;82.8535410228268
314.531762142759;82.8299286176744
314.553387868378;82.8070662836688
314.575013593996;82.7916394752511
314.596639319614;82.7794913984113
314.618265045232;82.761450512617
314.63989077085;82.7469885383291
314.661516496468;82.7490492741822
314.683142222087;82.7701236214867
314.704767947705;82.7968886279616
314.726393673323;82.8102022252539
314.748019398941;82.8103476787374
314.769645124559;82.8028465914556
314.791270850177;82.7860950146121
314.812896575796;82.7589338738339
314.834522301414;82.722649635586
314.856148027032;82.6730367869691
314.87777375265;82.6066176069309
314.899399478268;82.5247067504829
314.921025203887;82.428904298119
314.942650929505;82.3092045562148
314.964276655123;82.1542618905679
314.985902380741;81.9632472901111
315.007528106359;81.7430208908118
315.029153831977;81.499540040159
315.050779557596;81.2315407030471
315.072405283214;80.9398616668629
315.094031008832;80.629294703023
315.11565673445;80.3077562450065
315.137282460068;79.9840194221322
315.158908185686;79.6663861010658
315.180533911305;79.3672111961561
315.202159636923;79.1025094971584
315.223785362541;78.8837946773126
315.245411088159;78.708755871896
315.267036813777;78.5711684319944
315.288662539395;78.4674377003691
315.310288265014;78.3834441918718
315.331913990632;78.3037198578045
315.35353971625;78.2195347031557
315.375165441868;78.1252374689058
315.396791167486;78.0135571541716
315.418416893105;77.8746608411
315.440042618723;77.7048964785925
315.461668344341;77.5160318836861
315.483294069959;77.318139152386
315.504919795577;77.1136812376374
315.526545521195;76.9042457705138
315.548171246814;76.6903669358081
315.569796972432;76.4762142510704
315.59142269805;76.2724535892529
315.613048423668;76.0818318698129
315.634674149286;75.8998618880993
315.656299874904;75.7322650897603
315.677925600523;75.5935257514573
315.699551326141;75.4801392325639
315.721177051759;75.3820927753499
315.742802777377;75.2995741150589
315.764428502995;75.2495052937395
315.786054228613;75.2353499510987
315.807679954232;75.2419640056225
315.82930567985;75.2604654717715
315.850931405468;75.2883384835778
315.872557131086;75.3255575655548
315.894182856704;75.3482403571355
315.915808582322;75.3394341811533
315.937434307941;75.3019724749109
315.959060033559;75.256393775845
315.980685759177;75.2049021155619
316.002311484795;75.1280380496972
316.023937210413;75.0215396242258
316.045562936032;74.8909709357686
316.06718866165;74.7259022177955
316.088814387268;74.5166173935582
316.110440112886;74.2778250381291
316.132065838504;74.0315827513167
316.153691564122;73.7884817345287
316.175317289741;73.5589567808262
316.196943015359;73.3453013191855
316.218568740977;73.1450086385941
316.240194466595;72.9569360690112
316.261820192213;72.7829478307545
316.283445917831;72.6330494639046
316.30507164345;72.4981477357811
316.326697369068;72.3712972520802
316.348323094686;72.2648918999127
316.369948820304;72.1768126397631
316.391574545922;72.1010696553385
316.41320027154;72.0302303087791
316.434825997159;71.9639136666459
316.456451722777;71.9092110874253
316.478077448395;71.8931613795209
316.499703174013;71.9237474316777
316.521328899631;71.9973789739766
316.542954625249;72.1190758172159
316.564580350868;72.2959456424717
316.586206076486;72.5239654113984
316.607831802104;72.7941457140782
316.629457527722;73.0990164328576
316.65108325334;73.430020543024
316.672708978959;73.7619790092548
316.694334704577;74.082000220986
316.715960430195;74.3859264113167
316.737586155813;74.6661819750209
316.759211881431;74.9224614601159
316.780837607049;75.1538965261231
316.802463332668;75.345244218401
316.824089058286;75.4986437831135
316.845714783904;75.6122651294295
316.867340509522;75.6947422473442
316.88896623514;75.7523887868378
316.910591960758;75.7844995454321
316.932217686377;75.7918206743905
316.953843411995;75.7668596369585
316.975469137613;75.7067032646552
316.997094863231;75.6095083942018
317.018720588849;75.4723557747245
317.040346314467;75.3110846540133
317.061972040086;75.1314180701517
317.083597765704;74.9349430958932
317.105223491322;74.7276795720103
317.12684921694;74.5107915527763
317.148474942558;74.2882971944804
317.170100668176;74.0690238704923
317.191726393795;73.8518968826028
317.213352119413;73.644362111312
317.234977845031;73.4506814667458
317.256603570649;73.2624693042384
317.278229296267;73.0692473781466
317.299855021885;72.8636466747701
317.321480747504;72.6381392156094
317.343106473122;72.3876855939705
317.36473219874;72.1137869925522
317.386357924358;71.8234072653642
317.407983649976;71.5152806524134
317.429609375595;71.1791912651937
317.451235101213;70.8166155696679
317.472860826831;70.4467868972901
317.494486552449;70.0729679035325
317.516112278067;69.6896706882458
317.537738003685;69.2941153153642
317.559363729304;68.8943036512383
317.580989454922;68.524445908077
317.60261518054;68.2076789742882
317.624240906158;67.9426224100927
317.645866631776;67.7245500011504
317.667492357394;67.5502233536132
317.689118083013;67.4180522731755
317.710743808631;67.3387974739815
317.732369534249;67.3072008081794
317.753995259867;67.3103671394611
317.775620985485;67.3447534162841
317.797246711103;67.3992565334958
317.818872436722;67.4669243072919
317.84049816234;67.5494948835552
317.862123887958;67.6480696173908
317.883749613576;67.7572499587878
317.905375339194;67.8656006597856
317.927001064812;67.9764064876499
317.948626790431;68.0917101663722
317.970252516049;68.2023983333218
317.991878241667;68.3071358283305
318.013503967285;68.4153452416101
318.035129692903;68.5308018204125
318.056755418522;68.6419375507283
318.07838114414;68.7323675308911
318.100006869758;68.8011399336452
318.121632595376;68.8534152329755
318.143258320994;68.890761550021
318.164884046612;68.9118782409062
318.186509772231;68.9212516016017
318.208135497849;68.9289875318848
318.229761223467;68.9416696314299
318.251386949085;68.9676497715405
318.273012674703;69.0221858029779
318.294638400321;69.1088992238201
318.31626412594;69.2219692802368
318.337889851558;69.3644949361216
318.359515577176;69.5517671485772
318.381141302794;69.7851398131347
318.402767028412;70.0391778216544
318.42439275403;70.2901947603428
318.446018479649;70.5219397278484
318.467644205267;70.7219363448291
318.489269930885;70.8783493733908
318.510895656503;70.9854514919662
318.532521382121;71.0262079683143
318.554147107739;70.9913797738113
318.575772833358;70.8755820383414
318.597398558976;70.6756914371098
318.619024284594;70.4166685876761
318.640650010212;70.1142529328963
318.66227573583;69.7521041135907
318.683901461449;69.3193231245058
318.705527187067;68.8470450934323
318.727152912685;68.3685897696365
318.748778638303;67.8901371744361
318.770404363921;67.4166796989276
318.792030089539;66.9814980130073
318.813655815158;66.6126053733653
318.835281540776;66.3094149026269
318.856907266394;66.0710436101735
318.878532992012;65.9010454196776
318.90015871763;65.7928649827019
318.921784443248;65.7481692052685
318.943410168867;65.7531278427743
318.965035894485;65.791160219234
318.986661620103;65.8433892803775
319.008287345721;65.9112212093485
319.029913071339;65.9879240549355
319.051538796957;66.0534350363568
319.073164522576;66.1004825008911
319.094790248194;66.1205635045676
319.116415973812;66.1092864023583
319.13804169943;66.06190582417
319.159667425048;65.9803616752252
319.181293150666;65.8734392697352
319.202918876285;65.7358183807948
319.224544601903;65.5615227461118
319.246170327521;65.371541983295
319.267796053139;65.1898629984366
319.289421778757;65.0275881435984
319.311047504376;64.9093979252183
319.332673229994;64.8433578458402
319.354298955612;64.8155341950058
319.37592468123;64.8252209811622
319.397550406848;64.8891325346687
319.419176132466;65.0188010372281
319.440801858085;65.205072738177
319.462427583703;65.4182089176423
319.484053309321;65.642987502709
319.505679034939;65.8641183763185
319.527304760557;66.0512625109981
319.548930486175;66.1978866719635
319.570556211794;66.313026976231
319.592181937412;66.402262590446
319.61380766303;66.4468022830922
319.635433388648;66.4230779521326
319.657059114266;66.3376716964189
319.678684839884;66.2211145472868
319.700310565503;66.081476411619
319.721936291121;65.9192033346415
319.743562016739;65.7497056500828
319.765187742357;65.5904706111146
319.786813467975;65.4487417306989
319.808439193594;65.319804377085
319.830064919212;65.2002965759159
319.85169064483;65.0802991527957
319.873316370448;64.9501249588249
319.894942096066;64.8208659649907
319.916567821684;64.7095315025957
319.938193547303;64.603259844001
319.959819272921;64.4678463641092
319.981444998539;64.2937477044853
320.003070724157;64.0954487797663
320.024696449775;63.8874646783462
320.046322175393;63.6603172421353
320.067947901012;63.4005413716563
320.08957362663;63.1240651622046
320.111199352248;62.8509642563189
320.132825077866;62.5896888884103
320.154450803484;62.3466694835918
320.176076529102;62.1288292148612
320.197702254721;61.9426166406132
320.219327980339;61.7920903510828
320.240953705957;61.6700243769552
320.262579431575;61.5701036372366
320.284205157193;61.4868815448682
320.305830882811;61.4144948869873
320.32745660843;61.3456965427565
320.349082334048;61.2672020717046
320.370708059666;61.1648555352896
320.392333785284;61.0342436222729
320.413959510902;60.8817657030374
320.435585236521;60.7158517980714
320.457210962139;60.5365162692514
320.478836687757;60.3415740980309
320.500462413375;60.1445373222293
320.522088138993;59.9628166398203
320.543713864611;59.8033270897088
320.56533959023;59.6662068015143
320.586965315848;59.5534697647704
320.608591041466;59.462505583407
320.630216767084;59.3888475251406
320.651842492702;59.348736553402
320.67346821832;59.3577197886343
320.695093943939;59.4022394113555
320.716719669557;59.4693371933007
320.738345395175;59.5534739934119
320.759971120793;59.6575037927099
320.781596846411;59.7787222514093
320.803222572029;59.9062494977198
320.824848297648;60.0418414887082
320.846474023266;60.1957425425026
320.868099748884;60.3790466385024
320.889725474502;60.610464887085
320.91135120012;60.8846057472651
320.932976925739;61.1695198776083
320.954602651357;61.455248268574
320.976228376975;61.7508575974532
320.997854102593;62.0618536380149
321.019479828211;62.3928085065309
321.041105553829;62.7462378047825
321.062731279448;63.1069927995383
321.084357005066;63.4547181351639
321.105982730684;63.7828509421028
321.127608456302;64.0931578117889
321.14923418192;64.3857327328269
321.170859907538;64.6538554037443
321.192485633157;64.886297013511
321.214111358775;65.0751349556787
321.235737084393;65.2170151498406
321.257362810011;65.3115505629034
321.278988535629;65.3575342065361
321.300614261247;65.3554664738156
321.322239986866;65.3100463209468
321.343865712484;65.223983748597
321.365491438102;65.0955539236499
321.38711716372;64.9294139731527
321.408742889338;64.7322731407649
321.430368614956;64.5135244866926
321.451994340575;64.2895824121605
321.473620066193;64.0657251000613
321.495245791811;63.8380712536399
321.516871517429;63.6100887341445
321.538497243047;63.3877041626303
321.560122968666;63.167627601746
321.581748694284;62.9384679914881
321.603374419902;62.6938520562071
321.62500014552;62.4338196118333
321.646625871138;62.1510661645424
321.668251596756;61.8323920947887
321.689877322375;61.4743292111021
321.711503047993;61.0689882331817
321.733128773611;60.6037594677941
321.754754499229;60.0791669486157
321.776380224847;59.4913182923049
321.798005950465;58.8455286012528
321.819631676084;58.1522814757031
321.841257401702;57.4256212095996
321.86288312732;56.6742210568747
321.884508852938;55.9060269448876
321.906134578556;55.1530114798515
321.927760304174;54.448678092798
321.949386029793;53.801051459403
321.971011755411;53.2165649616199
321.992637481029;52.7076644552396
322.014263206647;52.2783579239046
322.035888932265;51.9171899917621
322.057514657883;51.6154561641965
322.079140383502;51.3741901205266
322.10076610912;51.1975435783416
322.122391834738;51.0865719488276
322.144017560356;51.040456495196
322.165643285974;51.0561119907112
322.187269011592;51.1283172268982
322.208894737211;51.2523299337022
322.230520462829;51.4247384952655
322.252146188447;51.6436306022049
322.273771914065;51.9010526890079
322.295397639683;52.1748775935565
322.317023365302;52.4625456965278
322.33864909092;52.7679365083162
322.360274816538;53.0850674090734
322.381900542156;53.392014701462
322.403526267774;53.6883773846868
322.425151993392;53.9816771220765
322.446777719011;54.2665284435605
322.468403444629;54.5313772847705
322.490029170247;54.7740621869212
322.511654895865;54.9975574310071
322.533280621483;55.2049435473228
322.554906347101;55.394011998097
322.57653207272;55.5637852872562
322.598157798338;55.7140730379428
322.619783523956;55.8377122781576
322.641409249574;55.9269117934202
322.663034975192;55.9860797847477
322.68466070081;56.0187962834683
322.706286426429;56.02317448666
322.727912152047;56.0004355440923
322.749537877665;55.955675077302
322.771163603283;55.8881093476605
322.792789328901;55.7980600764709
322.814415054519;55.6870304386297
322.836040780138;55.5535367734983
322.857666505756;55.4020356442634
322.879292231374;55.234055048693
322.900917956992;55.0466083663062
322.92254368261;54.8474310946659
322.944169408229;54.6484099019585
322.965795133847;54.4471700973054
322.987420859465;54.234664596259
323.009046585083;53.9999413773456
323.030672310701;53.7391682035518
323.052298036319;53.4639088371218
323.073923761938;53.2088007794236
323.095549487556;52.9779922692774
323.117175213174;52.7600916814142
323.138800938792;52.5525163492948
323.16042666441;52.3599792383244
323.182052390028;52.1858557266975
323.203678115647;52.0249907451562
323.225303841265;51.8788128055299
323.246929566883;51.7458437196063
323.268555292501;51.6196083297621
323.290181018119;51.5001050409086
323.311806743737;51.3925814148848
323.333432469356;51.2884079160932
323.355058194974;51.1768722489753
323.376683920592;51.0532807900541
323.39830964621;50.9197242624306
323.419935371828;50.7705145733049
323.441561097446;50.6030429241071
323.463186823065;50.4309533263197
323.484812548683;50.2601029623419
323.506438274301;50.0763835717567
323.528063999919;49.8575003982856
323.549689725537;49.5982264542312
323.571315451156;49.3139188794246
323.592941176774;49.0118949611933
323.614566902392;48.6860075209467
323.63619262801;48.3414679535295
323.657818353628;47.9889149694533
323.679444079246;47.6316959721831
323.701069804865;47.2846150204329
323.722695530483;46.9598421623583
323.744321256101;46.6526811047214
323.765946981719;46.3592957385783
323.787572707337;46.0918908252795
323.809198432955;45.8615657253523
323.830824158574;45.6682493838221
323.852449884192;45.5150532196357
323.87407560981;45.4071340118631
323.895701335428;45.341732304921
323.917327061046;45.3145692712362
323.938952786664;45.3077354832819
323.960578512283;45.31766664186
323.982204237901;45.3504401839892
324.003829963519;45.410303834823
324.025455689137;45.4831228780508
324.047081414755;45.5614073554186
324.068707140373;45.6540548175628
324.090332865992;45.7581974721098
324.11195859161;45.8716991298437
324.133584317228;45.9878748746888
324.155210042846;46.09613600088
324.176835768464;46.1933182248856
324.198461494082;46.2843272069485
324.220087219701;46.366011948509
324.241712945319;46.4243810592543
324.263338670937;46.4530600558086
324.284964396555;46.4554314243996
324.306590122173;46.4304675308848
324.328215847792;46.3636440536005
324.34984157341;46.2365596780899
324.371467299028;46.0535579544614
324.393093024646;45.8383484955213
324.414718750264;45.5987017196559
324.436344475882;45.3278417784042
324.457970201501;45.0268560543046
324.479595927119;44.7115207231349
324.501221652737;44.3985138619951
324.522847378355;44.1064749700329
324.544473103973;43.8572898489696
324.566098829591;43.6656205622281
324.58772455521;43.5306396377012
324.609350280828;43.4538885090905
324.630976006446;43.4493434344304
324.652601732064;43.5219112325891
324.674227457682;43.6361773620498
324.6958531833;43.7742120914409
324.717478908919;43.9437927428855
324.739104634537;44.1465648985596
324.760730360155;44.3739704624681
