Name;ESR_BC_1_14400s_Y_gon_20dg_result

Recipe
Accumulations;5;Number of accumulations
RetryCount;0;Number of retries on error
AbortOnError;True;Abort on error
EnableQFactorMeasurement;False;Enable/Disable q-Factor measurement
Bfrom;313;B from
Bto;363;B to
SweepTime;60;Sweep time
Modulation;0.2;Modulation
ModulationFreq;100;Modulation
BHoldEnabled;False;B hold enabled
BHold;0;B hold
MicrowavePower;2;Microwave power
MarkerEnabled;False;
MarkerStartField;0;
MarkerEndField;0;
Mode;;
KineticGFact;0;
KineticTotalTransientTime;0;
KineticTimeResolution;0;
TempFrom;5;
TempUseSlope;False;
TempTo;5;
TempdT;1;
TempSetupTime;0;
GonFrom;0;
GonTo;180;
GonSteps;20;
XRayEnabled;False;
XRayTime;3;
XRayVoltage;40;
XRayCurrent;0.5;
UVEnabled;False;
UVIntensity;0;
UVTime;0;
UVLeadTime;0;
UVWavelength;0;
PowSweepFrom;1;
PowSweepTo;5;
PowSweepSteps;5;
AmpModSweepFrom;0;
AmpModSweepTo;1;
AmpModSweepSteps;10;
ExtTriggerEnabled;False;
ExtTrigLeadTime;0;
ExtTrigOnTime;5;

Meas
BField [mT];MW_Absorption []
313.016475830078;160.36423861033
313.038096647605;160.287145063403
313.059717465132;159.919636040843
313.081338282659;159.541723226966
313.102959100186;159.140694183447
313.124579917713;158.699386525246
313.14620073524;158.210186275821
313.167821552767;157.676255268551
313.189442370294;157.107443675358
313.211063187821;156.510686884522
313.232684005348;155.894317083757
313.254304822875;155.2603843258
313.275925640402;154.612905245699
313.297546457929;153.962248299064
313.319167275456;153.316327953569
313.340788092983;152.689973050331
313.362408910509;152.091244153245
313.384029728036;151.529992397569
313.405650545563;151.024900331292
313.42727136309;150.578368722803
313.448892180617;150.179818357504
313.470512998144;149.8275093629
313.492133815671;149.522625280758
313.513754633198;149.262374868521
313.535375450725;149.050235364991
313.556996268252;148.897078751662
313.578617085779;148.812710283879
313.600237903306;148.789339273718
313.621858720833;148.816738205194
313.64347953836;148.8925945797
313.665100355887;149.008337980834
313.686721173414;149.155228910653
313.708341990941;149.329267756546
313.729962808468;149.533337995755
313.751583625995;149.769013019059
313.773204443522;150.014944178179
313.794825261049;150.242727779522
313.816446078576;150.442363240305
313.838066896103;150.612523554942
313.85968771363;150.754045750956
313.881308531157;150.862312055037
313.902929348684;150.932090647808
313.924550166211;150.965394038522
313.946170983737;150.961487409264
313.967791801264;150.906647138955
313.989412618791;150.789521596772
314.011033436318;150.618221447994
314.032654253845;150.39994356343
314.054275071372;150.132816432555
314.075895888899;149.823164955967
314.097516706426;149.485463614901
314.119137523953;149.120292998072
314.14075834148;148.728269325921
314.162379159007;148.340309669555
314.183999976534;147.990519628199
314.205620794061;147.685722188121
314.227241611588;147.419582798596
314.248862429115;147.196287912208
314.270483246642;147.028593325969
314.292104064169;146.914468477219
314.313724881696;146.833569290217
314.335345699223;146.772876280305
314.35696651675;146.733149575486
314.378587334277;146.712613050515
314.400208151804;146.703565526965
314.421828969331;146.693873291226
314.443449786858;146.673622998833
314.465070604385;146.639369929786
314.486691421912;146.591683916181
314.508312239439;146.527347517193
314.529933056965;146.436697650098
314.551553874492;146.334164045436
314.573174692019;146.244634834296
314.594795509546;146.171236726804
314.616416327073;146.104495800939
314.6380371446;146.036589530902
314.659657962127;145.966461642763
314.681278779654;145.902082453676
314.702899597181;145.844073345803
314.724520414708;145.799001781539
314.746141232235;145.761154609328
314.767762049762;145.722652600809
314.789382867289;145.681533447467
314.811003684816;145.638793414337
314.832624502343;145.592369136789
314.85424531987;145.544429343501
314.875866137397;145.497247771811
314.897486954924;145.451113701407
314.919107772451;145.414932416042
314.940728589978;145.398754124916
314.962349407505;145.399138938607
314.983970225032;145.41409827702
315.005591042559;145.451889463949
315.027211860086;145.511985731898
315.048832677613;145.571777950936
315.070453495139;145.614388659468
315.092074312666;145.631388636182
315.113695130193;145.617505110859
315.13531594772;145.574137125753
315.156936765247;145.50392996648
315.178557582774;145.40977083636
315.200178400301;145.292608276253
315.221799217828;145.164715728248
315.243420035355;145.033053070872
315.265040852882;144.895288834046
315.286661670409;144.740091490306
315.308282487936;144.5624815624
315.329903305463;144.369399277487
315.35152412299;144.16944724784
315.373144940517;143.966911671145
315.394765758044;143.765022882784
315.416386575571;143.566691460781
315.438007393098;143.371130274037
315.459628210625;143.180940621827
315.481249028152;143.006074458435
315.502869845679;142.85400208286
315.524490663206;142.72959649993
315.546111480733;142.639057403376
315.56773229826;142.586918320714
315.589353115787;142.580884066107
315.610973933314;142.621743001084
315.632594750841;142.701749611323
315.654215568367;142.820481211824
315.675836385894;142.983283242364
315.697457203421;143.189728243643
315.719078020948;143.424305554486
315.740698838475;143.664039255438
315.762319656002;143.888626930517
315.783940473529;144.09126243455
315.805561291056;144.260714840817
315.827182108583;144.39336350793
315.84880292611;144.483222441853
315.870423743637;144.525508488234
315.892044561164;144.530348954283
315.913665378691;144.509879994684
315.935286196218;144.461148611602
315.956907013745;144.388321394573
315.978527831272;144.311414635509
316.000148648799;144.233942631251
316.021769466326;144.148314226314
316.043390283853;144.056124098399
316.06501110138;143.971058902857
316.086631918907;143.904931153125
316.108252736434;143.855590409096
316.129873553961;143.823212178212
316.151494371488;143.805176527139
316.173115189015;143.801690462405
316.194736006542;143.810348236722
316.216356824069;143.829624706377
316.237977641595;143.863398419501
316.259598459122;143.921023068058
316.281219276649;144.006952588011
316.302840094176;144.114849310362
316.324460911703;144.235647746572
316.34608172923;144.358756627582
316.367702546757;144.479010916421
316.389323364284;144.597720014648
316.410944181811;144.719275734555
316.432564999338;144.839735167564
316.454185816865;144.946674355114
316.475806634392;145.03587328103
316.497427451919;145.115299801395
316.519048269446;145.19278194775
316.540669086973;145.259119648984
316.5622899045;145.297914830484
316.583910722027;145.317491556869
316.605531539554;145.319330788509
316.627152357081;145.291819367566
316.648773174608;145.217291806037
316.670393992135;145.092889682182
316.692014809662;144.925775249894
316.713635627189;144.709512525723
316.735256444716;144.435166773036
316.756877262243;144.097420401366
316.77849807977;143.704027664828
316.800118897297;143.27098233328
316.821739714823;142.801137076064
316.84336053235;142.30248203272
316.864981349877;141.785089408209
316.886602167404;141.280449304882
316.908222984931;140.808323960456
316.929843802458;140.374687581774
316.951464619985;139.981244852225
316.973085437512;139.624069863771
316.994706255039;139.306948188278
317.016327072566;139.03391909321
317.037947890093;138.807235140426
317.05956870762;138.618839826722
317.081189525147;138.467794428403
317.102810342674;138.355611980265
317.124431160201;138.275539243377
317.146051977728;138.218871033126
317.167672795255;138.187469724429
317.189293612782;138.184188118752
317.210914430309;138.216093860249
317.232535247836;138.285569676149
317.254156065363;138.382549323807
317.27577688289;138.495291501453
317.297397700417;138.616692148992
317.319018517944;138.742983077063
317.340639335471;138.872781450808
317.362260152997;139.00108204899
317.383880970524;139.112440797625
317.405501788051;139.195188515512
317.427122605578;139.247121189773
317.448743423105;139.266561876036
317.470364240632;139.254036424769
317.491985058159;139.208528568281
317.513605875686;139.125181565704
317.535226693213;139.006449113389
317.55684751074;138.856308982842
317.578468328267;138.682509155923
317.600089145794;138.490024392634
317.621709963321;138.28229154034
317.643330780848;138.072638864066
317.664951598375;137.871910726763
317.686572415902;137.683694444377
317.708193233429;137.508699902463
317.729814050956;137.348832766673
317.751434868483;137.211602794173
317.77305568601;137.086693471687
317.794676503537;136.953051442775
317.816297321064;136.800935505822
317.837918138591;136.63215813202
317.859538956118;136.453664431753
317.881159773645;136.275311029345
317.902780591172;136.093292953532
317.924401408698;135.902828449923
317.946022226225;135.707035553404
317.967643043752;135.516395100345
317.989263861279;135.33309329113
318.010884678806;135.156837591306
318.032505496333;135.00095454262
318.05412631386;134.89633064918
318.075747131387;134.838930442723
318.097367948914;134.813491284312
318.118988766441;134.809045670161
318.140609583968;134.818107373681
318.162230401495;134.83525536794
318.183851219022;134.85714481534
318.205472036549;134.88388181024
318.227092854076;134.911706803625
318.248713671603;134.929989972162
318.27033448913;134.933440117919
318.291955306657;134.921707086334
318.313576124184;134.89093047039
318.335196941711;134.835607742741
318.356817759238;134.756047181077
318.378438576765;134.653373544271
318.400059394292;134.529944969616
318.421680211819;134.392777379436
318.443301029346;134.246042693339
318.464921846873;134.095703265172
318.4865426644;133.948957537365
318.508163481926;133.806550814624
318.529784299453;133.666911912838
318.55140511698;133.531892745663
318.573025934507;133.40607763119
318.594646752034;133.289891411996
318.616267569561;133.1783316722
318.637888387088;133.064126025612
318.659509204615;132.941709472758
318.681130022142;132.813363998336
318.702750839669;132.673805592217
318.724371657196;132.512278707665
318.745992474723;132.335914107805
318.76761329225;132.154712115032
318.789234109777;131.973618265656
318.810854927304;131.788929728351
318.832475744831;131.593814681684
318.854096562358;131.387776931208
318.875717379885;131.176181945192
318.897338197412;130.966122151364
318.918959014939;130.762714749713
318.940579832466;130.566503448002
318.962200649993;130.376935432955
318.98382146752;130.192425758031
319.005442285047;130.006844319195
319.027063102574;129.819796856787
319.048683920101;129.62764344394
319.070304737628;129.425416355042
319.091925555154;129.213295676944
319.113546372681;128.995813712429
319.135167190208;128.769029821745
319.156788007735;128.531317175329
319.178408825262;128.290078946672
319.200029642789;128.046446091456
319.221650460316;127.792831893019
319.243271277843;127.535249666063
319.26489209537;127.285224060588
319.286512912897;127.041640548301
319.308133730424;126.788825889605
319.329754547951;126.538862419366
319.351375365478;126.300747811273
319.372996183005;126.078002469615
319.394617000532;125.87458132176
319.416237818059;125.701610883498
319.437858635586;125.565069952519
319.459479453113;125.464396440138
319.48110027064;125.394203969169
319.502721088167;125.356578802998
319.524341905694;125.366637575995
319.545962723221;125.423430374689
319.567583540748;125.50888596495
319.589204358275;125.611274698546
319.610825175802;125.729309269007
319.632445993329;125.860207810687
319.654066810856;125.994226194425
319.675687628382;126.122410385868
319.697308445909;126.231506049293
319.718929263436;126.308744362215
319.740550080963;126.350595101907
319.76217089849;126.356123852904
319.783791716017;126.325407980146
319.805412533544;126.258438072933
319.827033351071;126.164928501798
319.848654168598;126.054383168916
319.870274986125;125.920268601919
319.891895803652;125.762759635883
319.913516621179;125.58958476465
319.935137438706;125.415248075604
319.956758256233;125.243137261214
319.97837907376;125.066048127947
319.999999891287;124.886316096607
320.021620708814;124.718428331314
320.043241526341;124.569131397537
320.064862343868;124.444974145681
320.086483161395;124.348276990111
320.108103978922;124.273491812294
320.129724796449;124.214740635151
320.151345613976;124.168752113598
320.172966431503;124.131206102326
320.19458724903;124.098230948676
320.216208066556;124.068589749168
320.237828884083;124.036358646957
320.25944970161;123.9935132695
320.281070519137;123.942996975092
320.302691336664;123.88606708834
320.324312154191;123.822328081272
320.345932971718;123.759598084347
320.367553789245;123.703542483832
320.389174606772;123.652765614722
320.410795424299;123.600413970074
320.432416241826;123.547264589046
320.454037059353;123.5096670164
320.47565787688;123.499472562445
320.497278694407;123.51812547072
320.518899511934;123.566643162828
320.540520329461;123.635220565842
320.562141146988;123.707586235457
320.583761964515;123.774409286653
320.605382782042;123.826379068963
320.627003599569;123.857108079673
320.648624417096;123.866675437812
320.670245234623;123.855595034536
320.69186605215;123.820962014641
320.713486869677;123.760149760327
320.735107687204;123.683431395785
320.756728504731;123.598287738257
320.778349322258;123.501871030017
320.799970139784;123.396620134028
320.821590957311;123.291876321188
320.843211774838;123.195755484311
320.864832592365;123.109521850639
320.886453409892;123.030889960902
320.908074227419;122.967908470519
320.929695044946;122.929219330936
320.951315862473;122.91358099464
320.97293668;122.920188538979
320.994557497527;122.944199922203
321.016178315054;122.975200828814
321.037799132581;123.007950231527
321.059419950108;123.054313251858
321.081040767635;123.122518602853
321.102661585162;123.206304629484
321.124282402689;123.298879546949
321.145903220216;123.398491036664
321.167524037743;123.508574839925
321.18914485527;123.626903169804
321.210765672797;123.742799381938
321.232386490324;123.852156386175
321.254007307851;123.965900672616
321.275628125378;124.087299422657
321.297248942905;124.208127034079
321.318869760432;124.32241893142
321.340490577959;124.424881306897
321.362111395486;124.513704227348
321.383732213012;124.586835589212
321.405353030539;124.636462375994
321.426973848066;124.645481441551
321.448594665593;124.593298632194
321.47021548312;124.484085993308
321.491836300647;124.32343780879
321.513457118174;124.103951346025
321.535077935701;123.820231427546
321.556698753228;123.476921505619
321.578319570755;123.091957531751
321.599940388282;122.678975265721
321.621561205809;122.242153642977
321.643182023336;121.788806556398
321.664802840863;121.329417406419
321.68642365839;120.876419596128
321.708044475917;120.448739483421
321.729665293444;120.064621161454
321.751286110971;119.728681433601
321.772906928498;119.435740897879
321.794527746025;119.179851031392
321.816148563552;118.964340156546
321.837769381079;118.793268773478
321.859390198606;118.661560627789
321.881011016133;118.557687302718
321.90263183366;118.472718453252
321.924252651187;118.400325778541
321.945873468714;118.33348662623
321.96749428624;118.258337235897
321.989115103767;118.154772533838
322.010735921294;118.013182716409
322.032356738821;117.822302858776
322.053977556348;117.586762863845
322.075598373875;117.321625746138
322.097219191402;117.025552725007
322.118840008929;116.673791709722
322.140460826456;116.253806274273
322.162081643983;115.792670848277
322.18370246151;115.322956837071
322.205323279037;114.844588734088
322.226944096564;114.352365385659
322.248564914091;113.869329542326
322.270185731618;113.407064205693
322.291806549145;112.974014083054
322.313427366672;112.574480242319
322.335048184199;112.222968333173
322.356669001726;111.932969556978
322.378289819253;111.69978541689
322.39991063678;111.506021697925
322.421531454307;111.336598990301
322.443152271834;111.181845517902
322.464773089361;111.041406359045
322.486393906888;110.914817638093
322.508014724414;110.792654171447
322.529635541941;110.663409477363
322.551256359468;110.518191993736
322.572877176995;110.357020054785
322.594497994522;110.185049008619
322.616118812049;109.998353834059
322.637739629576;109.790889369661
322.659360447103;109.579087668399
322.68098126463;109.377758955387
322.702602082157;109.198097944168
322.724222899684;109.040324661896
322.745843717211;108.891425782269
322.767464534738;108.750432503127
322.789085352265;108.625533308407
322.810706169792;108.513137741954
322.832326987319;108.391628393019
322.853947804846;108.236770053434
322.875568622373;108.047795601562
322.8971894399;107.836312620171
322.918810257427;107.594714353245
322.940431074954;107.315482690016
322.962051892481;107.014966129749
322.983672710008;106.707503838262
323.005293527535;106.401785834117
323.026914345062;106.103804704834
323.048535162589;105.819121566396
323.070155980115;105.554451667877
323.091776797642;105.316954976645
323.113397615169;105.106650852374
323.135018432696;104.932042852998
323.156639250223;104.802231891686
323.17826006775;104.718603345252
323.199880885277;104.679511147829
323.221501702804;104.682219355375
323.243122520331;104.712173726941
323.264743337858;104.755917546872
323.286364155385;104.803655486241
323.307984972912;104.850970872155
323.329605790439;104.890055881732
323.351226607966;104.914092313806
323.372847425493;104.917162638408
323.39446824302;104.894443763971
323.416089060547;104.851367851337
323.437709878074;104.79047985432
323.459330695601;104.709477903828
323.480951513128;104.604225909333
323.502572330655;104.463740718231
323.524193148182;104.294801512522
323.545813965709;104.094655941131
323.567434783236;103.866735263397
323.589055600763;103.611280592728
323.61067641829;103.333893711097
323.632297235817;103.033031348775
323.653918053343;102.703138969266
323.67553887087;102.340727893166
323.697159688397;101.945794669185
323.718780505924;101.506937958265
323.740401323451;101.021646035756
323.762022140978;100.50975828788
323.783642958505;99.9719135109981
323.805263776032;99.3864821410861
323.826884593559;98.7811555795058
323.848505411086;98.1681833587238
323.870126228613;97.5442315846667
323.89174704614;96.9184311933181
323.913367863667;96.3239510812247
323.934988681194;95.7648334876928
323.956609498721;95.2198585148235
323.978230316248;94.6856455705917
323.999851133775;94.1672537077566
324.021471951302;93.6767999264514
324.043092768829;93.2319511849318
324.064713586356;92.8185709245784
324.086334403883;92.4065542782631
324.10795522141;91.9663124728401
324.129576038937;91.4893648255147
324.151196856464;90.9719532124219
324.172817673991;90.42961488164
324.194438491518;89.8720063574847
324.216059309045;89.2958462981508
324.237680126571;88.7091290304121
324.259300944098;88.1342190349897
324.280921761625;87.5725372740261
324.302542579152;87.0144261059277
324.324163396679;86.4548047092108
324.345784214206;85.8994879244269
324.367405031733;85.3425052350462
324.38902584926;84.7934251892584
324.410646666787;84.28911353157
324.432267484314;83.8378669324084
324.453888301841;83.4133302677472
324.475509119368;83.0099126728887
324.497129936895;82.6335268937551
324.518750754422;82.2929002924838
324.540371571949;81.9849995281389
324.561992389476;81.7005849253141
324.583613207003;81.4285354398099
324.60523402453;81.1675754054739
324.626854842057;80.9163863074557
324.648475659584;80.6821815043894
324.670096477111;80.4680066725688
324.691717294638;80.2729936419198
324.713338112165;80.1051894897424
324.734958929692;79.9663780812467
324.756579747219;79.8482735714966
