Name;ESR_BC_1_29min_Y_gon_60dg_result

Recipe
Accumulations;5;Number of accumulations
RetryCount;0;Number of retries on error
AbortOnError;True;Abort on error
EnableQFactorMeasurement;False;Enable/Disable q-Factor measurement
Bfrom;313;B from
Bto;363;B to
SweepTime;60;Sweep time
Modulation;0.2;Modulation
ModulationFreq;100;Modulation
BHoldEnabled;False;B hold enabled
BHold;0;B hold
MicrowavePower;2;Microwave power
MarkerEnabled;False;
MarkerStartField;0;
MarkerEndField;0;
Mode;;
KineticGFact;0;
KineticTotalTransientTime;0;
KineticTimeResolution;0;
TempFrom;5;
TempUseSlope;False;
TempTo;5;
TempdT;1;
TempSetupTime;0;
GonFrom;0;
GonTo;180;
GonSteps;20;
XRayEnabled;False;
XRayTime;3;
XRayVoltage;40;
XRayCurrent;0.5;
UVEnabled;False;
UVIntensity;0;
UVTime;0;
UVLeadTime;0;
UVWavelength;0;
PowSweepFrom;1;
PowSweepTo;5;
PowSweepSteps;5;
AmpModSweepFrom;0;
AmpModSweepTo;1;
AmpModSweepSteps;10;
ExtTriggerEnabled;False;
ExtTrigLeadTime;0;
ExtTrigOnTime;5;

Meas
BField [mT];MW_Absorption []
313.017602920532;182.625590732526
313.039226200219;182.118159633266
313.060849479906;181.536895713555
313.082472759594;180.889635500819
313.104096039281;180.169094276632
313.125719318968;179.354412497306
313.147342598655;178.480141272824
313.168965878342;177.617894634377
313.190589158029;176.779332927504
313.212212437716;175.939747864688
313.233835717404;175.094890762035
313.255458997091;174.270496487474
313.277082276778;173.512062569253
313.298705556465;172.862973790551
313.320328836152;172.321162279426
313.341952115839;171.853162791657
313.363575395526;171.449837351864
313.385198675213;171.138156504681
313.406821954901;170.942740331874
313.428445234588;170.830581192162
313.450068514275;170.779656795817
313.471691793962;170.784503427261
313.493315073649;170.836771739049
313.514938353336;170.924311458326
313.536561633023;171.032878989359
313.55818491271;171.15103670765
313.579808192398;171.265946061961
313.601431472085;171.360628655374
313.623054751772;171.426989394662
313.644678031459;171.455503228343
313.666301311146;171.433503061566
313.687924590833;171.371342276951
313.70954787052;171.281188151256
313.731171150208;171.163929794912
313.752794429895;171.017442122268
313.774417709582;170.849434270785
313.796040989269;170.671304178394
313.817664268956;170.493005423777
313.839287548643;170.316761741188
313.86091082833;170.144203589232
313.882534108017;169.978712244158
313.904157387705;169.823941452365
313.925780667392;169.676276536092
313.947403947079;169.532960673278
313.969027226766;169.398488831311
313.990650506453;169.273373609372
314.01227378614;169.151102120106
314.033897065827;169.027990062006
314.055520345514;168.910231915474
314.077143625202;168.809811701675
314.098766904889;168.72993514616
314.120390184576;168.660633080686
314.142013464263;168.58413486842
314.16363674395;168.48661136965
314.185260023637;168.367635537021
314.206883303324;168.225162786177
314.228506583011;168.056175576324
314.250129862699;167.858651513873
314.271753142386;167.629274141526
314.293376422073;167.353434279848
314.31499970176;167.028163032576
314.336622981447;166.65186880403
314.358246261134;166.229119926129
314.379869540821;165.785064910632
314.401492820509;165.332614075885
314.423116100196;164.86848505712
314.444739379883;164.39222540645
314.46636265957;163.917830149745
314.487985939257;163.470623740714
314.509609218944;163.058937031171
314.531232498631;162.671626996871
314.552855778318;162.322957865488
314.574479058006;162.038610589203
314.596102337693;161.801300688928
314.61772561738;161.598298723738
314.639348897067;161.424621640832
314.660972176754;161.277046057289
314.682595456441;161.15512078687
314.704218736128;161.048875172473
314.725842015815;160.96269456921
314.747465295503;160.892243470321
314.76908857519;160.822686123082
314.790711854877;160.742250953598
314.812335134564;160.643481125084
314.833958414251;160.51831218899
314.855581693938;160.365482504169
314.877204973625;160.181760550015
314.898828253313;159.967250579999
314.920451533;159.738054300071
314.942074812687;159.508543512264
314.963698092374;159.265521166992
314.985321372061;158.985537101455
315.006944651748;158.654777549467
315.028567931435;158.287923359278
315.050191211122;157.907404578962
315.07181449081;157.520901130509
315.093437770497;157.117547286027
315.115061050184;156.690465827957
315.136684329871;156.239634222401
315.158307609558;155.779365305209
315.179930889245;155.314549896559
315.201554168932;154.840847584178
315.223177448619;154.35232565226
315.244800728307;153.848965293043
315.266424007994;153.341371628965
315.288047287681;152.847087559326
315.309670567368;152.364884112297
315.331293847055;151.886436348418
315.352917126742;151.406034644482
315.374540406429;150.907473018407
315.396163686117;150.387970999196
315.417786965804;149.877409991341
315.439410245491;149.39413963644
315.461033525178;148.927633985531
315.482656804865;148.475294793667
315.504280084552;148.031828316861
315.525903364239;147.5931770945
315.547526643926;147.161493474397
315.569149923614;146.730585462817
315.590773203301;146.278745868913
315.612396482988;145.820671444054
315.634019762675;145.377063475283
315.655643042362;144.949456585818
315.677266322049;144.537468677112
315.698889601736;144.147621013136
315.720512881423;143.769092655717
315.742136161111;143.396165807077
315.763759440798;143.045938630635
315.785382720485;142.732492643069
315.807006000172;142.459564860342
315.828629279859;142.228372249812
315.850252559546;142.033401496979
315.871875839233;141.85680818914
315.893499118921;141.690612789631
315.915122398608;141.533707948533
315.936745678295;141.376337675579
315.958368957982;141.206187508455
315.979992237669;141.020138058675
316.001615517356;140.814505837467
316.023238797043;140.581035458742
316.04486207673;140.313567360513
316.066485356418;140.011747298341
316.088108636105;139.674879726165
316.109731915792;139.301722554114
316.131355195479;138.892648091734
316.152978475166;138.447824220308
316.174601754853;137.967749257428
316.19622503454;137.444831073003
316.217848314227;136.875051582187
316.239471593915;136.289162857445
316.261094873602;135.717621505218
316.282718153289;135.147953311072
316.304341432976;134.562383776197
316.325964712663;133.954026130323
316.34758799235;133.366715033339
316.369211272037;132.847498205769
316.390834551725;132.374884378901
316.412457831412;131.926586860982
316.434081111099;131.498201628624
316.455704390786;131.08851980252
316.477327670473;130.6850777854
316.49895095016;130.265002284255
316.520574229847;129.806783172226
316.542197509534;129.296925301301
316.563820789222;128.735342204225
316.585444068909;128.128502302432
316.607067348596;127.4772571364
316.628690628283;126.785353490352
316.65031390797;126.08735049086
316.671937187657;125.414424157116
316.693560467344;124.768117716199
316.715183747031;124.137437197851
316.736807026719;123.533174850662
316.758430306406;122.963471409837
316.780053586093;122.425789310504
316.80167686578;121.917534026866
316.823300145467;121.44382840721
316.844923425154;121.013024425835
316.866546704841;120.608450067233
316.888169984529;120.223172085005
316.909793264216;119.873621680751
316.931416543903;119.560687078305
316.95303982359;119.274822591902
316.974663103277;118.995990091564
316.996286382964;118.718295220581
317.017909662651;118.456997245446
317.039532942338;118.210303304599
317.061156222026;117.965791434723
317.082779501713;117.71276641746
317.1044027814;117.452577521053
317.126026061087;117.195498148182
317.147649340774;116.943743900414
317.169272620461;116.68602656849
317.190895900148;116.403732303047
317.212519179835;116.08123720261
317.234142459523;115.724830331114
317.25576573921;115.364214079744
317.277389018897;115.022451330929
317.299012298584;114.689462572097
317.320635578271;114.35759479188
317.342258857958;114.035164286411
317.363882137645;113.734450661541
317.385505417333;113.45201905302
317.40712869702;113.190900784581
317.428751976707;112.968617798762
317.450375256394;112.784756314536
317.471998536081;112.619218778946
317.493621815768;112.456154041977
317.515245095455;112.307298265099
317.536868375142;112.192398307345
317.55849165483;112.105384632108
317.580114934517;112.030470868578
317.601738214204;111.950084607246
317.623361493891;111.861206260785
317.644984773578;111.770206222421
317.666608053265;111.68754688337
317.688231332952;111.610015808383
317.709854612639;111.52483591997
317.731477892327;111.425549190147
317.753101172014;111.310449628062
317.774724451701;111.183457218309
317.796347731388;111.053092312301
317.817971011075;110.92342850697
317.839594290762;110.792938861721
317.861217570449;110.654539872396
317.882840850137;110.511293589561
317.904464129824;110.37463081332
317.926087409511;110.257317962291
317.947710689198;110.169282323505
317.969333968885;110.116400253675
317.990957248572;110.10036848324
318.012580528259;110.114053032872
318.034203807946;110.145600182588
318.055827087634;110.188240335312
318.077450367321;110.235204980776
318.099073647008;110.269871787662
318.120696926695;110.281676785989
318.142320206382;110.270302031722
318.163943486069;110.231863139118
318.185566765756;110.155394270365
318.207190045443;110.034304869066
318.228813325131;109.879208981098
318.250436604818;109.70809175903
318.272059884505;109.532011530681
318.293683164192;109.353042966062
318.315306443879;109.174901128929
318.336929723566;109.006436174338
318.358553003253;108.852473216391
318.380176282941;108.719920975645
318.401799562628;108.619022896113
318.423422842315;108.555408471853
318.445046122002;108.532058876993
318.466669401689;108.549622949833
318.488292681376;108.602928180357
318.509915961063;108.683610705949
318.53153924075;108.786875424742
318.553162520438;108.91161368534
318.574785800125;109.053931324866
318.596409079812;109.206915171918
318.618032359499;109.361498781765
318.639655639186;109.506094579221
318.661278918873;109.63310004779
318.68290219856;109.741927793735
318.704525478247;109.832969620389
318.726148757935;109.905673913731
318.747772037622;109.952630463861
318.769395317309;109.973144455116
318.791018596996;109.96340721507
318.812641876683;109.919387422005
318.83426515637;109.848236041374
318.855888436057;109.762881575364
318.877511715745;109.665361819811
318.899134995432;109.561456780686
318.920758275119;109.464019832867
318.942381554806;109.374662590322
318.964004834493;109.287337608641
318.98562811418;109.204443123676
319.007251393867;109.13331707611
319.028874673554;109.074441590384
319.050497953242;109.019426274892
319.072121232929;108.96253604865
319.093744512616;108.901937496172
319.115367792303;108.835983743438
319.13699107199;108.759124956687
319.158614351677;108.667397372855
319.180237631364;108.562249973203
319.201860911051;108.444647817188
319.223484190739;108.317979915061
319.245107470426;108.189228463643
319.266730750113;108.062720692188
319.2883540298;107.942482468054
319.309977309487;107.840174986864
319.331600589174;107.773713292791
319.353223868861;107.748774102242
319.374847148549;107.759863067008
319.396470428236;107.807563826095
319.418093707923;107.886625814635
319.43971698761;107.997911788539
319.461340267297;108.134833763321
319.482963546984;108.284641929858
319.504586826671;108.44074262359
319.526210106358;108.607357206448
319.547833386046;108.789509883153
319.569456665733;108.978232016374
319.59107994542;109.131267985858
319.612703225107;109.223327489294
319.634326504794;109.272696941257
319.655949784481;109.28387653992
319.677573064168;109.253573086209
319.699196343855;109.178683955137
319.720819623543;109.053961342506
319.74244290323;108.869478045068
319.764066182917;108.629595161581
319.785689462604;108.371249669796
319.807312742291;108.107448636036
319.828936021978;107.843201687332
319.850559301665;107.59090784902
319.872182581352;107.352084191046
319.89380586104;107.127332752749
319.915429140727;106.92326217262
319.937052420414;106.746609513713
319.958675700101;106.607296305823
319.980298979788;106.511717965178
320.001922259475;106.459311458854
320.023545539162;106.446619928641
320.04516881885;106.46689386697
320.066792098537;106.505138512821
320.088415378224;106.551247975308
320.110038657911;106.60973120369
320.131661937598;106.681234531776
320.153285217285;106.760238511805
320.174908496972;106.840979895654
320.196531776659;106.918967012738
320.218155056347;106.993186860441
320.239778336034;107.069268538379
320.261401615721;107.154174800079
320.283024895408;107.254260770713
320.304648175095;107.374978741138
320.326271454782;107.516144251875
320.347894734469;107.680466603629
320.369518014156;107.872672316858
320.391141293844;108.084577509697
320.412764573531;108.299121686659
320.434387853218;108.507616150868
320.456011132905;108.704696735223
320.477634412592;108.881055284372
320.499257692279;109.025666449637
320.520880971966;109.132491429148
320.542504251654;109.197498627418
320.564127531341;109.218195708488
320.585750811028;109.193330491898
320.607374090715;109.122114948318
320.628997370402;109.009211379963
320.650620650089;108.864505570699
320.672243929776;108.701520293502
320.693867209463;108.531122451649
320.715490489151;108.362908410871
320.737113768838;108.21228839551
320.758737048525;108.091282902202
320.780360328212;107.998595595622
320.801983607899;107.93683195931
320.823606887586;107.915875058551
320.845230167273;107.939073224638
320.86685344696;108.004327554244
320.888476726648;108.112440120685
320.910100006335;108.27125541839
320.931723286022;108.477478240916
320.953346565709;108.712112457415
320.974969845396;108.963433511106
320.996593125083;109.22576336527
321.01821640477;109.504674140974
321.039839684457;109.803695485264
321.061462964145;110.108335772032
321.083086243832;110.402300715932
321.104709523519;110.677241652269
321.126332803206;110.921658975789
321.147956082893;111.136191824435
321.16957936258;111.329125358886
321.191202642267;111.485784388921
321.212825921955;111.592379359185
321.234449201642;111.649152314914
321.256072481329;111.657001594628
321.277695761016;111.615769501159
321.299319040703;111.536157295748
321.32094232039;111.42614641226
321.342565600077;111.283607025265
321.364188879764;111.105687097073
321.385812159452;110.891178663927
321.407435439139;110.635126672927
321.429058718826;110.343272795131
321.450681998513;110.015790107956
321.4723052782;109.643263495067
321.493928557887;109.240846049696
321.515551837574;108.819533246209
321.537175117261;108.368733047109
321.558798396949;107.882735840882
321.580421676636;107.375556128325
321.602044956323;106.879259054773
321.62366823601;106.420781681179
321.645291515697;105.996936356035
321.666914795384;105.598447671355
321.688538075071;105.214793029851
321.710161354759;104.842944172091
321.731784634446;104.500699766686
321.753407914133;104.200794653557
321.77503119382;103.930788463229
321.796654473507;103.679640670064
321.818277753194;103.44551070203
321.839901032881;103.23138980184
321.861524312568;103.037276068299
321.883147592256;102.856888065106
321.904770871943;102.679721206179
321.92639415163;102.501213740885
321.948017431317;102.330845703379
321.969640711004;102.16876023653
321.991263990691;101.99822693118
322.012887270378;101.806553063573
322.034510550065;101.597275185751
322.056133829753;101.364574630147
322.07775710944;101.105957180036
322.099380389127;100.822775336569
322.121003668814;100.51157043838
322.142626948501;100.16336865322
322.164250228188;99.7718386466968
322.185873507875;99.3486230978633
322.207496787562;98.9057028216797
322.22912006725;98.4676169113754
322.250743346937;98.0264451482203
322.272366626624;97.5789232664973
322.293989906311;97.1526194232619
322.315613185998;96.772118273746
322.337236465685;96.4416135182934
322.358859745372;96.1717059654046
322.38048302506;95.9519635813736
322.402106304747;95.7658924976457
322.423729584434;95.611637169289
322.445352864121;95.5017707817066
322.466976143808;95.4360394264789
322.488599423495;95.4114531058963
322.510222703182;95.4187053331879
322.531845982869;95.4443171645272
322.553469262557;95.4890457670304
322.575092542244;95.5505092940087
322.596715821931;95.6155795605718
322.618339101618;95.6724988738383
322.639962381305;95.7157190623244
322.661585660992;95.7478947819948
322.683208940679;95.7649945988036
322.704832220366;95.7553971851983
322.726455500054;95.7216939425426
322.748078779741;95.6780453920254
322.769702059428;95.628262243452
322.791325339115;95.5742128145386
322.812948618802;95.5125462722395
322.834571898489;95.4504911424062
322.856195178176;95.3938834241728
322.877818457864;95.3418686858941
322.899441737551;95.2919365083548
322.921065017238;95.2333168728817
322.942688296925;95.1652697998348
322.964311576612;95.1006877136315
322.985934856299;95.0391760592266
323.007558135986;94.9737870602883
323.029181415673;94.8960904945986
323.050804695361;94.8042737047965
323.072427975048;94.6965513969049
323.094051254735;94.5766888336364
323.115674534422;94.4591655082066
323.137297814109;94.3555449309902
323.158921093796;94.2548310891882
323.180544373483;94.1571562722044
323.20216765317;94.0758790264381
323.223790932858;94.0132740097983
323.245414212545;93.9249752114855
323.267037492232;93.8093586056919
323.288660771919;93.6795863609283
323.310284051606;93.5298200031285
323.331907331293;93.355788168195
323.35353061098;93.1755684282323
323.375153890668;93.0011930852964
323.396777170355;92.826896040356
323.418400450042;92.6405517791515
323.440023729729;92.4400766290018
323.461647009416;92.2362182659436
323.483270289103;92.028812399161
323.50489356879;91.82089814232
323.526516848477;91.6280368450666
323.548140128165;91.4532327515709
323.569763407852;91.2881518490227
323.591386687539;91.1253634519082
323.613009967226;90.9624704800845
323.634633246913;90.7978604381659
323.6562565266;90.6308799755176
323.677879806287;90.4597752316713
323.699503085974;90.2890927735272
323.721126365662;90.1210081779197
323.742749645349;89.9512093340276
323.764372925036;89.7709570781617
323.785996204723;89.578687006089
323.80761948441;89.379336939506
323.829242764097;89.1762061533963
323.850866043784;88.9699674488053
323.872489323472;88.7658019341469
323.894112603159;88.5708648026839
323.915735882846;88.3841735362507
323.937359162533;88.2025893924251
323.95898244222;88.0276491329773
323.980605721907;87.8674730632135
324.002229001594;87.7324016302178
324.023852281281;87.6287888940194
324.045475560969;87.5518141866675
324.067098840656;87.4910162302375
324.088722120343;87.4466730804552
324.11034540003;87.4248005620772
324.131968679717;87.4195746465596
324.153591959404;87.4190606440936
324.175215239091;87.4121305390269
324.196838518778;87.3925539587814
324.218461798466;87.3583844864414
324.240085078153;87.3071122271079
324.26170835784;87.2376119501566
324.283331637527;87.1490399317737
324.304954917214;87.0400151663523
324.326578196901;86.9093378136402
324.348201476588;86.7608179858476
324.369824756276;86.6011064229481
324.391448035963;86.4338712553574
324.41307131565;86.2411332337771
324.434694595337;86.0066285818285
324.456317875024;85.7386684190328
324.477941154711;85.4700118269069
324.499564434398;85.2140273798711
324.521187714085;84.9576456074106
324.542810993773;84.6885694990594
324.56443427346;84.4103142399133
324.586057553147;84.1270282401293
324.607680832834;83.8479847486294
324.629304112521;83.5736493587868
324.650927392208;83.3061684990506
324.672550671895;83.0487033567727
324.694173951582;82.7954491545866
324.71579723127;82.5426750991736
324.737420510957;82.2944193757142
324.759043790644;82.0443450547355
324.780667070331;81.7758780767776
