Name;ESR_BC_1_29min_X_gon_80dg_result

Recipe
Accumulations;5;Number of accumulations
RetryCount;0;Number of retries on error
AbortOnError;True;Abort on error
EnableQFactorMeasurement;False;Enable/Disable q-Factor measurement
Bfrom;313;B from
Bto;363;B to
SweepTime;60;Sweep time
Modulation;0.2;Modulation
ModulationFreq;100;Modulation
BHoldEnabled;False;B hold enabled
BHold;0;B hold
MicrowavePower;2;Microwave power
MarkerEnabled;False;
MarkerStartField;0;
MarkerEndField;0;
Mode;;
KineticGFact;0;
KineticTotalTransientTime;0;
KineticTimeResolution;0;
TempFrom;5;
TempUseSlope;False;
TempTo;5;
TempdT;1;
TempSetupTime;0;
GonFrom;0;
GonTo;180;
GonSteps;20;
XRayEnabled;False;
XRayTime;3;
XRayVoltage;40;
XRayCurrent;0.5;
UVEnabled;False;
UVIntensity;0;
UVTime;0;
UVLeadTime;0;
UVWavelength;0;
PowSweepFrom;1;
PowSweepTo;5;
PowSweepSteps;5;
AmpModSweepFrom;0;
AmpModSweepTo;1;
AmpModSweepSteps;10;
ExtTriggerEnabled;False;
ExtTrigLeadTime;0;
ExtTrigOnTime;5;

Meas
BField [mT];MW_Absorption []
313.023391952515;617.457064575693
313.04501811314;617.115496378761
313.066644273766;616.747475166213
313.088270434392;616.332987650587
313.109896595018;615.856725244461
313.131522755644;615.305396263669
313.153148916269;614.670338297913
313.174775076895;613.94527853934
313.196401237521;613.149862146313
313.218027398147;612.309379442996
313.239653558772;611.434238713344
313.261279719398;610.51827481364
313.282905880024;609.539034712401
313.30453204065;608.52568166457
313.326158201275;607.538693027577
313.347784361901;606.574119284992
313.369410522527;605.583435641458
313.391036683153;604.558465139918
313.412662843779;603.502871843069
313.434289004404;602.390329606241
313.45591516503;601.221065957606
313.477541325656;600.037349577597
313.499167486282;598.874357843766
313.520793646907;597.737532777421
313.542419807533;596.631040569957
313.564045968159;595.524541198769
313.585672128785;594.421089424393
313.60729828941;593.356175612485
313.628924450036;592.31389981654
313.650550610662;591.249314847469
313.672176771288;590.14912108038
313.693802931914;589.053381915937
313.715429092539;588.019772569815
313.737055253165;587.086606082944
313.758681413791;586.213266670544
313.780307574417;585.406529577649
313.801933735042;584.674499664834
313.823559895668;584.023714602229
313.845186056294;583.448558894116
313.86681221692;582.941566186639
313.888438377546;582.505747380392
313.910064538171;582.138850597703
313.931690698797;581.828519622418
313.953316859423;581.563465308664
313.974943020049;581.332898759621
313.996569180674;581.123145029809
314.0181953413;580.915524883114
314.039821501926;580.688841989124
314.061447662552;580.417972247025
314.083073823177;580.080290644572
314.104699983803;579.675580859992
314.126326144429;579.215130542067
314.147952305055;578.698213477466
314.169578465681;578.13346177577
314.191204626306;577.560437624343
314.212830786932;576.992219299645
314.234456947558;576.416799729295
314.256083108184;575.841529065753
314.277709268809;575.276620581435
314.299335429435;574.710932276241
314.320961590061;574.115159044778
314.342587750687;573.462665228289
314.364213911313;572.757529611694
314.385840071938;572.021707883797
314.407466232564;571.266653874097
314.42909239319;570.499903409604
314.450718553816;569.720283679392
314.472344714441;568.904363192742
314.493970875067;568.02157304747
314.515597035693;567.058775826473
314.537223196319;566.03833739967
314.558849356944;565.001001665435
314.58047551757;563.943266446893
314.602101678196;562.8855685815
314.623727838822;561.874938682221
314.645353999448;560.894614686394
314.666980160073;559.913931159795
314.688606320699;558.920270500293
314.710232481325;557.900498847285
314.731858641951;556.867498209689
314.753484802576;555.82818704113
314.775110963202;554.778059065175
314.796737123828;553.707249269622
314.818363284454;552.598865127389
314.839989445079;551.480343908786
314.861615605705;550.38180181042
314.883241766331;549.276292988756
314.904867926957;548.131584748909
314.926494087583;546.970425361028
314.948120248208;545.836342506076
314.969746408834;544.73874686423
314.99137256946;543.66000359951
315.012998730086;542.586130948663
315.034624890711;541.541444120729
315.056251051337;540.535161680366
315.077877211963;539.55611231185
315.099503372589;538.596867697897
315.121129533215;537.64829496713
315.14275569384;536.71595522229
315.164381854466;535.8270381052
315.186008015092;534.994967938451
315.207634175718;534.210978047536
315.229260336343;533.452293211167
315.250886496969;532.709065368637
315.272512657595;531.985602551463
315.294138818221;531.28271508909
315.315764978846;530.602931000856
315.337391139472;529.95709112356
315.359017300098;529.344986062364
315.380643460724;528.734845897756
315.40226962135;528.098101536112
315.423895781975;527.440931941881
315.445521942601;526.79776263697
315.467148103227;526.158419381928
315.488774263853;525.500902729392
315.510400424478;524.807506817316
315.532026585104;524.074887959837
315.55365274573;523.314800100105
315.575278906356;522.540213076069
315.596905066981;521.749660109799
315.618531227607;520.922867186488
315.640157388233;520.031411668702
315.661783548859;519.067042562911
315.683409709485;518.039708619343
315.70503587011;516.981291004789
315.726662030736;515.939912371622
315.748288191362;514.891291773802
315.769914351988;513.803196633106
315.791540512613;512.680520365142
315.813166673239;511.607280116188
315.834792833865;510.614922020171
315.856418994491;509.680485332455
315.878045155117;508.776127102924
315.899671315742;507.879688417268
315.921297476368;507.054917219797
315.942923636994;506.298335940032
315.96454979762;505.57285141359
315.986175958245;504.858553673753
316.007802118871;504.152254916363
316.029428279497;503.449220372787
316.051054440123;502.742069781145
316.072680600748;502.041519255356
316.094306761374;501.34793855001
316.115932922;500.653645740245
316.137559082626;499.992307622794
316.159185243252;499.370334178613
316.180811403877;498.759347727185
316.202437564503;498.150851575256
316.224063725129;497.568935303484
316.245689885755;497.03374933665
316.26731604638;496.524368856906
316.288942207006;496.013901452396
316.310568367632;495.493413475673
316.332194528258;494.973127178833
316.353820688883;494.449655594701
316.375446849509;493.91670145685
316.397073010135;493.367413630544
316.418699170761;492.792524873495
316.440325331387;492.186577770034
316.461951492012;491.543587749795
316.483577652638;490.859139501328
316.505203813264;490.134997817906
316.52682997389;489.374613296123
316.548456134515;488.59976043436
316.570082295141;487.813510412615
316.591708455767;486.980601655721
316.613334616393;486.081589840509
316.634960777018;485.127785924079
316.656586937644;484.144792478306
316.67821309827;483.161151034241
316.699839258896;482.185280986725
316.721465419522;481.204192509009
316.743091580147;480.236792178345
316.764717740773;479.306605435776
316.786343901399;478.409343936289
316.807970062025;477.537598312841
316.82959622265;476.683946999186
316.851222383276;475.846398764647
316.872848543902;475.04577789569
316.894474704528;474.300240942651
316.916100865154;473.62022888002
316.937727025779;472.993763900416
316.959353186405;472.405628068724
316.980979347031;471.863272504784
317.002605507657;471.365735159219
317.024231668282;470.906365309334
317.045857828908;470.479525268724
317.067483989534;470.081515752052
317.08911015016;469.705554279
317.110736310785;469.335621552806
317.132362471411;468.956646287336
317.153988632037;468.573977134834
317.175614792663;468.195244874368
317.197240953289;467.811111865046
317.218867113914;467.394811953148
317.24049327454;466.929501086614
317.262119435166;466.4215904362
317.283745595792;465.876928524918
317.305371756417;465.301743181772
317.326997917043;464.681965195126
317.348624077669;464.004871624165
317.370250238295;463.284340122131
317.39187639892;462.532038988086
317.413502559546;461.752922083083
317.435128720172;460.954552405805
317.456754880798;460.157434015149
317.478381041424;459.386179283664
317.500007202049;458.611780493513
317.521633362675;457.804631629668
317.543259523301;456.986591868592
317.564885683927;456.190032600112
317.586511844552;455.398290610713
317.608138005178;454.61421454549
317.629764165804;453.847076586173
317.65139032643;453.073958483594
317.673016487056;452.254757618505
317.694642647681;451.384657601863
317.716268808307;450.508852729495
317.737894968933;449.63942200736
317.759521129559;448.73527778691
317.781147290184;447.765615761182
317.80277345081;446.751656774967
317.824399611436;445.729180807094
317.846025772062;444.721467576275
317.867651932687;443.733484652558
317.889278093313;442.757871679539
317.910904253939;441.786556820818
317.932530414565;440.831079510736
317.954156575191;439.907458451746
317.975782735816;439.019750334211
317.997408896442;438.162811385523
318.019035057068;437.326268491609
318.040661217694;436.50078763565
318.062287378319;435.685538303759
318.083913538945;434.884435911986
318.105539699571;434.106428759356
318.127165860197;433.364538196136
318.148792020823;432.656914567947
318.170418181448;431.982455222369
318.192044342074;431.348097274613
318.2136705027;430.744546749875
318.235296663326;430.151416266723
318.256922823951;429.580976258481
318.278548984577;429.067603876772
318.300175145203;428.617891957286
318.321801305829;428.221886046925
318.343427466454;427.871192536952
318.36505362708;427.574573079246
318.386679787706;427.333821210582
318.408305948332;427.141306687831
318.429932108958;426.983165541274
318.451558269583;426.848289893003
318.473184430209;426.734369727386
318.494810590835;426.641895164416
318.516436751461;426.570978128623
318.538062912086;426.521563893761
318.559689072712;426.491959863728
318.581315233338;426.485882342589
318.602941393964;426.515987722778
318.624567554589;426.589358569908
318.646193715215;426.704952263175
318.667819875841;426.861497223766
318.689446036467;427.045703159218
318.711072197093;427.240252398416
318.732698357718;427.438464325057
318.754324518344;427.643073386448
318.77595067897;427.8507787173
318.797576839596;428.050306902276
318.819203000221;428.230603846548
318.840829160847;428.385263301152
318.862455321473;428.495813986142
318.884081482099;428.533533194208
318.905707642725;428.497491675247
318.92733380335;428.386665173359
318.948959963976;428.216808716394
318.970586124602;427.988739704748
318.992212285228;427.684596260896
319.013838445853;427.287245985021
319.035464606479;426.799165516137
319.057090767105;426.231802264322
319.078716927731;425.598622879484
319.100343088356;424.915603149328
319.121969248982;424.210297021286
319.143595409608;423.499169561569
319.165221570234;422.776176728959
319.18684773086;422.047462176868
319.208473891485;421.332064889337
319.230100052111;420.664778702234
319.251726212737;420.039220868638
319.273352373363;419.437350007861
319.294978533988;418.857900457864
319.316604694614;418.320526201844
319.33823085524;417.825478975136
319.359857015866;417.369757631022
319.381483176491;416.940599154112
319.403109337117;416.521541679979
319.424735497743;416.103106581546
319.446361658369;415.684691014339
319.467987818995;415.26729169747
319.48961397962;414.847618002421
319.511240140246;414.434497086347
319.532866300872;414.043427464597
319.554492461498;413.66847641659
319.576118622123;413.30688601519
319.597744782749;412.962534419336
319.619370943375;412.636677608503
319.640997104001;412.32758240621
319.662623264627;412.020224187405
319.684249425252;411.683773930496
319.705875585878;411.32299721834
319.727501746504;410.950332817772
319.74912790713;410.553339703104
319.770754067755;410.126812327009
319.792380228381;409.675756469605
319.814006389007;409.195719241865
319.835632549633;408.664254913492
319.857258710258;408.064268221463
319.878884870884;407.416091625221
319.90051103151;406.76163894101
319.922137192136;406.126651125688
319.943763352762;405.497551356354
319.965389513387;404.887458770565
319.987015674013;404.305896361312
320.008641834639;403.761858765808
320.030267995265;403.257903483023
320.05189415589;402.784118079504
320.073520316516;402.335169109818
320.095146477142;401.926250823832
320.116772637768;401.562045529463
320.138398798394;401.231107730912
320.160024959019;400.924250723074
320.181651119645;400.634199030821
320.203277280271;400.34219944735
320.224903440897;400.023062419484
320.246529601522;399.67249853631
320.268155762148;399.308677725859
320.289781922774;398.929986200446
320.3114080834;398.518106430723
320.333034244025;398.065683587873
320.354660404651;397.572212015207
320.376286565277;397.028309752972
320.397912725903;396.425274780904
320.419538886529;395.764391178449
320.441165047154;395.0427257506
320.46279120778;394.250022747244
320.484417368406;393.381960414344
320.506043529032;392.441670713137
320.527669689657;391.438334390668
320.549295850283;390.372430975574
320.570922010909;389.229318775805
320.592548171535;387.997083570755
320.61417433216;386.669503440811
320.635800492786;385.336778336329
320.657426653412;384.061441135059
320.679052814038;382.818659234672
320.700678974664;381.60426256591
320.722305135289;380.452214318962
320.743931295915;379.378084728306
320.765557456541;378.359365891618
320.787183617167;377.366930887498
320.808809777792;376.387476890325
320.830435938418;375.418128071717
320.852062099044;374.450663811215
320.87368825967;373.463642683165
320.895314420296;372.433809960476
320.916940580921;371.352320124027
320.938566741547;370.217803079696
320.960192902173;369.016642818518
320.981819062799;367.742903372767
321.003445223424;366.410949239318
321.02507138405;365.054323155987
321.046697544676;363.672856395135
321.068323705302;362.232479948291
321.089949865927;360.728035751248
321.111576026553;359.179425426091
321.133202187179;357.590854937934
321.154828347805;355.956926619465
321.176454508431;354.31231551538
321.198080669056;352.716642433862
321.219706829682;351.181469976734
321.241332990308;349.678930517142
321.262959150934;348.196571061522
321.284585311559;346.790178226502
321.306211472185;345.53922398861
321.327837632811;344.427704496358
321.349463793437;343.422396039411
321.371089954062;342.523067899171
321.392716114688;341.726542255526
321.414342275314;341.016215584906
321.43596843594;340.372304996496
321.457594596566;339.795665125408
321.479220757191;339.304086099255
321.500846917817;338.906043918102
321.522473078443;338.594607314557
321.544099239069;338.36162318747
321.565725399694;338.191533636353
321.58735156032;338.079601152048
321.608977720946;338.035683952474
321.630603881572;338.0731520054
321.652230042198;338.181706677443
321.673856202823;338.346960050164
321.695482363449;338.580849004938
321.717108524075;338.904298509696
321.738734684701;339.301180634223
321.760360845326;339.725179281697
321.781987005952;340.150925254351
321.803613166578;340.57685903531
321.825239327204;340.990754597201
321.846865487829;341.374933263191
321.868491648455;341.717658398881
321.890117809081;342.007160269924
321.911743969707;342.22544163957
321.933370130333;342.366381850109
321.954996290958;342.418244110056
321.976622451584;342.368414745
321.99824861221;342.212064915008
322.019874772836;341.96345051993
322.041500933461;341.624313210258
322.063127094087;341.201882754938
322.084753254713;340.693909928891
322.106379415339;340.081599216265
322.128005575964;339.3895946954
322.14963173659;338.663916234736
322.171257897216;337.879517209011
322.192884057842;337.018451525384
322.214510218468;336.129196082126
322.236136379093;335.235541906533
322.257762539719;334.327057984608
322.279388700345;333.394670818502
322.301014860971;332.443555820411
322.322641021596;331.49984878367
322.344267182222;330.598846396432
322.365893342848;329.771028518867
322.387519503474;328.993821999448
322.409145664099;328.230872041217
322.430771824725;327.514513886879
322.452397985351;326.880853883316
322.474024145977;326.314044792651
322.495650306603;325.78758517347
322.517276467228;325.270693257658
322.538902627854;324.730165952409
322.56052878848;324.133169006709
322.582154949106;323.452252582392
322.603781109731;322.685772645514
322.625407270357;321.8833834567
322.647033430983;321.071617289367
322.668659591609;320.221732029585
322.690285752235;319.295896850302
322.71191191286;318.270916915347
322.733538073486;317.191128554843
322.755164234112;316.11723654122
322.776790394738;315.054010128736
322.798416555363;314.008980101853
322.820042715989;312.992099567284
322.841668876615;311.99935958118
322.863295037241;311.024529129487
322.884921197866;310.058261549353
322.906547358492;309.113081020322
322.928173519118;308.221251856692
322.949799679744;307.402364182161
322.97142584037;306.655993159424
322.993052000995;305.960953374935
323.014678161621;305.299871636032
323.036304322247;304.662705914755
323.057930482873;304.063506715275
323.079556643498;303.519846665901
323.101182804124;303.034638272944
323.12280896475;302.576816502975
323.144435125376;302.123488651834
323.166061286001;301.677712598319
323.187687446627;301.233423493109
323.209313607253;300.77755471675
323.230939767879;300.29641299166
323.252565928505;299.791948132828
323.27419208913;299.256667809034
323.295818249756;298.689609830098
323.317444410382;298.118304732873
323.339070571008;297.550579961516
323.360696731633;296.983615264416
323.382322892259;296.444720920146
323.403949052885;295.953796216334
323.425575213511;295.482332562331
323.447201374137;295.025282300258
323.468827534762;294.610076058219
323.490453695388;294.253081924703
323.512079856014;293.960931414505
323.53370601664;293.723869820871
323.555332177265;293.531764468256
323.576958337891;293.365519306174
323.598584498517;293.205245223812
323.620210659143;293.049114941371
323.641836819768;292.894419951171
323.663462980394;292.723052505445
323.68508914102;292.515273028715
323.706715301646;292.270010584213
323.728341462272;291.986235286378
323.749967622897;291.663507427379
323.771593783523;291.312065623074
323.793219944149;290.942483749461
323.814846104775;290.558339954548
323.8364722654;290.14975973548
323.858098426026;289.704235087853
323.879724586652;289.239708661276
323.901350747278;288.748768444341
323.922976907903;288.219106506299
323.944603068529;287.663599180396
323.966229229155;287.122516432512
323.987855389781;286.591646849597
324.009481550407;286.046896418238
324.031107711032;285.485572290449
324.052733871658;284.920859276777
324.074360032284;284.353977381427
324.09598619291;283.762128446523
324.117612353535;283.100587968929
324.139238514161;282.377176770019
324.160864674787;281.613862462983
324.182490835413;280.811399617476
324.204116996039;279.972793012814
324.225743156664;279.109972302639
324.24736931729;278.223802114333
324.268995477916;277.321275553269
324.290621638542;276.416450531957
324.312247799167;275.517845659001
324.333873959793;274.614286502264
324.355500120419;273.674060890628
324.377126281045;272.681384281871
324.39875244167;271.690679515756
324.420378602296;270.741693089031
324.442004762922;269.797540249328
324.463630923548;268.798111876805
324.485257084174;267.700539070471
324.506883244799;266.492318536303
324.528509405425;265.227537978227
324.550135566051;263.955606288727
324.571761726677;262.671858436018
324.593387887302;261.344898558301
324.615014047928;259.926906706328
324.636640208554;258.416178323501
324.65826636918;256.852770228676
324.679892529806;255.242011626827
324.701518690431;253.621188109691
324.723144851057;252.026214444164
324.744771011683;250.416280313599
324.766397172309;248.8346333323
324.788023332934;247.345317976384
