Name;ESR_BC_1_89s_Y_gon_100dg_result

Recipe
Accumulations;5;Number of accumulations
RetryCount;0;Number of retries on error
AbortOnError;True;Abort on error
EnableQFactorMeasurement;False;Enable/Disable q-Factor measurement
Bfrom;313;B from
Bto;363;B to
SweepTime;60;Sweep time
Modulation;0.2;Modulation
ModulationFreq;100;Modulation
BHoldEnabled;False;B hold enabled
BHold;0;B hold
MicrowavePower;2;Microwave power
MarkerEnabled;False;
MarkerStartField;0;
MarkerEndField;0;
Mode;;
KineticGFact;0;
KineticTotalTransientTime;0;
KineticTimeResolution;0;
TempFrom;5;
TempUseSlope;False;
TempTo;5;
TempdT;1;
TempSetupTime;0;
GonFrom;0;
GonTo;180;
GonSteps;20;
XRayEnabled;False;
XRayTime;3;
XRayVoltage;40;
XRayCurrent;0.5;
UVEnabled;False;
UVIntensity;0;
UVTime;0;
UVLeadTime;0;
UVWavelength;0;
PowSweepFrom;1;
PowSweepTo;5;
PowSweepSteps;5;
AmpModSweepFrom;0;
AmpModSweepTo;1;
AmpModSweepSteps;10;
ExtTriggerEnabled;False;
ExtTrigLeadTime;0;
ExtTrigOnTime;5;

Meas
BField [mT];MW_Absorption []
313.024272460937;167.929372267433
313.045895685898;167.246999326106
313.067518910858;166.569364763435
313.089142135818;165.877581772092
313.110765360779;165.170915665193
313.132388585739;164.475680443058
313.154011810699;163.812524811071
313.175635035659;163.180141691876
313.19725826062;162.57635550995
313.21888148558;162.013200813171
313.24050471054;161.516211307586
313.2621279355;161.097036502064
313.283751160461;160.748242753758
313.305374385421;160.465806655343
313.326997610381;160.248376411113
313.348620835341;160.086230373524
313.370244060302;159.964337599027
313.391867285262;159.865219578493
313.413490510222;159.771677002959
313.435113735182;159.66667295187
313.456736960143;159.532905647716
313.478360185103;159.372770866714
313.499983410063;159.177083805114
313.521606635023;158.939155546897
313.543229859984;158.667079841278
313.564853084944;158.381869516273
313.586476309904;158.110731175563
313.608099534865;157.875993651015
313.629722759825;157.691226449502
313.651345984785;157.555029430781
313.672969209745;157.467090986651
313.694592434706;157.430229252568
313.716215659666;157.438802540354
313.737838884626;157.465984579711
313.759462109586;157.499546717017
313.781085334547;157.546103226931
313.802708559507;157.597084611811
313.824331784467;157.642241492915
313.845955009427;157.660754730444
313.867578234388;157.631024463427
313.889201459348;157.550541200426
313.910824684308;157.428738016436
313.932447909268;157.267711551557
313.954071134229;157.06465631417
313.975694359189;156.823005825105
313.997317584149;156.553777563623
314.018940809109;156.264344933765
314.04056403407;155.962331517779
314.06218725903;155.65223248908
314.08381048399;155.324636470322
314.105433708951;154.97191158177
314.127056933911;154.610063965319
314.148680158871;154.245513378051
314.170303383831;153.870491784987
314.191926608792;153.480144535501
314.213549833752;153.078301908216
314.235173058712;152.663606958908
314.256796283672;152.232634444284
314.278419508633;151.780401429226
314.300042733593;151.301842408783
314.321665958553;150.800620448307
314.343289183513;150.280931526583
314.364912408474;149.73909166848
314.386535633434;149.169820437256
314.408158858394;148.601072920744
314.429782083354;148.035107931419
314.451405308315;147.468712156878
314.473028533275;146.909788868172
314.494651758235;146.372568419839
314.516274983196;145.869610068924
314.537898208156;145.393383726303
314.559521433116;144.943840550855
314.581144658076;144.525792608082
314.602767883037;144.141232737236
314.624391107997;143.788883692085
314.646014332957;143.484144239177
314.667637557917;143.228079908425
314.689260782878;143.008617730669
314.710884007838;142.816326095572
314.732507232798;142.647804710323
314.754130457758;142.5104988989
314.775753682719;142.400438567802
314.797376907679;142.305462995467
314.819000132639;142.223071975774
314.840623357599;142.155176649684
314.86224658256;142.093086330772
314.88386980752;142.024731761649
314.90549303248;141.941776815499
314.92711625744;141.837132595827
314.948739482401;141.706402136227
314.970362707361;141.547396582554
314.991985932321;141.359223307566
315.013609157282;141.126347951274
315.035232382242;140.83446775088
315.056855607202;140.506730025935
315.078478832162;140.169230244495
315.100102057123;139.826583681816
315.121725282083;139.469843428546
315.143348507043;139.100285543315
315.164971732003;138.73324257606
315.186594956964;138.369141972235
315.208218181924;138.014114130789
315.229841406884;137.673723726443
315.251464631844;137.34894709511
315.273087856805;137.036031285492
315.294711081765;136.730550245549
315.316334306725;136.445775299463
315.337957531685;136.197327978411
315.359580756646;135.98032736093
315.381203981606;135.788173024559
315.402827206566;135.620788096297
315.424450431526;135.480882546028
315.446073656487;135.367348547997
315.467696881447;135.273750582415
315.489320106407;135.196140962456
315.510943331368;135.123415318847
315.532566556328;135.046576844434
315.554189781288;134.958544920818
315.575813006248;134.857107387147
315.597436231209;134.749201960912
315.619059456169;134.629858778824
315.640682681129;134.49017218268
315.662305906089;134.342432668168
315.68392913105;134.217234520397
315.70555235601;134.123955523858
315.72717558097;134.055291888263
315.74879880593;134.01723830377
315.770422030891;134.0236777334
315.792045255851;134.085563649114
315.813668480811;134.21706880959
315.835291705771;134.392585080695
315.856914930732;134.595526554329
315.878538155692;134.823726942877
315.900161380652;135.074095810668
315.921784605612;135.332270018774
315.943407830573;135.580463470322
315.965031055533;135.812481013224
315.986654280493;136.020975712412
316.008277505454;136.191119225963
316.029900730414;136.319858619528
316.051523955374;136.390465523801
316.073147180334;136.386431732385
316.094770405295;136.314827438367
316.116393630255;136.191378337159
316.138016855215;136.024440078713
316.159640080175;135.815921935431
316.181263305136;135.574011096937
316.202886530096;135.312628027283
316.224509755056;135.042402019624
316.246132980016;134.758249711525
316.267756204977;134.475260473077
316.289379429937;134.221877115976
316.311002654897;134.000260006102
316.332625879857;133.796618105387
316.354249104818;133.600130747655
316.375872329778;133.406529576327
316.397495554738;133.216446093318
316.419118779698;133.03141212378
316.440742004659;132.847095437727
316.462365229619;132.652966105712
316.483988454579;132.4413313938
316.50561167954;132.21260465748
316.5272349045;131.973591570857
316.54885812946;131.727215374789
316.57048135442;131.474066552272
316.592104579381;131.234314908032
316.613727804341;131.021169971922
316.635351029301;130.828543488912
316.656974254261;130.665788322093
316.678597479222;130.540986599777
316.700220704182;130.461413941416
316.721843929142;130.435715545593
316.743467154102;130.466143545941
316.765090379063;130.557770456032
316.786713604023;130.706612973739
316.808336828983;130.903556589235
316.829960053943;131.141572274553
316.851583278904;131.42003151546
316.873206503864;131.732959560583
316.894829728824;132.06810003893
316.916452953784;132.416638684892
316.938076178745;132.764093102584
316.959699403705;133.097025645832
316.981322628665;133.413540141562
317.002945853626;133.708860267378
317.024569078586;133.97871923809
317.046192303546;134.205174513698
317.067815528506;134.371687386348
317.089438753467;134.480055478022
317.111061978427;134.537784800578
317.132685203387;134.542055058839
317.154308428347;134.478081661818
317.175931653308;134.360783996006
317.197554878268;134.191087382228
317.219178103228;133.96892166227
317.240801328188;133.701365389501
317.262424553149;133.417751740403
317.284047778109;133.14507003151
317.305671003069;132.889087128701
317.327294228029;132.654422174157
317.34891745299;132.451546309486
317.37054067795;132.293084432316
317.39216390291;132.17603836072
317.41378712787;132.100866648332
317.435410352831;132.064934891536
317.457033577791;132.064054381865
317.478656802751;132.093734286979
317.500280027712;132.147423498153
317.521903252672;132.208660202208
317.543526477632;132.255912238048
317.565149702592;132.274058496008
317.586772927553;132.257338737799
317.608396152513;132.204747625154
317.630019377473;132.120008675824
317.651642602433;132.004971737718
317.673265827394;131.863596608651
317.694889052354;131.702712244244
317.716512277314;131.522804059424
317.738135502274;131.318181748948
317.759758727235;131.090672340633
317.781381952195;130.866603143929
317.803005177155;130.647662007223
317.824628402115;130.429418878264
317.846251627076;130.19776804553
317.867874852036;129.946841033152
317.889498076996;129.697606741694
317.911121301956;129.469512727051
317.932744526917;129.252916049361
317.954367751877;129.035479300754
317.975990976837;128.811665586944
317.997614201798;128.577684807319
318.019237426758;128.335611181744
318.040860651718;128.087935086958
318.062483876678;127.833602314821
318.084107101639;127.569887327358
318.105730326599;127.303974271703
318.127353551559;127.051933056506
318.148976776519;126.821770566445
318.17060000148;126.608429676149
318.19222322644;126.410869650341
318.2138464514;126.233981691627
318.23546967636;126.082596979482
318.257092901321;125.961023194695
318.278716126281;125.872787703935
318.300339351241;125.817314312793
318.321962576201;125.795455318053
318.343585801162;125.80284924203
318.365209026122;125.832158229338
318.386832251082;125.876906565827
318.408455476042;125.925910254378
318.430078701003;125.967228246873
318.451701925963;125.984952135529
318.473325150923;125.965836887317
318.494948375884;125.901730384453
318.516571600844;125.778333841948
318.538194825804;125.576698469508
318.559818050764;125.289057222931
318.581441275725;124.922080894975
318.603064500685;124.496661637201
318.624687725645;124.024138073101
318.646310950605;123.495934840699
318.667934175566;122.898037173247
318.689557400526;122.243210981504
318.711180625486;121.596645521692
318.732803850446;120.969271399494
318.754427075407;120.333196609162
318.776050300367;119.694362507002
318.797673525327;119.055011691131
318.819296750287;118.402702449509
318.840919975248;117.733187860288
318.862543200208;117.061324215186
318.884166425168;116.39032776043
318.905789650129;115.711110488098
318.927412875089;115.013225589974
318.949036100049;114.280350502179
318.970659325009;113.515111296269
318.99228254997;112.782383253084
319.01390577493;112.113830331121
319.03552899989;111.487169595089
319.05715222485;110.91909693038
319.078775449811;110.396941302088
319.100398674771;109.917166307024
319.122021899731;109.511325387745
319.143645124691;109.204187470568
319.165268349652;108.982206793346
319.186891574612;108.818526202658
319.208514799572;108.705183183985
319.230138024532;108.645350853657
319.251761249493;108.634239703567
319.273384474453;108.64339318582
319.295007699413;108.650137319386
319.316630924373;108.641442756678
319.338254149334;108.604962861167
319.359877374294;108.510801908735
319.381500599254;108.353287108801
319.403123824215;108.154028450669
319.424747049175;107.905647141083
319.446370274135;107.597861665856
319.467993499095;107.228230525278
319.489616724056;106.79851530858
319.511239949016;106.297253066287
319.532863173976;105.716564244943
319.554486398936;105.112119171413
319.576109623897;104.487310307374
319.597732848857;103.827528329596
319.619356073817;103.128376435509
319.640979298777;102.388641099948
319.662602523738;101.609561707559
319.684225748698;100.816175926026
319.705848973658;100.036377575251
319.727472198618;99.2743377042817
319.749095423579;98.5006429985764
319.770718648539;97.6847602764936
319.792341873499;96.824594348287
319.813965098459;95.9998611869281
319.83558832342;95.2737863940908
319.85721154838;94.6336600068586
319.87883477334;94.0327485139911
319.900457998301;93.4479024676249
319.922081223261;92.8861529571568
319.943704448221;92.369560790073
319.965327673181;91.8858964381497
319.986950898142;91.4360512368896
320.008574123102;91.0191105703285
320.030197348062;90.6210406706084
320.051820573022;90.2302616674704
320.073443797983;89.8526966929424
320.095067022943;89.503450089925
320.116690247903;89.1847134049342
320.138313472863;88.888400119422
320.159936697824;88.6034531939219
320.181559922784;88.3293708478648
320.203183147744;88.0670117595603
320.224806372704;87.8062483963681
320.246429597665;87.5406672209996
320.268052822625;87.2656660861892
320.289676047585;86.9817660383222
320.311299272545;86.6882903676131
320.332922497506;86.3840069625729
320.354545722466;86.0817514634806
320.376168947426;85.7959903017003
320.397792172387;85.52377646793
320.419415397347;85.2632689827042
320.441038622307;85.0168438494603
320.462661847267;84.7882784509187
320.484285072228;84.5872730371137
320.505908297188;84.4235897070719
320.527531522148;84.2922636402396
320.549154747108;84.1883197347236
320.570777972069;84.1103000706334
320.592401197029;84.0567193780261
320.614024421989;84.023476065124
320.635647646949;84.0107526666912
320.65727087191;84.0184347278252
320.67889409687;84.0394687106691
320.70051732183;84.0621164304263
320.72214054679;84.0774282801857
320.743763771751;84.075226437127
320.765386996711;84.0450502035666
320.787010221671;83.9842584981471
320.808633446631;83.8980870659795
320.830256671592;83.7824111842241
320.851879896552;83.6247741774
320.873503121512;83.4262843230949
320.895126346473;83.2120015682242
320.916749571433;83.0209103378327
320.938372796393;82.876835166288
320.959996021353;82.7938676151403
320.981619246314;82.7726758744223
321.003242471274;82.8070156674408
321.024865696234;82.9094656003875
321.046488921194;83.0964108059297
321.068112146155;83.3626315575177
321.089735371115;83.6758378121753
321.111358596075;84.0335027458658
321.132981821035;84.4337516877041
321.154605045996;84.8448022002274
321.176228270956;85.2327001660748
321.197851495916;85.5795428922774
321.219474720876;85.8826235352869
321.241097945837;86.1375971271764
321.262721170797;86.3365667288694
321.284344395757;86.4731030493885
321.305967620717;86.5391337985134
321.327590845678;86.5259615383938
321.349214070638;86.432641086284
321.370837295598;86.2744201723106
321.392460520559;86.067611049639
321.414083745519;85.8131879727576
321.435706970479;85.5124820132362
321.457330195439;85.1814555058867
321.4789534204;84.8360932368954
321.50057664536;84.489105558603
321.52219987032;84.1604854929922
321.54382309528;83.8647112057929
321.565446320241;83.6230408787261
321.587069545201;83.4548962902514
321.608692770161;83.3462561868437
321.630315995121;83.2949296712868
321.651939220082;83.3095184298839
321.673562445042;83.3946886925361
321.695185670002;83.5427316418096
321.716808894962;83.7396670543351
321.738432119923;83.9744901443382
321.760055344883;84.2352890689916
321.781678569843;84.4863073426973
321.803301794803;84.6901570892485
321.824925019764;84.8456113853683
321.846548244724;84.9619397296366
321.868171469684;85.0304924516166
321.889794694645;85.0324309626385
321.911417919605;84.9534605420344
321.933041144565;84.7986159016946
321.954664369525;84.5925666887748
321.976287594486;84.3636673877806
321.997910819446;84.1161906034501
322.019534044406;83.836721729835
322.041157269366;83.548618731969
322.062780494327;83.2798373300509
322.084403719287;83.0262719428664
322.106026944247;82.7901989423742
322.127650169207;82.5888397709487
322.149273394168;82.4341127857597
322.170896619128;82.3178651213289
322.192519844088;82.2276169912894
322.214143069048;82.1594218810915
322.235766294009;82.1157245057315
322.257389518969;82.1042902077552
322.279012743929;82.1211979067115
322.300635968889;82.1559429802684
322.32225919385;82.2077185836063
322.34388241881;82.2796809420666
322.36550564377;82.3668636013283
322.387128868731;82.4641056603422
322.408752093691;82.5751908445918
322.430375318651;82.7063323335669
322.451998543611;82.855654452037
322.473621768572;83.0124638355651
322.495244993532;83.1729915890359
322.516868218492;83.3328492104472
322.538491443452;83.4823011454592
322.560114668413;83.6183120371641
322.581737893373;83.7466823779625
322.603361118333;83.8701790792155
322.624984343293;83.9826252445427
322.646607568254;84.0826018486153
322.668230793214;84.1759213291409
322.689854018174;84.2769334465243
322.711477243134;84.3863130397209
322.733100468095;84.4840735054427
322.754723693055;84.5718399091303
322.776346918015;84.670128556177
322.797970142975;84.7896787914536
322.819593367936;84.9288584294955
322.841216592896;85.0803645729301
322.862839817856;85.2485697299366
322.884463042817;85.4401777798648
322.906086267777;85.6480859772134
322.927709492737;85.8612179761531
322.949332717697;86.0762129062899
322.970955942658;86.2949824743396
322.992579167618;86.5160910767128
323.014202392578;86.7320093475776
323.035825617538;86.9329164185266
323.057448842499;87.1134940578664
323.079072067459;87.2751510406623
323.100695292419;87.4204018089024
323.122318517379;87.5377022764075
323.14394174234;87.6035754783912
323.1655649673;87.6054675167343
323.18718819226;87.5640951863599
323.20881141722;87.4964329123564
323.230434642181;87.3976428200958
323.252057867141;87.2407590443733
323.273681092101;87.0224487663132
323.295304317061;86.7402966647359
323.316927542022;86.4179281850313
323.338550766982;86.0808478178934
323.360173991942;85.7267613608964
323.381797216903;85.3459708229508
323.403420441863;84.9421346872988
323.425043666823;84.5205744241614
323.446666891783;84.094772089178
323.468290116744;83.6785546023934
323.489913341704;83.2656343364171
323.511536566664;82.8756033221209
323.533159791624;82.5256325766623
323.554783016585;82.2096488719797
323.576406241545;81.9248347227349
323.598029466505;81.6767079446145
323.619652691465;81.4718984885572
323.641275916426;81.3116955445124
323.662899141386;81.1909172816416
323.684522366346;81.1046435610074
323.706145591306;81.044338358698
323.727768816267;80.9992511231468
323.749392041227;80.9660287703426
323.771015266187;80.9427888725297
323.792638491148;80.9295392324426
323.814261716108;80.9211107473887
323.835884941068;80.9110508425254
323.857508166028;80.8947732883846
323.879131390989;80.8562691340057
323.900754615949;80.8011751759044
323.922377840909;80.7406694146729
323.944001065869;80.6685426429755
323.96562429083;80.569961660032
323.98724751579;80.4338321869537
324.00887074075;80.2643903504816
324.03049396571;80.0674871638949
324.052117190671;79.8444175068658
324.073740415631;79.6008595860858
324.095363640591;79.3424035960399
324.116986865551;79.0653029869696
324.138610090512;78.7682199228105
324.160233315472;78.461325884576
324.181856540432;78.1555869877292
324.203479765393;77.8779086604651
324.225102990353;77.6485910819085
324.246726215313;77.4685413813535
324.268349440273;77.3318502526498
324.289972665234;77.2370906221179
324.311595890194;77.1841853322814
324.333219115154;77.1698998453787
324.354842340114;77.1935418194668
324.376465565075;77.2586890185558
324.398088790035;77.3756883455362
324.419712014995;77.5347910205795
324.441335239955;77.7144380558834
324.462958464916;77.9054160790645
324.484581689876;78.1109451804246
324.506204914836;78.3283889880567
324.527828139796;78.5537858190473
324.549451364757;78.7785752420164
324.571074589717;78.9920399708289
324.592697814677;79.1819055098719
324.614321039637;79.3438716226992
324.635944264598;79.4797689653332
324.657567489558;79.5858571324339
324.679190714518;79.6456725545157
324.700813939479;79.6523106688635
324.722437164439;79.6130784585813
324.744060389399;79.5400224036103
324.765683614359;79.4420871636419
