Name;ESR_BC_1_29min_Z_gon_0dg_result

Recipe
Accumulations;5;Number of accumulations
RetryCount;0;Number of retries on error
AbortOnError;True;Abort on error
EnableQFactorMeasurement;False;Enable/Disable q-Factor measurement
Bfrom;313;B from
Bto;363;B to
SweepTime;60;Sweep time
Modulation;0.2;Modulation
ModulationFreq;100;Modulation
BHoldEnabled;False;B hold enabled
BHold;0;B hold
MicrowavePower;2;Microwave power
MarkerEnabled;False;
MarkerStartField;0;
MarkerEndField;0;
Mode;;
KineticGFact;0;
KineticTotalTransientTime;0;
KineticTimeResolution;0;
TempFrom;5;
TempUseSlope;False;
TempTo;5;
TempdT;1;
TempSetupTime;0;
GonFrom;0;
GonTo;180;
GonSteps;20;
XRayEnabled;False;
XRayTime;3;
XRayVoltage;40;
XRayCurrent;0.5;
UVEnabled;False;
UVIntensity;0;
UVTime;0;
UVLeadTime;0;
UVWavelength;0;
PowSweepFrom;1;
PowSweepTo;5;
PowSweepSteps;5;
AmpModSweepFrom;0;
AmpModSweepTo;1;
AmpModSweepSteps;10;
ExtTriggerEnabled;False;
ExtTrigLeadTime;0;
ExtTrigOnTime;5;

Meas
BField [mT];MW_Absorption []
313.02542175293;87.6091537152054
313.047045725306;87.7588485769662
313.068669697683;87.9156619324811
313.09029367006;88.0775722916736
313.111917642436;88.2335819391253
313.133541614813;88.3804213715421
313.15516558719;88.5297242131526
313.176789559567;88.6916278355889
313.198413531943;88.8733686622796
313.22003750432;89.0829211956124
313.241661476697;89.3286026364419
313.263285449073;89.6044187348811
313.28490942145;89.8934926892588
313.306533393827;90.1800429109626
313.328157366204;90.4692723140681
313.34978133858;90.7636371612385
313.371405310957;91.0475884186094
313.393029283334;91.302726928012
313.41465325571;91.5238851170002
313.436277228087;91.7071926635753
313.457901200464;91.8462949836369
313.47952517284;91.939084361361
313.501149145217;91.9797120969437
313.522773117594;91.981696070142
313.544397089971;91.9517336428263
313.566021062347;91.8829260510875
313.587645034724;91.7857818505124
313.609269007101;91.6834126056862
313.630892979477;91.5912343868472
313.652516951854;91.5162234237643
313.674140924231;91.4682324873568
313.695764896608;91.4517150379353
313.717388868984;91.4583969887603
313.739012841361;91.4689315638078
313.760636813738;91.4753929110456
313.782260786114;91.4782790173579
313.803884758491;91.4639812491336
313.825508730868;91.4136178083774
313.847132703244;91.3059434491457
313.868756675621;91.1305599067883
313.890380647998;90.8958469494816
313.912004620375;90.6183055525557
313.933628592751;90.3003525282869
313.955252565128;89.9442194899975
313.976876537505;89.5667237115012
313.998500509881;89.1969696037459
314.020124482258;88.8738941189928
314.041748454635;88.6116612522057
314.063372427011;88.4149160089347
314.084996399388;88.2932836617711
314.106620371765;88.2522060615073
314.128244344142;88.2907930334589
314.149868316518;88.4002139979562
314.171492288895;88.5680024852093
314.193116261272;88.7874534078846
314.214740233648;89.0607199302989
314.236364206025;89.3892784065847
314.257988178402;89.7512462749978
314.279612150778;90.1135200214796
314.301236123155;90.4627037456181
314.322860095532;90.7924629152675
314.344484067909;91.0960802995987
314.366108040285;91.3695890995621
314.387732012662;91.6140874513179
314.409355985039;91.8340511333469
314.430979957415;92.0339908886723
314.452603929792;92.2134767259621
314.474227902169;92.3740982321936
314.495851874546;92.5224871301856
314.517475846922;92.6668996943443
314.539099819299;92.8141541369133
314.560723791676;92.9672036770531
314.582347764052;93.1296470335875
314.603971736429;93.3061060481909
314.625595708806;93.4864577869256
314.647219681182;93.6512236282272
314.668843653559;93.7932119969122
314.690467625936;93.9187888334657
314.712091598313;94.0329114712448
314.733715570689;94.1188885461116
314.755339543066;94.1449550961513
314.776963515443;94.0961403050405
314.798587487819;93.9671315027179
314.820211460196;93.7793383051206
314.841835432573;93.5480806893167
314.863459404949;93.2774305786162
314.885083377326;92.9679545511593
314.906707349703;92.6238066222248
314.92833132208;92.2550657308066
314.949955294456;91.8797039175172
314.971579266833;91.5085784966012
314.99320323921;91.1463209100012
315.014827211586;90.7959754879411
315.036451183963;90.4653894088832
315.05807515634;90.1601679438985
315.079699128717;89.8762914390389
315.101323101093;89.6181504783575
315.12294707347;89.3934198854809
315.144571045847;89.1957592220368
315.166195018223;89.012128636241
315.1878189906;88.8259956544622
315.209442962977;88.6170009216964
315.231066935353;88.3818775166654
315.25269090773;88.1306911858931
315.274314880107;87.8512684466286
315.295938852484;87.5293705807538
315.31756282486;87.182430555461
315.339186797237;86.8433803928309
315.360810769614;86.5107574517186
315.38243474199;86.1687951826735
315.404058714367;85.8160575380861
315.425682686744;85.4566928853801
315.447306659121;85.0938815651317
315.468930631497;84.73548221982
315.490554603874;84.3788611743282
315.512178576251;84.0236182393082
315.533802548627;83.6895692274263
315.555426521004;83.3920839350212
315.577050493381;83.1156323709275
315.598674465757;82.8560483869249
315.620298438134;82.6312281107446
315.641922410511;82.461236248977
315.663546382888;82.3474886035024
315.685170355264;82.2982542612793
315.706794327641;82.3370255193732
315.728418300018;82.4592977808443
315.750042272394;82.6306993860942
315.771666244771;82.8512285997822
315.793290217148;83.1193409518873
315.814914189524;83.4352344920891
315.836538161901;83.8032463241
315.858162134278;84.2168180027312
315.879786106655;84.6482817250933
315.901410079031;85.0637787239326
315.923034051408;85.4412902038563
315.944658023785;85.7811220167968
315.966281996161;86.0864958219491
315.987905968538;86.3505938143789
316.009529940915;86.571843275189
316.031153913291;86.7506430657965
316.052777885668;86.8773463177051
316.074401858045;86.9501651115707
316.096025830422;86.979734013589
316.117649802798;86.9698440337439
316.139273775175;86.9273742220673
316.160897747552;86.8666572409163
316.182521719928;86.7965282109234
316.204145692305;86.7169779815074
316.225769664682;86.623872037487
316.247393637059;86.5213502184245
316.269017609435;86.4200105348552
316.290641581812;86.3255426379819
316.312265554189;86.250772850479
316.333889526565;86.2078884919123
316.355513498942;86.2057276503333
316.377137471319;86.2490449611849
316.398761443695;86.3295446703915
316.420385416072;86.4375443504596
316.442009388449;86.5736119648578
316.463633360826;86.7330262417381
316.485257333202;86.9001616445409
316.506881305579;87.0593602501095
316.528505277956;87.1985470780161
316.550129250332;87.2992519985079
316.571753222709;87.3413460387567
316.593377195086;87.3104271573099
316.615001167462;87.1991832353539
316.636625139839;87.0156106036582
316.658249112216;86.7645023131629
316.679873084593;86.4458893781725
316.701497056969;86.0771135297345
316.723121029346;85.6945047150961
316.744745001723;85.3246540345117
316.766368974099;84.9834171067063
316.787992946476;84.6802638020837
316.809616918853;84.4265729090701
316.83124089123;84.2438816091487
316.852864863606;84.1543849561739
316.874488835983;84.1553778482015
316.89611280836;84.2292644122353
316.917736780736;84.3598087100503
316.939360753113;84.5342693476915
316.96098472549;84.7466196414697
316.982608697866;84.9950225915925
317.004232670243;85.2458463449445
317.02585664262;85.4509301103459
317.047480614997;85.5880802332827
317.069104587373;85.6468687797268
317.09072855975;85.5993357619946
317.112352532127;85.4324188312366
317.133976504503;85.1688183008419
317.15560047688;84.8365229226602
317.177224449257;84.4475687759869
317.198848421634;84.0042607187652
317.22047239401;83.5039161729744
317.242096366387;82.9610477255
317.263720338764;82.4103069777159
317.28534431114;81.875264669251
317.306968283517;81.3904858189844
317.328592255894;80.9696049623595
317.35021622827;80.6104404382131
317.371840200647;80.3204727772014
317.393464173024;80.1129242068807
317.415088145401;79.9847394172493
317.436712117777;79.9302772875069
317.458336090154;79.9610291599404
317.479960062531;80.0755134200599
317.501584034907;80.2436657561508
317.523208007284;80.4319651149119
317.544831979661;80.6201303213984
317.566455952037;80.7972546808589
317.588079924414;80.9653998976261
317.609703896791;81.1270047827892
317.631327869168;81.2671703692424
317.652951841544;81.3726160028227
317.674575813921;81.4577222753126
317.696199786298;81.5380971207855
317.717823758674;81.6015817161503
317.739447731051;81.6398272706803
317.761071703428;81.6539354504654
317.782695675804;81.6509266614209
317.804319648181;81.6351361786066
317.825943620558;81.6054802027191
317.847567592935;81.5549088735858
317.869191565311;81.4783794390429
317.890815537688;81.3774219176126
317.912439510065;81.2483175291722
317.934063482441;81.0893353004957
317.955687454818;80.9071453696835
317.977311427195;80.7086253722799
317.998935399572;80.4925633411577
318.020559371948;80.2607697591445
318.042183344325;80.021197473531
318.063807316702;79.7820852315578
318.085431289078;79.5505801948956
318.107055261455;79.3424202686763
318.128679233832;79.1725177781687
318.150303206208;79.0381141954974
318.171927178585;78.9288783028294
318.193551150962;78.8430552257983
318.215175123339;78.7749252132369
318.236799095715;78.7256313362881
318.258423068092;78.710416781107
318.280047040469;78.7266906806185
318.301671012845;78.7565671014579
318.323294985222;78.7965075965085
318.344918957599;78.8513580551277
318.366542929975;78.9188032038648
318.388166902352;78.9901452378661
318.409790874729;79.062865303601
318.431414847106;79.1317682896827
318.453038819482;79.1825706364412
318.474662791859;79.1982568625214
318.496286764236;79.1595657877389
318.517910736612;79.0688627659398
318.539534708989;78.9503231501911
318.561158681366;78.8043292747019
318.582782653743;78.6140127146101
318.604406626119;78.3793866763553
318.626030598496;78.1233591220927
318.647654570873;77.8618080474929
318.669278543249;77.6003278234756
318.690902515626;77.3573569677845
318.712526488003;77.1434276868187
318.734150460379;76.9595396120161
318.755774432756;76.8170696213681
318.777398405133;76.7391167955728
318.79902237751;76.7278383414447
318.820646349886;76.7815634739326
318.842270322263;76.8935216839819
318.86389429464;77.0500444307888
318.885518267016;77.2384930819516
318.907142239393;77.4404945596046
318.92876621177;77.6390100043471
318.950390184147;77.8306061347159
318.972014156523;78.0132136485438
318.9936381289;78.1804676537859
319.015262101277;78.3243625148953
319.036886073653;78.4362695204629
319.05851004603;78.5067143533212
319.080134018407;78.5314467279948
319.101757990783;78.5076000605229
319.12338196316;78.4346236560415
319.145005935537;78.3237499179232
319.166629907914;78.1748973463129
319.18825388029;77.9964747820881
319.209877852667;77.8003380212745
319.231501825044;77.5880827880977
319.25312579742;77.3585961103862
319.274749769797;77.1156293565962
319.296373742174;76.8859569571309
319.31799771455;76.6754215811216
319.339621686927;76.4864720328102
319.361245659304;76.3212372862198
319.382869631681;76.1783836147264
319.404493604057;76.0515653319345
319.426117576434;75.9285323674929
319.447741548811;75.7987365921975
319.469365521187;75.665734649392
319.490989493564;75.5380754451093
319.512613465941;75.4211224684078
319.534237438317;75.3145039352593
319.555861410694;75.2158382463219
319.577485383071;75.1270367758729
319.599109355448;75.0517745678235
319.620733327824;74.992296523785
319.642357300201;74.9538156503861
319.663981272578;74.9424543010948
319.685605244954;74.9594584012243
319.707229217331;74.9959519032499
319.728853189708;75.0467751899186
319.750477162085;75.113144080312
319.772101134461;75.1917671582209
319.793725106838;75.2750223570162
319.815349079215;75.3623534456876
319.836973051591;75.4561463949426
319.858597023968;75.561999695472
319.880220996345;75.6818350250715
319.901844968721;75.8154222247178
319.923468941098;75.9631916183019
319.945092913475;76.1306364986559
319.966716885852;76.3214222426748
319.988340858228;76.5275160658914
320.009964830605;76.7328819854903
320.031588802982;76.9388790596226
320.053212775358;77.1407412020139
320.074836747735;77.3156033902652
320.096460720112;77.4530084509774
320.118084692488;77.5540452825211
320.139708664865;77.6043099054878
320.161332637242;77.5956449301983
320.182956609619;77.5329463223849
320.204580581995;77.4252585536579
320.226204554372;77.28407117216
320.247828526749;77.1281633999737
320.269452499125;76.9735396343329
320.291076471502;76.8290762668975
320.312700443879;76.6901312642198
320.334324416256;76.5685463330731
320.355948388632;76.4842177899043
320.377572361009;76.4524638692163
320.399196333386;76.4828317512711
320.420820305762;76.5800790923932
320.442444278139;76.746870914816
320.464068250516;76.9696736084413
320.485692222892;77.2276228437715
320.507316195269;77.5108508586606
320.528940167646;77.8116900460784
320.550564140023;78.1189902081213
320.572188112399;78.420258916578
320.593812084776;78.7079798587501
320.615436057153;78.9799005005619
320.637060029529;79.229149976393
320.658684001906;79.4415207868668
320.680307974283;79.6092696757815
320.70193194666;79.7299093878945
320.723555919036;79.7979096313933
320.745179891413;79.8045799073955
320.76680386379;79.7453480608675
320.788427836166;79.6230599215073
320.810051808543;79.4534149535871
320.83167578092;79.2441874792562
320.853299753296;78.994724364274
320.874923725673;78.7107503439815
320.89654769805;78.4124207703579
320.918171670427;78.1192902507284
320.939795642803;77.8426236949308
320.96141961518;77.59416675814
320.983043587557;77.3872233214837
321.004667559933;77.2252089177822
321.02629153231;77.1032219474455
321.047915504687;77.0183441553503
321.069539477063;76.9729033818199
321.09116344944;76.9520906392164
321.112787421817;76.9424709566394
321.134411394194;76.9360771236452
321.15603536657;76.9233835063346
321.177659338947;76.896869524418
321.199283311324;76.8470009928742
321.2209072837;76.7687093300221
321.242531256077;76.6602614531936
321.264155228454;76.5127049988461
321.28577920083;76.317475896639
321.307403173207;76.0707803389471
321.329027145584;75.7902761815665
321.350651117961;75.4825596713651
321.372275090337;75.1306713533637
321.393899062714;74.71421694775
321.415523035091;74.2352024839264
321.437147007467;73.7007071117145
321.458770979844;73.0832553065993
321.480394952221;72.3536007803667
321.502018924598;71.5368990173114
321.523642896974;70.6893252312989
321.545266869351;69.8470345974844
321.566890841728;69.0119756643796
321.588514814104;68.1706691580515
321.610138786481;67.3338479516394
321.631762758858;66.5262702509175
321.653386731234;65.7513332815045
321.675010703611;65.0014645540109
321.696634675988;64.2766596183577
321.718258648365;63.6064312596131
321.739882620741;63.0179911359114
321.761506593118;62.5035144344435
321.783130565495;62.0575991968819
321.804754537871;61.6939840750697
321.826378510248;61.424863220986
321.848002482625;61.2480038467162
321.869626455001;61.162562812984
321.891250427378;61.1543062547524
321.912874399755;61.2044262935024
321.934498372132;61.3033749061869
321.956122344508;61.4530169303566
321.977746316885;61.6488694356077
321.999370289262;61.8748434756383
322.020994261638;62.1233422743716
322.042618234015;62.3962788668981
322.064242206392;62.6959730992312
322.085866178769;63.0184623762514
322.107490151145;63.3514517435203
322.129114123522;63.6732786452063
322.150738095899;63.9598575393776
322.172362068275;64.20555684723
322.193986040652;64.4172011971212
322.215610013029;64.5914751421147
322.237233985405;64.7196827115848
322.258857957782;64.7940024987385
322.280481930159;64.8030426774331
322.302105902536;64.7446121816172
322.323729874912;64.6383626351941
322.345353847289;64.5011312444626
322.366977819666;64.3366304080577
322.388601792042;64.1473131557062
322.410225764419;63.9384571450576
322.431849736796;63.7185663318429
322.453473709173;63.4965380368248
322.475097681549;63.2773368727417
322.496721653926;63.0696144878143
322.518345626303;62.8816784358437
322.539969598679;62.7104938934641
322.561593571056;62.5597442215591
322.583217543433;62.421487248558
322.604841515809;62.2802292390754
322.626465488186;62.1389940306311
322.648089460563;62.0068538327122
322.66971343294;61.8825605099741
322.691337405316;61.7574083189856
322.712961377693;61.6310776671015
322.73458535007;61.5029202837646
322.756209322446;61.3734339629297
322.777833294823;61.2451509001183
322.7994572672;61.1144380763104
322.821081239576;60.9806722462106
322.842705211953;60.8561043532225
322.86432918433;60.7529161509294
322.885953156707;60.6726745835056
322.907577129083;60.6111069206221
322.92920110146;60.5640276084021
322.950825073837;60.5253451859647
322.972449046213;60.4785636258289
322.99407301859;60.4136756575334
323.015696990967;60.3306205456142
323.037320963344;60.2304523158089
323.05894493572;60.101147096105
323.080568908097;59.9326358153602
323.102192880474;59.7354709264627
323.12381685285;59.5166491655388
323.145440825227;59.2692144909218
323.167064797604;58.9951018440937
323.18868876998;58.7064529028596
323.210312742357;58.4100490811097
323.231936714734;58.1038603643997
323.253560687111;57.7913842464624
323.275184659487;57.4985021716933
323.296808631864;57.2361691436422
323.318432604241;56.9993124904121
323.340056576617;56.7876189216536
323.361680548994;56.5991626747424
323.383304521371;56.4310530487836
323.404928493747;56.2784674040947
323.426552466124;56.1302116160459
323.448176438501;55.9720383729806
323.469800410878;55.8107198687705
323.491424383254;55.6771349504733
323.513048355631;55.5696183646389
323.534672328008;55.4794279720532
323.556296300384;55.4072747443093
323.577920272761;55.3548487531027
323.599544245138;55.3276093243746
323.621168217514;55.3346420761227
323.642792189891;55.3717193023229
323.664416162268;55.4321565980302
323.686040134645;55.5145919991443
323.707664107021;55.6149403146124
323.729288079398;55.7276861431223
323.750912051775;55.8541332737063
323.772536024151;55.99936612807
323.794159996528;56.1654571110217
323.815783968905;56.3452423731504
323.837407941282;56.5315868046303
323.859031913658;56.7234156619736
323.880655886035;56.9230555925003
323.902279858412;57.1228768733969
323.923903830788;57.3100091383092
323.945527803165;57.4910803592946
323.967151775542;57.6677298782
323.988775747918;57.8321699654829
324.010399720295;57.990744164528
324.032023692672;58.1523300271669
324.053647665049;58.3195631734537
324.075271637425;58.491219841638
324.096895609802;58.6626222833437
324.118519582179;58.8299857521222
324.140143554555;58.9926556826392
324.161767526932;59.1534074899977
324.183391499309;59.3151258639575
324.205015471686;59.4808679618228
324.226639444062;59.6543319945058
324.248263416439;59.8376180315023
324.269887388816;60.0290882033727
324.291511361192;60.2201201714498
324.313135333569;60.4031598636648
324.334759305946;60.5704966225853
324.356383278322;60.7134939672531
324.378007250699;60.8271114156556
324.399631223076;60.917067939653
324.421255195453;60.9910620422853
324.442879167829;61.040728536482
324.464503140206;61.0442574427264
324.486127112583;61.0100161188663
324.507751084959;60.945677997284
324.529375057336;60.8464088157401
324.550999029713;60.7095142631246
324.572623002089;60.5418777490329
324.594246974466;60.3351140307168
324.615870946843;60.066203084252
324.63749491922;59.7610262846098
324.659118891596;59.4497077475209
324.680742863973;59.1331338532459
324.70236683635;58.7997583962107
324.723990808726;58.4433293684726
324.745614781103;58.0682493457293
324.76723875348;57.6809957201968
