Name;ESR_BC_1_359s_Y_gon_140dg_result

Recipe
Accumulations;5;Number of accumulations
RetryCount;0;Number of retries on error
AbortOnError;True;Abort on error
EnableQFactorMeasurement;False;Enable/Disable q-Factor measurement
Bfrom;313;B from
Bto;363;B to
SweepTime;60;Sweep time
Modulation;0.2;Modulation
ModulationFreq;100;Modulation
BHoldEnabled;False;B hold enabled
BHold;0;B hold
MicrowavePower;2;Microwave power
MarkerEnabled;False;
MarkerStartField;0;
MarkerEndField;0;
Mode;;
KineticGFact;0;
KineticTotalTransientTime;0;
KineticTimeResolution;0;
TempFrom;5;
TempUseSlope;False;
TempTo;5;
TempdT;1;
TempSetupTime;0;
GonFrom;0;
GonTo;180;
GonSteps;20;
XRayEnabled;False;
XRayTime;3;
XRayVoltage;40;
XRayCurrent;0.5;
UVEnabled;False;
UVIntensity;0;
UVTime;0;
UVLeadTime;0;
UVWavelength;0;
PowSweepFrom;1;
PowSweepTo;5;
PowSweepSteps;5;
AmpModSweepFrom;0;
AmpModSweepTo;1;
AmpModSweepSteps;10;
ExtTriggerEnabled;False;
ExtTrigLeadTime;0;
ExtTrigOnTime;5;

Meas
BField [mT];MW_Absorption []
313.02297454834;170.005057605892
313.044597424594;169.407489610469
313.066220300848;168.744914563357
313.087843177102;168.014889519543
313.109466053356;167.21569438226
313.13108892961;166.332230429724
313.152711805864;165.351199142289
313.174334682118;164.307827529662
313.195957558372;163.315650260655
313.217580434626;162.399762693182
313.23920331088;161.522216490883
313.260826187134;160.677313193944
313.282449063388;159.90357758908
313.304071939642;159.233289757318
313.325694815896;158.671355262613
313.34731769215;158.204815358538
313.368940568404;157.830642835319
313.390563444658;157.552982631416
313.412186320912;157.365655086149
313.433809197166;157.260514585766
313.45543207342;157.242706260533
313.477054949674;157.295911629503
313.498677825928;157.391801354613
313.520300702182;157.509787148487
313.541923578436;157.641632888584
313.56354645469;157.778414205957
313.585169330944;157.907742545059
313.606792207198;158.025095837492
313.628415083452;158.132694397732
313.650037959706;158.223272925562
313.67166083596;158.278217378886
313.693283712214;158.28631361875
313.714906588468;158.252972804154
313.736529464722;158.183782018404
313.758152340976;158.080023600245
313.77977521723;157.93388174367
313.801398093484;157.741606332198
313.823020969738;157.503428643855
313.844643845992;157.222847087031
313.866266722246;156.896142989977
313.8878895985;156.526693964413
313.909512474754;156.140946306873
313.931135351008;155.742120918301
313.952758227262;155.300199643107
313.974381103516;154.782317669498
313.99600397977;154.224209564333
314.017626856024;153.674594606782
314.039249732278;153.141977097261
314.060872608532;152.626713304286
314.082495484786;152.129991416004
314.10411836104;151.658360821047
314.125741237294;151.240114950577
314.147364113548;150.910413094939
314.168986989802;150.654218953594
314.190609866056;150.453451672409
314.21223274231;150.309588804178
314.233855618564;150.248548099248
314.255478494818;150.287420087054
314.277101371072;150.393785554448
314.298724247326;150.521629023197
314.32034712358;150.663535488226
314.341969999834;150.816411324528
314.363592876088;150.966792285606
314.385215752342;151.100772917781
314.406838628596;151.209846687619
314.42846150485;151.286348777666
314.450084381104;151.32681879216
314.471707257358;151.326948109701
314.493330133611;151.282884188648
314.514953009866;151.203206755514
314.53657588612;151.086925766493
314.558198762373;150.937357048643
314.579821638627;150.762171219226
314.601444514882;150.582200550691
314.623067391135;150.412758023117
314.644690267389;150.248599776272
314.666313143643;150.082265479276
314.687936019897;149.917477065783
314.709558896151;149.756558328013
314.731181772405;149.595120929939
314.752804648659;149.42708321122
314.774427524913;149.248337088106
314.796050401167;149.062852465657
314.817673277421;148.868375235958
314.839296153675;148.655707678796
314.860919029929;148.423459797437
314.882541906183;148.17227037267
314.904164782437;147.899214347112
314.925787658691;147.605926618562
314.947410534945;147.29978324663
314.969033411199;146.992278404898
314.990656287453;146.682892164734
315.012279163707;146.36769828872
315.033902039961;146.058205205141
315.055524916215;145.775134772102
315.077147792469;145.523415385086
315.098770668723;145.295843318829
315.120393544977;145.078305501088
315.142016421231;144.870396794168
315.163639297485;144.678482913388
315.185262173739;144.495554808246
315.206885049993;144.303694017243
315.228507926247;144.094356934668
315.250130802501;143.87745246088
315.271753678755;143.650766337427
315.293376555009;143.399221874284
315.314999431263;143.120595003441
315.336622307517;142.81936448495
315.358245183771;142.5018267234
315.379868060025;142.1710587592
315.401490936279;141.826406884657
315.423113812533;141.484079785526
315.444736688787;141.173777582419
315.466359565041;140.894571908404
315.487982441295;140.638701091837
315.509605317549;140.401728254691
315.531228193803;140.183486491287
315.552851070057;139.9937538775
315.574473946311;139.841833608723
315.596096822565;139.713732042281
315.617719698819;139.594765848571
315.639342575073;139.480788581866
315.660965451327;139.367636339381
315.682588327581;139.247512149594
315.704211203835;139.114546577355
315.725834080089;138.971581643739
315.747456956343;138.82343849009
315.769079832597;138.681394580848
315.790702708851;138.553200273322
315.812325585105;138.442030888104
315.833948461359;138.348420270216
315.855571337613;138.271157462751
315.877194213867;138.204721577285
315.898817090121;138.141252053964
315.920439966375;138.078804757676
315.942062842629;138.015536354153
315.963685718883;137.94300432481
315.985308595137;137.85597926086
316.006931471391;137.754481203449
316.028554347645;137.638486406818
316.050177223899;137.508625368687
316.071800100153;137.358628884966
316.093422976407;137.188304716216
316.115045852661;137.024742403313
316.136668728915;136.88715075128
316.158291605169;136.778123614106
316.179914481423;136.698736385881
316.201537357677;136.657261532211
316.223160233931;136.661118485759
316.244783110185;136.706592081278
316.266405986439;136.790657708793
316.288028862693;136.912307865948
316.309651738947;137.063254730885
316.331274615201;137.214362886334
316.352897491455;137.359368885746
316.374520367709;137.503340298215
316.396143243963;137.639355576398
316.417766120217;137.750738327326
316.439388996471;137.821154992633
316.461011872725;137.844235007324
316.482634748979;137.812928157897
316.504257625233;137.712398477181
316.525880501487;137.539905968708
316.547503377741;137.296786251932
316.569126253995;137.00451170685
316.590749130249;136.676416432246
316.612372006503;136.316468908962
316.633994882757;135.93531224037
316.655617759011;135.543847630554
316.677240635265;135.160291016314
316.698863511519;134.807060852333
316.720486387773;134.498074704568
316.742109264027;134.251990323049
316.763732140281;134.075656499255
316.785355016535;133.965062253582
316.806977892789;133.918340079145
316.828600769043;133.935780555946
316.850223645297;133.998742912749
316.871846521551;134.087004446895
316.893469397805;134.187256459058
316.915092274059;134.288301509682
316.936715150313;134.374041525126
316.958338026567;134.423916783558
316.979960902821;134.434701450423
317.001583779075;134.407021212148
317.023206655329;134.339481162188
317.044829531583;134.244018363217
317.066452407837;134.129240600287
317.088075284091;133.994461012295
317.109698160345;133.847746181639
317.131321036599;133.709267008867
317.152943912853;133.580793781709
317.174566789107;133.448953317363
317.196189665361;133.317246471892
317.217812541615;133.193313991704
317.239435417869;133.072392262701
317.261058294123;132.952100938114
317.282681170377;132.830166581185
317.304304046631;132.697291962866
317.325926922885;132.550287557664
317.347549799139;132.395025228989
317.369172675393;132.237163321353
317.390795551647;132.075360080874
317.412418427901;131.909406691651
317.434041304155;131.738484891923
317.455664180409;131.562298024778
317.477287056663;131.382302449645
317.498909932917;131.207778616701
317.520532809171;131.047052439419
317.542155685425;130.899963694344
317.563778561679;130.761437747712
317.585401437933;130.625541979729
317.607024314187;130.491941377765
317.628647190441;130.368314961902
317.650270066695;130.257906911621
317.671892942949;130.155208451801
317.693515819203;130.057960568469
317.715138695457;129.975931287859
317.736761571711;129.915596344317
317.758384447965;129.869547361217
317.780007324219;129.830036587771
317.801630200473;129.801702812664
317.823253076727;129.795430903767
317.844875952981;129.823393141182
317.866498829235;129.881026120218
317.888121705489;129.947753112348
317.909744581743;130.012084948746
317.931367457997;130.071418091495
317.952990334251;130.125527314096
317.974613210505;130.169008460023
317.996236086759;130.190867887743
318.017858963013;130.187316020919
318.039481839267;130.159879166667
318.061104715521;130.105014869508
318.082727591775;130.023781248835
318.104350468029;129.921953071795
318.125973344283;129.79896187806
318.147596220537;129.651018969176
318.169219096791;129.477820478046
318.190841973045;129.281666751686
318.212464849299;129.061934685778
318.234087725553;128.82075256358
318.255710601807;128.56482185457
318.277333478061;128.30166610761
318.298956354315;128.03624528177
318.320579230569;127.779650654994
318.342202106823;127.542746903174
318.363824983077;127.320235622067
318.385447859331;127.108238591179
318.407070735585;126.905319395617
318.428693611839;126.716377660906
318.450316488093;126.552791567836
318.471939364347;126.41658884078
318.493562240601;126.299203969241
318.515185116855;126.191433708199
318.536807993109;126.084660226072
318.558430869363;125.966762714602
318.580053745617;125.821701024837
318.601676621871;125.641740041727
318.623299498125;125.428920522929
318.644922374379;125.166803467982
318.666545250633;124.837668339284
318.688168126887;124.439711824062
318.709791003141;123.985425458287
318.731413879395;123.476336423782
318.753036755649;122.931698101224
318.774659631903;122.376353727333
318.796282508157;121.820436921044
318.81790538441;121.263725249534
318.839528260665;120.724200126006
318.861151136919;120.236311221136
318.882774013172;119.833317318174
318.904396889426;119.503296871868
318.926019765681;119.249178822199
318.947642641934;119.079249774723
318.969265518188;118.980969836118
318.990888394442;118.920931265525
319.012511270696;118.880004477946
319.03413414695;118.852333615862
319.055757023204;118.835214870432
319.077379899458;118.826226065391
319.099002775712;118.823835495232
319.120625651966;118.825883054312
319.14224852822;118.83124872715
319.163871404474;118.846097947835
319.185494280728;118.881907143815
319.207117156982;118.941940927443
319.228740033236;119.027131345736
319.25036290949;119.145086214799
319.271985785744;119.302414603689
319.293608661998;119.480583712573
319.315231538252;119.668584315523
319.336854414506;119.866470140369
319.35847729076;120.073954590776
319.380100167014;120.28558018493
319.401723043268;120.499478819314
319.423345919522;120.709780608738
319.444968795776;120.888383396191
319.46659167203;121.013997929083
319.488214548284;121.093562356129
319.509837424538;121.133272593151
319.531460300792;121.133348654033
319.553083177046;121.091631838359
319.5747060533;121.005541656396
319.596328929554;120.88157919393
319.617951805808;120.730201445979
319.639574682062;120.548287075833
319.661197558316;120.338137870977
319.68282043457;120.111768773923
319.704443310824;119.863455136515
319.726066187078;119.588111972134
319.747689063332;119.301857218929
319.769311939586;119.027033222303
319.79093481584;118.766701091192
319.812557692094;118.526262886027
319.834180568348;118.309034955532
319.855803444602;118.125489742364
319.877426320856;117.983127467006
319.89904919711;117.87426443445
319.920672073364;117.792393641927
319.942294949618;117.741707349659
319.963917825872;117.725031891197
319.985540702126;117.734078120501
320.00716357838;117.75529961609
320.028786454634;117.771213876747
320.050409330888;117.770284016977
320.072032207142;117.743653467367
320.093655083396;117.685012629393
320.11527795965;117.591878271356
320.136900835904;117.468673488477
320.158523712158;117.321750148682
320.180146588412;117.157083215777
320.201769464666;116.982292442953
320.22339234092;116.802820625942
320.245015217174;116.626179719234
320.266638093428;116.465469167646
320.288260969682;116.325501233696
320.309883845936;116.203281696757
320.33150672219;116.096767124863
320.353129598444;116.008508009885
320.374752474698;115.941812107802
320.396375350952;115.897056516893
320.417998227206;115.872692819019
320.43962110346;115.869534254935
320.461243979714;115.891530969804
320.482866855968;115.942467637618
320.504489732222;116.022420694759
320.526112608476;116.130168570464
320.54773548473;116.264469238061
320.569358360984;116.423460317236
320.590981237238;116.602319171245
320.612604113492;116.78067666845
320.634226989746;116.945872458204
320.655849866;117.106059863315
320.677472742254;117.263965100155
320.699095618508;117.414018335457
320.720718494762;117.554110024897
320.742341371016;117.6858378363
320.76396424727;117.814822236859
320.785587123524;117.950220422664
320.807209999778;118.100950530653
320.828832876032;118.270987631882
320.850455752286;118.454240670721
320.87207862854;118.636908230305
320.893701504794;118.823723119702
320.915324381048;119.015722501947
320.936947257302;119.208930979603
320.958570133556;119.392637391771
320.98019300981;119.5651424881
321.001815886064;119.726531912131
321.023438762318;119.871172522388
321.045061638572;119.993361633541
321.066684514826;120.087576020439
321.08830739108;120.149500145903
321.109930267334;120.181392076935
321.131553143588;120.192219653205
321.153176019842;120.186353818987
321.174798896096;120.164670447735
321.19642177235;120.130981827982
321.218044648604;120.088681834844
321.239667524858;120.041457931226
321.261290401112;119.993850634158
321.282913277366;119.948501493826
321.30453615362;119.903291672203
321.326159029874;119.857663972811
321.347781906128;119.812344331483
321.369404782382;119.75724473925
321.391027658636;119.681923587531
321.41265053489;119.578528067033
321.434273411144;119.4366922793
321.455896287398;119.240150143962
321.477519163652;118.977022064847
321.499142039906;118.647081051254
321.52076491616;118.26571244478
321.542387792414;117.841896859761
321.564010668668;117.364930572038
321.585633544922;116.829558502856
321.607256421176;116.271999073497
321.62887929743;115.730327785264
321.650502173684;115.211904253743
321.672125049938;114.708863884587
321.693747926192;114.219665394513
321.715370802446;113.745798379766
321.7369936787;113.284157532583
321.758616554954;112.84544655672
321.780239431208;112.444112288618
321.801862307462;112.082556940938
321.823485183716;111.752106572437
321.84510805997;111.428514761378
321.866730936224;111.082721118483
321.888353812478;110.714464869806
321.909976688732;110.342005225834
321.931599564986;109.961084967567
321.95322244124;109.554221070221
321.974845317494;109.104081781404
321.996468193748;108.614396596483
322.018091070002;108.100163119518
322.039713946256;107.56455781843
322.06133682251;107.02131818553
322.082959698764;106.469473905345
322.104582575018;105.911715995374
322.126205451272;105.362789753452
322.147828327526;104.819606694788
322.16945120378;104.288663178904
322.191074080034;103.790158704529
322.212696956288;103.345194475409
322.234319832542;102.951839760961
322.255942708796;102.596582907692
322.27756558505;102.275365901655
322.299188461304;101.995213616525
322.320811337558;101.770330352479
322.342434213812;101.610836211711
322.364057090066;101.513245743992
322.38567996632;101.471725988811
322.407302842574;101.482130950172
322.428925718828;101.542413173689
322.450548595082;101.647090048088
322.472171471336;101.797672066799
322.49379434759;101.997187803901
322.515417223844;102.233099553868
322.537040100098;102.494320762792
322.558662976352;102.768688983482
322.580285852606;103.045082205377
322.60190872886;103.330803554182
322.623531605114;103.623273939362
322.645154481368;103.907889535172
322.666777357622;104.171023687152
322.688400233876;104.395419322873
322.71002311013;104.571235517605
322.731645986384;104.704385047671
322.753268862638;104.799334984583
322.774891738892;104.858210866302
322.796514615146;104.890788143524
322.8181374914;104.903314747862
322.839760367654;104.894962761699
322.861383243908;104.872023583437
322.883006120162;104.842692150998
322.904628996416;104.80939772956
322.92625187267;104.772173069784
322.947874748924;104.736322329153
322.969497625178;104.711551156255
322.991120501432;104.693945329724
323.012743377686;104.678847497724
323.03436625394;104.667837348945
323.055989130194;104.664765984484
323.077612006448;104.664701590203
323.099234882702;104.665736377846
323.120857758956;104.669742776869
323.142480635209;104.675857959401
323.164103511464;104.680815085539
323.185726387718;104.680116485165
323.207349263971;104.66963776242
323.228972140225;104.644004028509
323.25059501648;104.592380919799
323.272217892733;104.508090354412
323.293840768987;104.394379031862
323.315463645241;104.250076344421
323.337086521495;104.065259084511
323.358709397749;103.831557136782
323.380332274003;103.552242413346
323.401955150257;103.238821849266
323.423578026511;102.897990008697
323.445200902765;102.525954357081
323.466823779019;102.111753216029
323.488446655273;101.642123963026
323.510069531527;101.137682013836
323.531692407781;100.652515009096
323.553315284035;100.200287512903
323.574938160289;99.7737000546524
323.596561036543;99.3590581116356
323.618183912797;98.9451663794279
323.639806789051;98.5525194239601
323.661429665305;98.2099073524435
323.683052541559;97.9153966284764
323.704675417813;97.649989401549
323.726298294067;97.4131203886792
323.747921170321;97.2055497168425
323.769544046575;97.0241607564743
323.791166922829;96.8605920790557
323.812789799083;96.7034941488864
323.834412675337;96.5405368509189
323.856035551591;96.3664787387943
323.877658427845;96.1808328647908
323.899281304099;95.9827011842961
323.920904180353;95.7666684471522
323.942527056607;95.5231744370175
323.964149932861;95.233391605905
323.985772809115;94.8870144090636
324.007395685369;94.5199812522556
324.029018561623;94.1502789906806
324.050641437877;93.7686113695462
324.072264314131;93.3613729898254
324.093887190385;92.9269220085456
324.115510066639;92.4845542668646
324.137132942893;92.0652613269344
324.158755819147;91.6738279202855
324.180378695401;91.2935289634256
324.202001571655;90.9138543540229
324.223624447909;90.5437396016016
324.245247324163;90.1943081394518
324.266870200417;89.8682649226469
324.288493076671;89.5730035993063
324.310115952925;89.3104832612767
324.331738829179;89.0643890514836
324.353361705433;88.8182784496235
324.374984581687;88.5694253340653
324.396607457941;88.3216437960281
324.418230334195;88.0758964518432
324.439853210449;87.8311422237206
324.461476086703;87.5906396262898
324.483098962957;87.3532545963359
324.504721839211;87.122634681668
324.526344715465;86.9031619184746
324.547967591719;86.6938276962647
324.569590467973;86.498261596245
324.591213344227;86.3318529872168
324.612836220481;86.2040844308678
324.634459096735;86.1135042339183
324.656081972989;86.0568343910371
324.677704849243;86.0356309034593
324.699327725497;86.0466278272676
324.720950601751;86.0865859811991
324.742573478005;86.1537176279944
324.764196354259;86.2393012914632
