Name;ESR_BC_1_840s_Z_gon_140dg_result

Recipe
Accumulations;5;Number of accumulations
RetryCount;0;Number of retries on error
AbortOnError;True;Abort on error
EnableQFactorMeasurement;False;Enable/Disable q-Factor measurement
Bfrom;313;B from
Bto;363;B to
SweepTime;60;Sweep time
Modulation;0.2;Modulation
ModulationFreq;100;Modulation
BHoldEnabled;False;B hold enabled
BHold;0;B hold
MicrowavePower;2;Microwave power
MarkerEnabled;False;
MarkerStartField;0;
MarkerEndField;0;
Mode;;
KineticGFact;0;
KineticTotalTransientTime;0;
KineticTimeResolution;0;
TempFrom;5;
TempUseSlope;False;
TempTo;5;
TempdT;1;
TempSetupTime;0;
GonFrom;0;
GonTo;180;
GonSteps;20;
XRayEnabled;False;
XRayTime;3;
XRayVoltage;40;
XRayCurrent;0.5;
UVEnabled;False;
UVIntensity;0;
UVTime;0;
UVLeadTime;0;
UVWavelength;0;
PowSweepFrom;1;
PowSweepTo;5;
PowSweepSteps;5;
AmpModSweepFrom;0;
AmpModSweepTo;1;
AmpModSweepSteps;10;
ExtTriggerEnabled;False;
ExtTrigLeadTime;0;
ExtTrigOnTime;5;

Meas
BField [mT];MW_Absorption []
313.019106140137;87.6724417345354
313.040728041909;87.4298084309282
313.062349943681;86.6083206441215
313.083971845453;85.5987157515939
313.105593747226;84.6811398570932
313.127215648998;83.8936169479832
313.14883755077;83.2276684958666
313.170459452542;82.6698785607364
313.192081354315;82.2462574749618
313.213703256087;81.9672417947841
313.235325157859;81.8173071557353
313.256947059631;81.7869172397231
313.278568961404;81.8721413048703
313.300190863176;82.0582002571557
313.321812764948;82.2936350485353
313.34343466672;82.5437696321316
313.365056568493;82.8031017063229
313.386678470265;83.0680451247184
313.408300372037;83.3333048578859
313.429922273809;83.597302092122
313.451544175581;83.8438520938283
313.473166077354;84.0490559895047
313.494787979126;84.2103207792257
313.516409880898;84.3372673654488
313.53803178267;84.4319518682083
313.559653684443;84.4875113736521
313.581275586215;84.5064046587312
313.602897487987;84.4911653589055
313.624519389759;84.439725347305
313.646141291532;84.3558492544472
313.667763193304;84.2545333700817
313.689385095076;84.1445457136482
313.711006996848;84.0274816102466
313.732628898621;83.9057895528635
313.754250800393;83.7829109114162
313.775872702165;83.6596079191401
313.797494603937;83.5441218771328
313.81911650571;83.4527509172404
313.840738407482;83.3876106355452
313.862360309254;83.3442053735169
313.883982211026;83.323336494292
313.905604112799;83.3196858928766
313.927226014571;83.3252236730384
313.948847916343;83.3371618686007
313.970469818115;83.3515614072819
313.992091719887;83.3602365551699
314.01371362166;83.3573209826702
314.035335523432;83.3389907009823
314.056957425204;83.3023484707694
314.078579326976;83.2391507069077
314.100201228749;83.1390970635479
314.121823130521;83.0092970624764
314.143445032293;82.8678629895507
314.165066934065;82.721657680169
314.186688835838;82.5797203732312
314.20831073761;82.4454541965289
314.229932639382;82.3114567167029
314.251554541154;82.1754839913163
314.273176442927;82.0522866718194
314.294798344699;81.9580690660033
314.316420246471;81.8929140803057
314.338042148243;81.8534779575022
314.359664050016;81.8338469023094
314.381285951788;81.8259810939817
314.40290785356;81.8247049106041
314.424529755332;81.8274269062165
314.446151657105;81.8329472834631
314.467773558877;81.8399266312753
314.489395460649;81.8453594620058
314.511017362421;81.8503454076288
314.532639264193;81.8635337540707
314.554261165966;81.8905122551465
314.575883067738;81.9344497612166
314.59750496951;82.0031886915002
314.619126871282;82.101168909368
314.640748773055;82.2156423645981
314.662370674827;82.3383672535869
314.683992576599;82.4780624780053
314.705614478371;82.6393971203801
314.727236380144;82.8175692664027
314.748858281916;83.0003135424508
314.770480183688;83.1805831461825
314.79210208546;83.3604725363369
314.813723987233;83.5297189908162
314.835345889005;83.674819216406
314.856967790777;83.7966325482991
314.878589692549;83.9018137495968
314.900211594321;83.9944306309034
314.921833496094;84.0731307698912
314.943455397866;84.132693011534
314.965077299638;84.1726870494559
314.98669920141;84.2045729053569
315.008321103183;84.2384805350819
315.029943004955;84.2681223652616
315.051564906727;84.2876194942615
315.073186808499;84.2996966445806
315.094808710272;84.3089590919938
315.116430612044;84.3169386282077
315.138052513816;84.3316012524662
315.159674415588;84.3554528313703
315.181296317361;84.38546734051
315.202918219133;84.4200063065942
315.224540120905;84.4582052500669
315.246162022677;84.4961790840894
315.26778392445;84.5261503132437
315.289405826222;84.5390368877856
315.311027727994;84.5348653023655
315.332649629766;84.5167296331311
315.354271531539;84.4827846821591
315.375893433311;84.4372685780185
315.397515335083;84.3853776014782
315.419137236855;84.3286428924432
315.440759138627;84.2799486527694
315.4623810404;84.2560793946658
315.484002942172;84.2622362022327
315.505624843944;84.2818954366632
315.527246745716;84.3009160631351
315.548868647489;84.3213548866461
315.570490549261;84.3338509262197
315.592112451033;84.3232010465104
315.613734352805;84.2774514248317
315.635356254578;84.1962932241839
315.65697815635;84.0826498879509
315.678600058122;83.9280268572976
315.700221959894;83.7245579699348
315.721843861667;83.4841732694555
315.743465763439;83.2218084755822
315.765087665211;82.9349698837695
315.786709566983;82.6320720896154
315.808331468756;82.3315487671057
315.829953370528;82.0466639288022
315.8515752723;81.7924594639469
315.873197174072;81.5759912088795
315.894819075845;81.3954163094377
315.916440977617;81.2488492096647
315.938062879389;81.1412043348521
315.959684781161;81.0703650518562
315.981306682933;81.0273775184858
316.002928584706;81.0060326033244
316.024550486478;81.007849601019
316.04617238825;81.0189123505556
316.067794290022;81.0201243812338
316.089416191795;81.0065405516997
316.111038093567;80.9765985050334
316.132659995339;80.9274515157103
316.154281897111;80.85273984481
316.175903798884;80.7377497669827
316.197525700656;80.568188985099
316.219147602428;80.3416916994054
316.2407695042;80.0619142762649
316.262391405973;79.7518566702905
316.284013307745;79.4290773154962
316.305635209517;79.0952156847779
316.327257111289;78.7457553217561
316.348879013062;78.3801042379854
316.370500914834;78.0094262965518
316.392122816606;77.6484720843518
316.413744718378;77.2992457978402
316.43536662015;76.9569811090332
316.456988521923;76.6191423929952
316.478610423695;76.282279845342
316.500232325467;75.9413618049819
316.521854227239;75.5963582843506
316.543476129012;75.2492574147046
316.565098030784;74.9014400268606
316.586719932556;74.5501980071292
316.608341834328;74.1936451821831
316.629963736101;73.8408316191194
316.651585637873;73.5174959151474
316.673207539645;73.2386321588779
316.694829441417;72.9977987586237
316.71645134319;72.7912752119244
316.738073244962;72.6198232539355
316.759695146734;72.4997776819791
316.781317048506;72.4396725868673
316.802938950279;72.428475857202
316.824560852051;72.4602057517234
316.846182753823;72.5324772101815
316.867804655595;72.6306399888689
316.889426557368;72.7389271904388
316.91104845914;72.8518318810021
316.932670360912;72.9729913261647
316.954292262684;73.1083426667374
316.975914164456;73.2515036149041
316.997536066229;73.3880590149126
317.019157968001;73.5081020581866
317.040779869773;73.6066230292601
317.062401771545;73.6852063934762
317.084023673318;73.7480480865323
317.10564557509;73.8032358101935
317.127267476862;73.8563590298089
317.148889378634;73.9053522646577
317.170511280407;73.9429148640426
317.192133182179;73.970166315536
317.213755083951;73.9855641107772
317.235376985723;73.9903414772124
317.256998887496;73.9835126991683
317.278620789268;73.9638425835838
317.30024269104;73.9318286056165
317.321864592812;73.8846944538303
317.343486494585;73.8132662037225
317.365108396357;73.6986437048401
317.386730298129;73.5425527941403
317.408352199901;73.3686449027895
317.429974101673;73.1816293653212
317.451596003446;72.9839012034996
317.473217905218;72.7929523972172
317.49483980699;72.6141666057419
317.516461708762;72.441784541303
317.538083610535;72.2771753490334
317.559705512307;72.1341040785366
317.581327414079;72.0318546824897
317.602949315851;71.9800162424881
317.624571217624;71.9819057205046
317.646193119396;72.0440169848996
317.667815021168;72.1706069191135
317.68943692294;72.3624197443084
317.711058824713;72.6191902215203
317.732680726485;72.9374671572129
317.754302628257;73.3147180739092
317.775924530029;73.7379807169246
317.797546431802;74.1734595605987
317.819168333574;74.5881306285876
317.840790235346;74.9733833573315
317.862412137118;75.3369128042579
317.88403403889;75.6605348579911
317.905655940663;75.9223059084449
317.927277842435;76.1079976317241
317.948899744207;76.2054674983505
317.970521645979;76.2158665442236
317.992143547752;76.1542741273223
318.013765449524;76.0295411635928
318.035387351296;75.8486524936772
318.057009253068;75.6221095687798
318.078631154841;75.3582094381344
318.100253056613;75.0611450443673
318.121874958385;74.7337943145633
318.143496860157;74.3869499820068
318.16511876193;74.0400212749147
318.186740663702;73.7120126050156
318.208362565474;73.4158486103535
318.229984467246;73.1562771657699
318.251606369019;72.9332698461183
318.273228270791;72.7392673603165
318.294850172563;72.5648527488569
318.316472074335;72.4061240215158
318.338093976108;72.2697394396311
318.35971587788;72.1531136177488
318.381337779652;72.0484581045956
318.402959681424;71.9407599133448
318.424581583196;71.8139832851387
318.446203484969;71.6694995181432
318.467825386741;71.5172857404533
318.489447288513;71.3471185920842
318.511069190285;71.1404431734351
318.532691092058;70.8986481063582
318.55431299383;70.6360376527051
318.575934895602;70.3456206850839
318.597556797374;70.0417746969052
318.619178699147;69.7432803531986
318.640800600919;69.4477217948174
318.662422502691;69.1449244165222
318.684044404463;68.8267594691998
318.705666306236;68.4996654036159
318.727288208008;68.1898069936173
318.74891010978;67.9135542814782
318.770532011552;67.6663789979212
318.792153913325;67.4390055174744
318.813775815097;67.2297111007122
318.835397716869;67.0506822382332
318.857019618641;66.9060799705916
318.878641520414;66.7883410298874
318.900263422186;66.6975117277339
318.921885323958;66.6288918706747
318.94350722573;66.5749198983112
318.965129127502;66.526609290779
318.986751029275;66.472934908126
319.008372931047;66.4056322892934
319.029994832819;66.3253682518729
319.051616734591;66.2315279601433
319.073238636364;66.1202617098609
319.094860538136;65.9922478561828
319.116482439908;65.8488527137961
319.13810434168;65.6919286556696
319.159726243453;65.5206298858594
319.181348145225;65.3331330352168
319.202970046997;65.1292721809835
319.224591948769;64.9122748846724
319.246213850542;64.6817069669904
319.267835752314;64.4402028684817
319.289457654086;64.1915162202644
319.311079555858;63.9422399360428
319.33270145763;63.7048476579862
319.354323359403;63.4815182938147
319.375945261175;63.2790967451189
319.397567162947;63.1042457310478
319.419189064719;62.9564444621519
319.440810966492;62.8303947848324
319.462432868264;62.7272468618219
319.484054770036;62.642014108887
319.505676671808;62.5658848402518
319.527298573581;62.4930477420003
319.548920475353;62.4192575363177
319.570542377125;62.3416211681404
319.592164278897;62.2582073318404
319.61378618067;62.1609014785913
319.635408082442;62.0315823243967
319.657029984214;61.8651301820333
319.678651885986;61.6731853880056
319.700273787759;61.4537186236902
319.721895689531;61.1875788537437
319.743517591303;60.8727667115509
319.765139493075;60.5295797614765
319.786761394848;60.1624336078822
319.80838329662;59.7602481102494
319.830005198392;59.3135306062478
319.851627100164;58.8451999300499
319.873249001936;58.3725262138377
319.894870903709;57.9204203318355
319.916492805481;57.5149012129714
319.938114707253;57.1614004248708
319.959736609025;56.8602490067045
319.981358510798;56.6185175427118
320.00298041257;56.4638619388709
320.024602314342;56.4410482460614
320.046224216114;56.5742297961602
320.067846117887;56.8429575220322
320.089468019659;57.2146449919739
320.111089921431;57.6787556589397
320.132711823203;58.2280668458661
320.154333724976;58.846050963455
320.175955626748;59.5204880405046
320.19757752852;60.2292347361804
320.219199430292;60.9267936659072
320.240821332065;61.5675441614067
320.262443233837;62.1391010480194
320.284065135609;62.6404669003748
320.305687037381;63.0498522332159
320.327308939154;63.3340752028237
320.348930840926;63.4755136740645
320.370552742698;63.4836637621539
320.39217464447;63.3673309400246
320.413796546242;63.131195599055
320.435418448015;62.8043581745371
320.457040349787;62.4058132360653
320.478662251559;61.9432702363984
320.500284153331;61.4377260677999
320.521906055104;60.9078210207318
320.543527956876;60.3559274621378
320.565149858648;59.785486928275
320.58677176042;59.2261115899567
320.608393662193;58.7104404290176
320.630015563965;58.2510700540505
320.651637465737;57.8424636232278
320.673259367509;57.4837783448597
320.694881269282;57.1778747940948
320.716503171054;56.9301990124908
320.738125072826;56.7359158241392
320.759746974598;56.5902820928712
320.78136887637;56.4897307093305
320.802990778143;56.4512096746329
320.824612679915;56.4969136057506
320.846234581687;56.6086883655567
320.867856483459;56.7762677741145
320.889478385232;57.0076880281724
320.911100287004;57.3169574808271
320.932722188776;57.7070233720149
320.954344090548;58.1715146092479
320.975965992321;58.6942206853774
320.997587894093;59.2450940956986
321.019209795865;59.7913949288935
321.040831697637;60.3307447018046
321.06245359941;60.8778213408551
321.084075501182;61.4419213053282
321.105697402954;62.0128753733557
321.127319304726;62.5700434718261
321.148941206499;63.0863456686945
321.170563108271;63.5410219125359
321.192185010043;63.9247922896955
321.213806911815;64.2336830977879
321.235428813588;64.4689091878274
321.25705071536;64.6296663121484
321.278672617132;64.7092562640302
321.300294518904;64.7093281095476
321.321916420676;64.6421611882957
321.343538322449;64.5154133504682
321.365160224221;64.3316631833194
321.386782125993;64.100898247715
321.408404027765;63.831504598734
321.430025929538;63.5347625554865
321.45164783131;63.225448148446
321.473269733082;62.9153282164089
321.494891634854;62.60702113718
321.516513536627;62.2952809315811
321.538135438399;61.9751585618216
321.559757340171;61.6530784501238
321.581379241943;61.3263693712201
321.603001143716;60.9861999513936
321.624623045488;60.6369066741279
321.64624494726;60.2899553642508
321.667866849032;59.9475855902446
321.689488750805;59.60123071604
321.711110652577;59.2297942089808
321.732732554349;58.8166589531616
321.754354456121;58.3896658617614
321.775976357894;57.9459855113813
321.797598259666;57.4632183719711
321.819220161438;56.9203438907903
321.84084206321;56.3174355258717
321.862463964982;55.6740109566451
321.884085866755;54.9987935030299
321.905707768527;54.2900509095488
321.927329670299;53.5458382544557
321.948951572071;52.7789812251338
321.970573473844;52.0289303425837
321.992195375616;51.3247599536232
322.013817277388;50.6748809679152
322.03543917916;50.1049391332809
322.057061080933;49.6483079197577
322.078682982705;49.2891266962646
322.100304884477;49.0443020675734
322.121926786249;48.9208905019143
322.143548688022;48.8954572220831
322.165170589794;48.9441100633512
322.186792491566;49.0498210538594
322.208414393338;49.2228457725305
322.230036295111;49.4722044830148
322.251658196883;49.7752962486704
322.273280098655;50.1082368672602
322.294902000427;50.4710674436862
322.316523902199;50.871389618507
322.338145803972;51.3014162749517
322.359767705744;51.7431410053897
322.381389607516;52.1884803061001
322.403011509288;52.643532563591
322.424633411061;53.1289597572515
322.446255312833;53.6516608505652
322.467877214605;54.186578111166
322.489499116377;54.7285588146793
322.51112101815;55.2691274643947
322.532742919922;55.7830074852153
322.554364821694;56.2731627146747
322.575986723466;56.739287111844
322.597608625239;57.1697200695158
322.619230527011;57.5509685898136
322.640852428783;57.8629346532909
322.662474330555;58.0797318027298
322.684096232328;58.1994000694188
322.7057181341;58.2234676406118
322.727340035872;58.1111466304722
322.748961937644;57.8775269726716
322.770583839417;57.5269499395683
322.792205741189;57.0751292708038
322.813827642961;56.5553101820327
322.835449544733;55.9728221791936
322.857071446505;55.333374190576
322.878693348278;54.6546314850097
322.90031525005;53.9591912822421
322.921937151822;53.2643884628588
322.943559053594;52.5902527088093
322.965180955367;51.9581395026753
322.986802857139;51.3649361714435
323.008424758911;50.8249230602003
323.030046660683;50.3410500744657
323.051668562456;49.9122713655802
323.073290464228;49.550683238774
323.094912366;49.2449832557881
323.116534267772;48.9789756691768
323.138156169545;48.73433306272
323.159778071317;48.4971299876666
323.181399973089;48.2672570775967
323.203021874861;48.0501606879805
323.224643776634;47.851023941284
323.246265678406;47.6734380647948
323.267887580178;47.5105397101709
323.28950948195;47.3550508495213
323.311131383722;47.2289350016794
323.332753285495;47.1486012300559
323.354375187267;47.1108790606952
323.375997089039;47.1136152135068
323.397618990811;47.1587947096166
323.419240892584;47.2465752902252
323.440862794356;47.3689449129475
323.462484696128;47.520948139129
323.4841065979;47.6946425279641
323.505728499673;47.8814311619703
323.527350401445;48.0679604135357
323.548972303217;48.2415281274328
323.570594204989;48.396839233121
323.592216106762;48.5298892679494
323.613838008534;48.6337705953425
323.635459910306;48.698316155619
323.657081812078;48.7172422592474
323.678703713851;48.6935555649772
323.700325615623;48.639882201983
323.721947517395;48.5738361871611
323.743569419167;48.5006969263919
323.765191320939;48.4217693446502
323.786813222712;48.3373933267149
323.808435124484;48.2469714253072
323.830057026256;48.1519206444446
323.851678928028;48.052596160745
323.873300829801;47.9534822466571
323.894922731573;47.8601194046575
323.916544633345;47.7705329562397
323.938166535117;47.6709799356044
323.95978843689;47.5573673079954
323.981410338662;47.4402937977301
324.003032240434;47.3223740451958
324.024654142206;47.190437327077
324.046276043979;47.0262146737941
324.067897945751;46.8282598300226
324.089519847523;46.6085548458006
324.111141749295;46.3674653558341
324.132763651068;46.104211778119
324.15438555284;45.8208267606617
324.176007454612;45.5207675261412
324.197629356384;45.2148405295931
324.219251258157;44.9193086534815
324.240873159929;44.6419469235913
324.262495061701;44.3842359472272
324.284116963473;44.1475381448428
324.305738865245;43.917558236082
324.327360767018;43.6846043624623
324.34898266879;43.4526932044965
324.370604570562;43.2298602597557
324.392226472334;43.0047011680769
324.413848374107;42.7647558566954
324.435470275879;42.5156870207098
324.457092177651;42.2734357435726
324.478714079423;42.0421244359946
324.500335981196;41.8233976549117
324.521957882968;41.621509039864
324.54357978474;41.4420229032139
324.565201686512;41.2875095466953
324.586823588285;41.1555767780088
324.608445490057;41.0424354536898
324.630067391829;40.9580982142757
324.651689293601;40.9083177134524
324.673311195374;40.8857953315626
324.694933097146;40.8747377729698
324.716554998918;40.8716499826758
324.73817690069;40.8783489614436
324.759798802463;40.8942202870046
