Name;ESR_BC_1_840s_X_gon_0dg_result

Recipe
Accumulations;5;Number of accumulations
RetryCount;0;Number of retries on error
AbortOnError;True;Abort on error
EnableQFactorMeasurement;False;Enable/Disable q-Factor measurement
Bfrom;313;B from
Bto;363;B to
SweepTime;60;Sweep time
Modulation;0.2;Modulation
ModulationFreq;100;Modulation
BHoldEnabled;False;B hold enabled
BHold;0;B hold
MicrowavePower;2;Microwave power
MarkerEnabled;False;
MarkerStartField;0;
MarkerEndField;0;
Mode;;
KineticGFact;0;
KineticTotalTransientTime;0;
KineticTimeResolution;0;
TempFrom;5;
TempUseSlope;False;
TempTo;5;
TempdT;1;
TempSetupTime;0;
GonFrom;0;
GonTo;180;
GonSteps;20;
XRayEnabled;False;
XRayTime;3;
XRayVoltage;40;
XRayCurrent;0.5;
UVEnabled;False;
UVIntensity;0;
UVTime;0;
UVLeadTime;0;
UVWavelength;0;
PowSweepFrom;1;
PowSweepTo;5;
PowSweepSteps;5;
AmpModSweepFrom;0;
AmpModSweepTo;1;
AmpModSweepSteps;10;
ExtTriggerEnabled;False;
ExtTrigLeadTime;0;
ExtTrigOnTime;5;

Meas
BField [mT];MW_Absorption []
313.018932495117;523.40726277028
313.040550324371;523.215626195887
313.062168153625;523.003591330984
313.083785982879;522.758305320898
313.105403812133;522.463610133538
313.127021641387;522.114331220765
313.148639470641;521.736511014631
313.170257299894;521.339377057895
313.191875129148;520.906971561216
313.213492958402;520.451782672788
313.235110787656;520.011485202995
313.25672861691;519.599150139005
313.278346446164;519.191268793833
313.299964275418;518.77666761182
313.321582104672;518.369706274849
313.343199933926;517.980129219068
313.36481776318;517.614405954132
313.386435592433;517.260184168014
313.408053421687;516.914635410869
313.429671250941;516.600649737929
313.451289080195;516.310211773023
313.472906909449;516.022807830404
313.494524738703;515.73325405778
313.516142567957;515.438137658788
313.537760397211;515.154206823353
313.559378226465;514.870015348016
313.580996055719;514.558626404902
313.602613884972;514.203965241446
313.624231714226;513.817410184498
313.64584954348;513.417834887012
313.667467372734;513.002635129179
313.689085201988;512.577555526395
313.710703031242;512.147713786208
313.732320860496;511.706162547846
313.75393868975;511.248660820836
313.775556519004;510.794934370344
313.797174348258;510.37807579118
313.818792177511;510.00682999943
313.840410006765;509.664589052516
313.862027836019;509.331959612863
313.883645665273;508.999028530241
313.905263494527;508.674510112634
313.926881323781;508.379894388761
313.948499153035;508.11812121852
313.970116982289;507.871834455089
313.991734811543;507.620372141347
314.013352640797;507.341755623152
314.03497047005;507.020556832023
314.056588299304;506.666548426323
314.078206128558;506.297057631914
314.099823957812;505.918124234996
314.121441787066;505.539043318489
314.14305961632;505.159192169929
314.164677445574;504.765351834482
314.186295274828;504.340950154566
314.207913104082;503.880151454173
314.229530933336;503.394655191358
314.251148762589;502.909417860337
314.272766591843;502.449401355259
314.294384421097;502.00932696496
314.316002250351;501.563848215759
314.337620079605;501.098525628025
314.359237908859;500.606804056266
314.380855738113;500.085740000233
314.402473567367;499.551706596667
314.424091396621;499.013891265562
314.445709225875;498.457172296683
314.467327055128;497.861505478757
314.488944884382;497.217462038759
314.510562713636;496.539480042976
314.53218054289;495.872011002166
314.553798372144;495.244216691493
314.575416201398;494.642548342206
314.597034030652;494.049524479014
314.618651859906;493.470457771705
314.64026968916;492.933167334477
314.661887518413;492.44220568609
314.683505347667;491.98216474881
314.705123176921;491.538438418865
314.726741006175;491.094502646786
314.748358835429;490.643743057107
314.769976664683;490.185332213375
314.791594493937;489.702249863884
314.813212323191;489.177043060467
314.834830152445;488.614116142425
314.856447981699;488.021597981213
314.878065810953;487.389633920158
314.899683640206;486.711104197571
314.92130146946;486.01124599498
314.942919298714;485.334597082031
314.964537127968;484.707349216393
314.986154957222;484.114990879617
315.007772786476;483.546380696104
315.02939061573;483.012532375343
315.051008444984;482.529014116384
315.072626274238;482.107651488655
315.094244103492;481.76182420976
315.115861932745;481.502952300096
315.137479761999;481.329057185693
315.159097591253;481.233611536334
315.180715420507;481.200941669746
315.202333249761;481.219357695214
315.223951079015;481.289427379936
315.245568908269;481.409636008038
315.267186737523;481.56561893876
315.288804566777;481.74212643263
315.310422396031;481.931493303594
315.332040225284;482.128191220608
315.353658054538;482.319431546294
315.375275883792;482.493091696603
315.396893713046;482.644794923936
315.4185115423;482.767651565165
315.440129371554;482.849651212737
315.461747200808;482.8694962049
315.483365030062;482.822461955094
315.504982859316;482.712813880085
315.526600688569;482.545183040878
315.548218517823;482.306170208978
315.569836347077;481.971848923647
315.591454176331;481.548346549669
315.613072005585;481.061175158963
315.634689834839;480.505182708731
315.656307664093;479.86779396625
315.677925493347;479.141548600587
315.699543322601;478.31662951885
315.721161151855;477.402654488209
315.742778981108;476.435874719363
315.764396810362;475.45371421477
315.786014639616;474.480134839631
315.80763246887;473.517531734887
315.829250298124;472.569225723528
315.850868127378;471.658388382675
315.872485956632;470.789366306532
315.894103785886;469.936574758521
315.91572161514;469.115740468845
315.937339444394;468.359091513096
315.958957273648;467.642680242374
315.980575102901;466.961857130344
316.002192932155;466.329112602082
316.023810761409;465.729558473003
316.045428590663;465.139027274425
316.067046419917;464.543042039886
316.088664249171;463.951024305278
316.110282078425;463.382127597168
316.131899907679;462.818370780073
316.153517736933;462.259366042498
316.175135566187;461.72127206596
316.19675339544;461.210335724965
316.218371224694;460.725492811148
316.239989053948;460.278276263519
316.261606883202;459.897016529985
316.283224712456;459.593396992125
316.30484254171;459.354298407167
316.326460370964;459.165978386434
316.348078200218;459.019368850988
316.369696029472;458.912106834739
316.391313858725;458.849654062231
316.412931687979;458.831356794962
316.434549517233;458.850196116582
316.456167346487;458.899830437897
316.477785175741;458.968633736308
316.499403004995;459.043483299875
316.521020834249;459.113013561171
316.542638663503;459.164385715218
316.564256492757;459.186175455083
316.585874322011;459.177941165975
316.607492151264;459.130011460994
316.629109980518;459.033916883548
316.650727809772;458.883171921518
316.672345639026;458.682902492976
316.69396346828;458.428244264609
316.715581297534;458.125442132294
316.737199126788;457.780267288138
316.758816956042;457.393115115082
316.780434785296;456.951110089144
316.80205261455;456.456842603763
316.823670443803;455.937709882677
316.845288273057;455.40186844364
316.866906102311;454.836390440866
316.888523931565;454.234531609332
316.910141760819;453.606359372738
316.931759590073;452.967114335322
316.953377419327;452.328923822006
316.974995248581;451.70102989368
316.996613077835;451.052559295687
317.018230907089;450.374877742401
317.039848736342;449.674562540962
317.061466565596;448.985118417507
317.08308439485;448.332055440794
317.104702224104;447.715024535816
317.126320053358;447.124365159279
317.147937882612;446.540140239968
317.169555711866;445.938424038382
317.19117354112;445.31436418929
317.212791370374;444.690473134053
317.234409199628;444.087525067727
317.256027028881;443.51849216974
317.277644858135;442.988157170338
317.299262687389;442.48006625359
317.320880516643;441.979347468075
317.342498345897;441.495696944768
317.364116175151;441.029298751386
317.385734004405;440.570325723017
317.407351833659;440.105346837
317.428969662913;439.626277559617
317.450587492167;439.130885830765
317.47220532142;438.615419709839
317.493823150674;438.075512088493
317.515440979928;437.504973539965
317.537058809182;436.888672970538
317.558676638436;436.21895545144
317.58029446769;435.495769746143
317.601912296944;434.734247257715
317.623530126198;433.944739255976
317.645147955452;433.123323019502
317.666765784706;432.279650603804
317.688383613959;431.426889388569
317.710001443213;430.569681802129
317.731619272467;429.697529258546
317.753237101721;428.803733143936
317.774854930975;427.906018397919
317.796472760229;427.056097329367
317.818090589483;426.28383956618
317.839708418737;425.561466482868
317.861326247991;424.840709871635
317.882944077245;424.098011321518
317.904561906498;423.3903773702
317.926179735752;422.772194260883
317.947797565006;422.222194334118
317.96941539426;421.710890783578
317.991033223514;421.230443371347
318.012651052768;420.787681940185
318.034268882022;420.387288477564
318.055886711276;420.026460482701
318.07750454053;419.712006953263
318.099122369784;419.461347646369
318.120740199037;419.258097638336
318.142358028291;419.062714108749
318.163975857545;418.867776539051
318.185593686799;418.68852307571
318.207211516053;418.529773651441
318.228829345307;418.381236791356
318.250447174561;418.223467088255
318.272065003815;418.044362977308
318.293682833069;417.841644501046
318.315300662323;417.613688020135
318.336918491576;417.362159696193
318.35853632083;417.10331083447
318.380154150084;416.845080437116
318.401771979338;416.57877771814
318.423389808592;416.299495301935
318.445007637846;416.027416223918
318.4666254671;415.776178477451
318.488243296354;415.540357713604
318.509861125608;415.319480998753
318.531478954862;415.101490945425
318.553096784115;414.879389351346
318.574714613369;414.655970019249
318.596332442623;414.430221511684
318.617950271877;414.199183355969
318.639568101131;413.951424809526
318.661185930385;413.678053681861
318.682803759639;413.374216337896
318.704421588893;413.02724955162
318.726039418147;412.637437100588
318.747657247401;412.229526306634
318.769275076654;411.802665575894
318.790892905908;411.332551494459
318.812510735162;410.819096080542
318.834128564416;410.29828236586
318.85574639367;409.77793203883
318.877364222924;409.251888851539
318.898982052178;408.739786068119
318.920599881432;408.262540411203
318.942217710686;407.809187350618
318.96383553994;407.369719351158
318.985453369193;406.957932529504
319.007071198447;406.584188990308
319.028689027701;406.235576466374
319.050306856955;405.908328039883
319.071924686209;405.609389498158
319.093542515463;405.342130607925
319.115160344717;405.108560972332
319.136778173971;404.89576100794
319.158396003225;404.682917127753
319.180013832478;404.470916256956
319.201631661732;404.261486482189
319.223249490986;404.040295320782
319.24486732024;403.791289220917
319.266485149494;403.506700418926
319.288102978748;403.18693699374
319.309720808002;402.830404108468
319.331338637256;402.427600322835
319.35295646651;401.971668293753
319.374574295764;401.471669110634
319.396192125017;400.949280651874
319.417809954271;400.422772675207
319.439427783525;399.895056014622
319.461045612779;399.372473884531
319.482663442033;398.858733094971
319.504281271287;398.349244373402
319.525899100541;397.836225219606
319.547516929795;397.324361702429
319.569134759049;396.818516298483
319.590752588303;396.319229230641
319.612370417557;395.837347557886
319.63398824681;395.384767983871
319.655606076064;394.977297076571
319.677223905318;394.603908657503
319.698841734572;394.257181894798
319.720459563826;393.943396535685
319.74207739308;393.669840633137
319.763695222334;393.443322937458
319.785313051588;393.275982342624
319.806930880842;393.178492404997
319.828548710096;393.151149336721
319.850166539349;393.195613131234
319.871784368603;393.31454572705
319.893402197857;393.496518880906
319.915020027111;393.719206442439
319.936637856365;393.969973249071
319.958255685619;394.240624116609
319.979873514873;394.526381265819
320.001491344127;394.829088558606
320.023109173381;395.152859498342
320.044727002634;395.492837890995
320.066344831888;395.845123251131
320.087962661142;396.219062161966
320.109580490396;396.620817239144
320.13119831965;397.054346515272
320.152816148904;397.537453205141
320.174433978158;398.079592213016
320.196051807412;398.631186691316
320.217669636666;399.146907284399
320.23928746592;399.644930416907
320.260905295173;400.131700695402
320.282523124427;400.579806326233
320.304140953681;400.951546964606
320.325758782935;401.228569011109
320.347376612189;401.397418501461
320.368994441443;401.421841863154
320.390612270697;401.2948102195
320.412230099951;401.00716961015
320.433847929205;400.563440445734
320.455465758459;399.982271342495
320.477083587712;399.251109079348
320.498701416966;398.352858852686
320.52031924622;397.309343955619
320.541937075474;396.155667706078
320.563554904728;394.92676091128
320.585172733982;393.589208030398
320.606790563236;392.109142872593
320.62840839249;390.577292050743
320.650026221744;389.200666293389
320.671644050998;387.924044907073
320.693261880252;386.697449467834
320.714879709505;385.534892892468
320.736497538759;384.444052612567
320.758115368013;383.436001045847
320.779733197267;382.530911278798
320.801351026521;381.709412464796
320.822968855775;380.933938960664
320.844586685029;380.192853380706
320.866204514283;379.465071905882
320.887822343537;378.7541528456
320.90944017279;378.069136903338
320.931058002044;377.384388938139
320.952675831298;376.660635203819
320.974293660552;375.878733068207
320.995911489806;375.039261664271
321.01752931906;374.161211265957
321.039147148314;373.224547780776
321.060764977568;372.2020270541
321.082382806822;371.090702207445
321.104000636076;369.923583974055
321.125618465329;368.732287579964
321.147236294583;367.502042620639
321.168854123837;366.201583765381
321.190471953091;364.829255548863
321.212089782345;363.404647501997
321.233707611599;361.929874861666
321.255325440853;360.416577191248
321.276943270107;358.934129918112
321.298561099361;357.528776052956
321.320178928615;356.2064258909
321.341796757868;355.012999107923
321.363414587122;353.950573390924
321.385032416376;353.010864176209
321.40665024563;352.214131198177
321.428268074884;351.5698019307
321.449885904138;351.065866558358
321.471503733392;350.704219011049
321.493121562646;350.485283725212
321.5147393919;350.39475040526
321.536357221154;350.414518135084
321.557975050407;350.539817066239
321.579592879661;350.768201370905
321.601210708915;351.090041901725
321.622828538169;351.482628800943
321.644446367423;351.92163453777
321.666064196677;352.396843300093
321.687682025931;352.893320832547
321.709299855185;353.386750943616
321.730917684439;353.864837575998
321.752535513693;354.336119967999
321.774153342946;354.805929085074
321.7957711722;355.271618520631
321.817389001454;355.720033647132
321.839006830708;356.130546340031
321.860624659962;356.509212845601
321.882242489216;356.871104266254
321.90386031847;357.204923962146
321.925478147724;357.489397593566
321.947095976978;357.725568620262
321.968713806232;357.915541723186
321.990331635485;358.051407167453
322.011949464739;358.123653333766
322.033567293993;358.122818998163
322.055185123247;358.04214235396
322.076802952501;357.878101754964
322.098420781755;357.623941641818
322.120038611009;357.281471104942
322.141656440263;356.862379536182
322.163274269517;356.364283079515
322.184892098771;355.786789871397
322.206509928024;355.151125645602
322.228127757278;354.468705064297
322.249745586532;353.754602881653
322.271363415786;353.037892009649
322.29298124504;352.317455069769
322.314599074294;351.577666454814
322.336216903548;350.81947249236
322.357834732802;350.037530595703
322.379452562056;349.23215293806
322.40107039131;348.41198767938
322.422688220563;347.581787728433
322.444306049817;346.744001227126
322.465923879071;345.902912183097
322.487541708325;345.071540215262
322.509159537579;344.282233105598
322.530777366833;343.54821320267
322.552395196087;342.840275405226
322.574013025341;342.128605075756
322.595630854595;341.427604217671
322.617248683849;340.77086578064
322.638866513102;340.164641081494
322.660484342356;339.593740541176
322.68210217161;339.043228554666
322.703720000864;338.499533570318
322.725337830118;337.95494729624
322.746955659372;337.405385286369
322.768573488626;336.856282860792
322.79019131788;336.300720254281
322.811809147134;335.725196168934
322.833426976388;335.133170973586
322.855044805641;334.546520024666
322.876662634895;333.977108042854
322.898280464149;333.416475271492
322.919898293403;332.846756820237
322.941516122657;332.269409705974
322.963133951911;331.698559643449
322.984751781165;331.131763749035
323.006369610419;330.558857100997
323.027987439673;329.980852963431
323.049605268927;329.408358364996
323.07122309818;328.843710975065
323.092840927434;328.300735177991
323.114458756688;327.777928091061
323.136076585942;327.260667182115
323.157694415196;326.741896241808
323.17931224445;326.215303297531
323.200930073704;325.702268816391
323.222547902958;325.250110103614
323.244165732212;324.857787250588
323.265783561466;324.491187644269
323.287401390719;324.144184021452
323.309019219973;323.827272157967
323.330637049227;323.535469186561
323.352254878481;323.254560823175
323.373872707735;322.987073252841
323.395490536989;322.730040932927
323.417108366243;322.480208572028
323.438726195497;322.235839058406
323.460344024751;321.998732486628
323.481961854005;321.774707520831
323.503579683258;321.571325291621
323.525197512512;321.350934622614
323.546815341766;321.082066877039
323.56843317102;320.738324248855
323.590051000274;320.3089551297
323.611668829528;319.81489694664
323.633286658782;319.273351130902
323.654904488036;318.673715048111
323.67652231729;318.013700518232
323.698140146543;317.308225076157
323.719757975797;316.553363588591
323.741375805051;315.750998573923
323.762993634305;314.907701906104
323.784611463559;314.038023093246
323.806229292813;313.141982887515
323.827847122067;312.200874232464
323.849464951321;311.202573541886
323.871082780575;310.149178046092
323.892700609829;309.053952271788
323.914318439082;307.921956032731
323.935936268336;306.767906674206
323.95755409759;305.587797626596
323.979171926844;304.375574060873
324.000789756098;303.136951445254
324.022407585352;301.908712456066
324.044025414606;300.721177337611
324.06564324386;299.532650615423
324.087261073114;298.370591245428
324.108878902368;297.276511888823
324.130496731622;296.223117023219
324.152114560875;295.224795360355
324.173732390129;294.314306450604
324.195350219383;293.477962619002
324.216968048637;292.685705757068
324.238585877891;291.927002839877
324.260203707145;291.207544888098
324.281821536399;290.517961408644
324.303439365653;289.845026553357
324.325057194907;289.188248719465
324.346675024161;288.533930881512
324.368292853414;287.850389287634
324.389910682668;287.113084492222
324.411528511922;286.324528246976
324.433146341176;285.498270252156
324.45476417043;284.604609310794
324.476381999684;283.621963793911
324.497999828938;282.573994545327
324.519617658192;281.473361835702
324.541235487446;280.298015501363
324.562853316699;279.02489128071
324.584471145953;277.641153000803
324.606088975207;276.128190751409
324.627706804461;274.480570179001
324.649324633715;272.768415056526
324.670942462969;271.080795174454
324.692560292223;269.431592388808
324.714178121477;267.813425593339
324.735795950731;266.227411183499
324.757413779985;264.679243643191
324.779031609238;263.194136201137
