Name;ESR_BC_1_Natural_Z_gon_160dg_result

Recipe
Accumulations;5;Number of accumulations
RetryCount;0;Number of retries on error
AbortOnError;True;Abort on error
EnableQFactorMeasurement;False;Enable/Disable q-Factor measurement
Bfrom;313;B from
Bto;363;B to
SweepTime;60;Sweep time
Modulation;0.2;Modulation
ModulationFreq;100;Modulation
BHoldEnabled;False;B hold enabled
BHold;0;B hold
MicrowavePower;2;Microwave power
MarkerEnabled;False;
MarkerStartField;0;
MarkerEndField;0;
Mode;;
KineticGFact;0;
KineticTotalTransientTime;0;
KineticTimeResolution;0;
TempFrom;5;
TempUseSlope;False;
TempTo;5;
TempdT;1;
TempSetupTime;0;
GonFrom;0;
GonTo;180;
GonSteps;20;
XRayEnabled;False;
XRayTime;3;
XRayVoltage;40;
XRayCurrent;0.5;
UVEnabled;False;
UVIntensity;0;
UVTime;0;
UVLeadTime;0;
UVWavelength;0;
PowSweepFrom;1;
PowSweepTo;5;
PowSweepSteps;5;
AmpModSweepFrom;0;
AmpModSweepTo;1;
AmpModSweepSteps;10;
ExtTriggerEnabled;False;
ExtTrigLeadTime;0;
ExtTrigOnTime;5;

Meas
BField [mT];MW_Absorption []
313.029689331055;83.568322772652
313.051308143252;83.2461992874869
313.07292695545;83.0200039938968
313.094545767648;82.8762816066599
313.116164579846;82.7902936436263
313.137783392043;82.7482020118229
313.159402204241;82.7399680837231
313.181021016439;82.7567309234467
313.202639828637;82.7925777548484
313.224258640834;82.836530608952
313.245877453032;82.8785409111707
313.26749626523;82.9135386679405
313.289115077427;82.9403459738992
313.310733889625;82.9645465253083
313.332352701823;82.9876356145259
313.353971514021;83.0104664388068
313.375590326218;83.0405025303313
313.397209138416;83.0898134163511
313.418827950614;83.1659936982586
313.440446762812;83.2710292614274
313.462065575009;83.4159835809457
313.483684387207;83.616095602018
313.505303199405;83.8754474441323
313.526922011602;84.179832488596
313.5485408238;84.5204052058115
313.570159635998;84.8970316379038
313.591778448196;85.3000619222036
313.613397260393;85.736262782024
313.635016072591;86.211097806669
313.656634884789;86.714543084054
313.678253696987;87.2287040915071
313.699872509184;87.7364402221955
313.721491321382;88.2305902371424
313.74311013358;88.6999911149499
313.764728945778;89.1395700879112
313.786347757975;89.5405222278754
313.807966570173;89.889760160382
313.829585382371;90.1845647663267
313.851204194568;90.4202259980178
313.872823006766;90.5934813044793
313.894441818964;90.7123243997438
313.916060631162;90.7844877180722
313.937679443359;90.811352860367
313.959298255557;90.7997853674045
313.980917067755;90.7633894926631
314.002535879953;90.7154085865379
314.02415469215;90.6692365411945
314.045773504348;90.6347498484
314.067392316546;90.6095657821139
314.089011128743;90.5943292358783
314.110629940941;90.5867356913977
314.132248753139;90.5837356649427
314.153867565337;90.5835528143612
314.175486377534;90.5849199086283
314.197105189732;90.5807017058127
314.21872400193;90.5636431414354
314.240342814128;90.535560696278
314.261961626325;90.4997293607197
314.283580438523;90.454023710394
314.305199250721;90.3979352408633
314.326818062919;90.3424012280652
314.348436875116;90.2965008100371
314.370055687314;90.2593966265003
314.391674499512;90.2304348333852
314.413293311709;90.211667018712
314.434912123907;90.1996723215865
314.456530936105;90.1864681775971
314.478149748303;90.171088646961
314.4997685605;90.1500942458051
314.521387372698;90.1131682647649
314.543006184896;90.0495936010678
314.564624997094;89.9548682508332
314.586243809291;89.8241263821112
314.607862621489;89.6515401465769
314.629481433687;89.4371778854794
314.651100245884;89.1837839165266
314.672719058082;88.8982311870982
314.69433787028;88.600932112773
314.715956682478;88.2973669140708
314.737575494675;87.9740841737241
314.759194306873;87.6361967227613
314.780813119071;87.2980232413336
314.802431931269;86.9701294530879
314.824050743466;86.6700748309131
314.845669555664;86.4200048522776
314.867288367862;86.2307137992814
314.88890718006;86.0979571397153
314.910525992257;86.0170343588055
314.932144804455;85.9867904942562
314.953763616653;86.0071886964286
314.97538242885;86.0706856521889
314.997001241048;86.160426281144
315.018620053246;86.2571251809783
315.040238865444;86.3463181907892
315.061857677641;86.4178692119498
315.083476489839;86.4660889034944
315.105095302037;86.4844797027993
315.126714114235;86.4643660303659
315.148332926432;86.407191637167
315.16995173863;86.3180860601285
315.191570550828;86.1938953476164
315.213189363025;86.0359864467282
315.234808175223;85.8543744782734
315.256426987421;85.6608293819343
315.278045799619;85.4668024372783
315.299664611816;85.2757209979047
315.321283424014;85.095442186072
315.342902236212;84.9413647569718
315.36452104841;84.8145754284955
315.386139860607;84.7091799611384
315.407758672805;84.6229013300009
315.429377485003;84.5501985558624
315.450996297201;84.4814745149771
315.472615109398;84.4070916210899
315.494233921596;84.3251349224131
315.515852733794;84.2321579378285
315.537471545991;84.1253743864623
315.559090358189;83.9980498689068
315.580709170387;83.8375831602896
315.602327982585;83.6376873709805
315.623946794782;83.4129601667129
315.64556560698;83.1825937409516
315.667184419178;82.9454724556176
315.688803231376;82.7126805225316
315.710422043573;82.5049756151932
315.732040855771;82.3332378660394
315.753659667969;82.1965310689879
315.775278480166;82.0904743173651
315.796897292364;82.0202874706133
315.818516104562;82.0058800435282
315.84013491676;82.0500470398017
315.861753728957;82.1360333460135
315.883372541155;82.2622847086891
315.904991353353;82.4399771159685
315.926610165551;82.669041388376
315.948228977748;82.9403541542855
315.969847789946;83.2568590009417
315.991466602144;83.62170954749
316.013085414342;84.0223622634438
316.034704226539;84.4418156801952
316.056323038737;84.8779254175487
316.077941850935;85.3286413983455
316.099560663132;85.7793689153131
316.12117947533;86.2164053750047
316.142798287528;86.6258849778488
316.164417099726;86.989013231797
316.186035911923;87.296578812481
316.207654724121;87.5488748158156
316.229273536319;87.7432548609762
316.250892348517;87.8719887372259
316.272511160714;87.9212033263537
316.294129972912;87.8732472125077
316.31574878511;87.7344041222573
316.337367597307;87.5287633531222
316.358986409505;87.2850440214743
316.380605221703;87.0226496713112
316.402224033901;86.7445179618902
316.423842846098;86.462102394234
316.445461658296;86.2022025234642
316.467080470494;85.9789028787114
316.488699282692;85.7943736146124
316.510318094889;85.6542457356963
316.531936907087;85.5701831279785
316.553555719285;85.5514634544899
316.575174531483;85.6006161863783
316.59679334368;85.7062811818126
316.618412155878;85.8507770722472
316.640030968076;86.0175692976217
316.661649780273;86.1955407785849
316.683268592471;86.3805087200677
316.704887404669;86.5711618786095
316.726506216867;86.7522033692342
316.748125029064;86.8977291151037
316.769743841262;86.9927218977125
316.79136265346;87.0355890311406
316.812981465658;87.028005204924
316.834600277855;86.9730947130688
316.856219090053;86.869579714495
316.877837902251;86.7092748619816
316.899456714448;86.4918299612611
316.921075526646;86.2274159071647
316.942694338844;85.9161666440883
316.964313151042;85.5535666487182
316.985931963239;85.1580696092748
317.007550775437;84.7602732004973
317.029169587635;84.3876451317774
317.050788399833;84.0447217198352
317.07240721203;83.728153927279
317.094026024228;83.4292737990119
317.115644836426;83.1612548585606
317.137263648624;82.9504233797995
317.158882460821;82.8064314405511
317.180501273019;82.7239435142231
317.202120085217;82.6925965621559
317.223738897414;82.7053494181789
317.245357709612;82.7586606291211
317.26697652181;82.8379980938454
317.288595334008;82.9261806679932
317.310214146205;83.0124576228934
317.331832958403;83.0889787038443
317.353451770601;83.1468327046831
317.375070582799;83.1787310664012
317.396689394996;83.1846066821123
317.418308207194;83.1603306440371
317.439927019392;83.1104103398592
317.461545831589;83.0361523403389
317.483164643787;82.9377379675923
317.504783455985;82.8154421428188
317.526402268183;82.6872830779288
317.54802108038;82.5755302039308
317.569639892578;82.4865443113076
317.591258704776;82.4221675239698
317.612877516974;82.3794003887167
317.634496329171;82.3555300563292
317.656115141369;82.3491292050941
317.677733953567;82.3488550179232
317.699352765765;82.3479810485763
317.720971577962;82.3542881876278
317.74259039016;82.3679719995991
317.764209202358;82.3803422207086
317.785828014555;82.3892342831586
317.807446826753;82.4067873947444
317.829065638951;82.4474743535755
317.850684451149;82.5077959861781
317.872303263346;82.5851946024224
317.893922075544;82.6855864952079
317.915540887742;82.8176593321233
317.93715969994;82.9800254786882
317.958778512137;83.1688956531894
317.980397324335;83.384846302513
318.002016136533;83.6179521242224
318.02363494873;83.8417654018612
318.045253760928;84.0509233455589
318.066872573126;84.2485044238504
318.088491385324;84.4287190139214
318.110110197521;84.5755881962668
318.131729009719;84.6833132927423
318.153347821917;84.7528808218875
318.174966634115;84.7902465349346
318.196585446312;84.8028012936516
318.21820425851;84.7931209656291
318.239823070708;84.7601146295022
318.261441882906;84.7080815913848
318.283060695103;84.6446303644625
318.304679507301;84.5682348661984
318.326298319499;84.4733550298608
318.347917131696;84.3680461849627
318.369535943894;84.2613844937117
318.391154756092;84.148570491755
318.41277356829;84.021249968317
318.434392380487;83.8790124157521
318.456011192685;83.7286330959037
318.477630004883;83.578929332472
318.499248817081;83.4338529905227
318.520867629278;83.2946311853415
318.542486441476;83.1624537133499
318.564105253674;83.0338898092453
318.585724065871;82.9015732204699
318.607342878069;82.7623151404185
318.628961690267;82.6138587118016
318.650580502465;82.450164461844
318.672199314662;82.2573287348982
318.69381812686;82.0243399871276
318.715436939058;81.7510028183017
318.737055751256;81.429214964939
318.758674563453;81.0396830885627
318.780293375651;80.5949787566808
318.801912187849;80.1171768194761
318.823531000047;79.6018972523628
318.845149812244;79.0775413904371
318.866768624442;78.5980948527892
318.88838743664;78.1696105096573
318.910006248837;77.779193809541
318.931625061035;77.4281342195785
318.953243873233;77.1262219956442
318.974862685431;76.8790415974997
318.996481497628;76.6822877821403
319.018100309826;76.5331310379574
319.039719122024;76.4275590365065
319.061337934222;76.3540154302115
319.082956746419;76.2942800344981
319.104575558617;76.242662139302
319.126194370815;76.2121440567154
319.147813183012;76.1975567690197
319.16943199521;76.1888937271782
319.191050807408;76.1886385894772
319.212669619606;76.1857640192894
319.234288431803;76.1800297533877
319.255907244001;76.1747346151588
319.277526056199;76.1578929680057
319.299144868397;76.1201805014037
319.320763680594;76.057200328511
319.342382492792;75.9579637312634
319.36400130499;75.8077149505167
319.385620117188;75.5958349274794
319.407238929385;75.3283095238843
319.428857741583;75.0110033063711
319.450476553781;74.6480236473662
319.472095365978;74.2478421546658
319.493714178176;73.8102919254054
319.515332990374;73.3392316834409
319.536951802572;72.8743351069763
319.558570614769;72.4489160491546
319.580189426967;72.0668790417474
319.601808239165;71.723848538866
319.623427051363;71.4250906837305
319.64504586356;71.1870597809018
319.666664675758;71.0075716132325
319.688283487956;70.8720089551677
319.709902300153;70.7711203448769
319.731521112351;70.6966527029437
319.753139924549;70.6413974647587
319.774758736747;70.5954673420561
319.796377548944;70.5481048085113
319.817996361142;70.4959871973934
319.83961517334;70.436363319172
319.861233985538;70.3636011304304
319.882852797735;70.2844354281924
319.904471609933;70.207056100118
319.926090422131;70.1338558031967
319.947709234329;70.0651320446805
319.969328046526;70.0005396283722
319.990946858724;69.9381586476127
320.012565670922;69.8836362021346
320.034184483119;69.8425021407242
320.055803295317;69.8198120823793
320.077422107515;69.8270861611343
320.099040919713;69.8732200185298
320.12065973191;69.9511789812671
320.142278544108;70.0447169715439
320.163897356306;70.1495530002038
320.185516168504;70.2757780984388
320.207134980701;70.4343984000326
320.228753792899;70.615054335113
320.250372605097;70.7984474893279
320.271991417294;70.9855393086423
320.293610229492;71.1837350643221
320.31522904169;71.3912216292406
320.336847853888;71.5988163169412
320.358466666085;71.8030198392244
320.380085478283;72.0031555222113
320.401704290481;72.1999339907432
320.423323102679;72.3935370077658
320.444941914876;72.5717061190421
320.466560727074;72.7260436378656
320.488179539272;72.8653547515376
320.50979835147;72.995847199294
320.531417163667;73.1154024305702
320.553035975865;73.2246382955604
320.574654788063;73.3241043520404
320.59627360026;73.399046542172
320.617892412458;73.4331792296255
320.639511224656;73.4311782591525
320.661130036854;73.3987466133348
320.682748849051;73.3345225575468
320.704367661249;73.2335993835607
320.725986473447;73.090305691423
320.747605285645;72.9006388433097
320.769224097842;72.6614115039087
320.79084291004;72.3843712895073
320.812461722238;72.0867237903079
320.834080534435;71.7795368965765
320.855699346633;71.4747999581146
320.877318158831;71.1839447772509
320.898936971029;70.9235294252346
320.920555783226;70.703696261661
320.942174595424;70.525348246684
320.963793407622;70.3908099240203
320.98541221982;70.3021234923445
321.007031032017;70.2572674943434
321.028649844215;70.2517201571709
321.050268656413;70.2723356307087
321.071887468611;70.3003159397989
321.093506280808;70.3232194483813
321.115125093006;70.3337456098781
321.136743905204;70.3228439671292
321.158362717401;70.280142620465
321.179981529599;70.2032915771177
321.201600341797;70.0968921296394
321.223219153995;69.9617939962611
321.244837966192;69.8011388453288
321.26645677839;69.6219075019971
321.288075590588;69.4299243226656
321.309694402786;69.2296025663257
321.331313214983;69.0249590228842
321.352932027181;68.8145638627097
321.374550839379;68.5992485233924
321.396169651576;68.3963722246566
321.417788463774;68.2212394849424
321.439407275972;68.0734750846565
321.46102608817;67.9358782178448
321.482644900367;67.8099340026405
321.504263712565;67.7057096036813
321.525882524763;67.6210127823044
321.547501336961;67.5528365248817
321.569120149158;67.5051325728151
321.590738961356;67.4723134770428
321.612357773554;67.4383208306012
321.633976585752;67.3824682130505
321.655595397949;67.2892952167312
321.677214210147;67.1546505114734
321.698833022345;66.9793716191525
321.720451834542;66.7568576813925
321.74207064674;66.4728881061956
321.763689458938;66.1245301747912
321.785308271136;65.7153013461149
321.806927083333;65.2720320053144
321.828545895531;64.8234032971531
321.850164707729;64.3800699167515
321.871783519927;63.9432037117364
321.893402332124;63.5184552829927
321.915021144322;63.1226105242629
321.93663995652;62.7706645573679
321.958258768717;62.4661983119264
321.979877580915;62.2161019770583
322.001496393113;62.0273312806928
322.023115205311;61.8921807901908
322.044734017508;61.7969776278001
322.066352829706;61.7319493195772
322.087971641904;61.691594430123
322.109590454102;61.6820376139501
322.131209266299;61.7007620573049
322.152828078497;61.7401150436693
322.174446890695;61.7972563429512
322.196065702893;61.8742053260951
322.21768451509;61.966698809734
322.239303327288;62.0718055019655
322.260922139486;62.1921007470676
322.282540951683;62.336476526118
322.304159763881;62.5154232901875
322.325778576079;62.7288556439025
322.347397388277;62.9759265545526
322.369016200474;63.2603345767322
322.390635012672;63.5710367604359
322.41225382487;63.8898766012286
322.433872637068;64.2022845563768
322.455491449265;64.5044909068096
322.477110261463;64.7975924148531
322.498729073661;65.0626487003424
322.520347885858;65.277984157934
322.541966698056;65.423571042642
322.563585510254;65.475732332008
322.585204322452;65.4285053341581
322.606823134649;65.2795633483361
322.628441946847;65.0299921957688
322.650060759045;64.6950360633866
322.671679571243;64.2894182444812
322.69329838344;63.8206548501913
322.714917195638;63.2876221597057
322.736536007836;62.6778640492174
322.758154820034;61.9939860259028
322.779773632231;61.2955339933816
322.801392444429;60.6103116968929
322.823011256627;59.9623083509126
322.844630068824;59.3712772847748
322.866248881022;58.8347439535816
322.88786769322;58.3351793413006
322.909486505418;57.8666873809589
322.931105317615;57.445701721028
322.952724129813;57.0701476592285
322.974342942011;56.7269783689675
322.995961754209;56.4130494629973
323.017580566406;56.1305769297805
323.039199378604;55.8766294301566
323.060818190802;55.6413662947657
323.082437002999;55.4158375200232
323.104055815197;55.2053326559272
323.125674627395;55.0168446862478
323.147293439593;54.8479667366007
323.16891225179;54.6910090446429
323.190531063988;54.5439968895737
323.212149876186;54.4006140524146
323.233768688384;54.2543381840188
323.255387500581;54.105777315985
323.277006312779;53.9649671314102
323.298625124977;53.8318668711357
323.320243937175;53.7046088834538
323.341862749372;53.5831437607222
323.36348156157;53.465997469899
323.385100373768;53.3532759677298
323.406719185965;53.2552807619091
323.428337998163;53.1782775869657
323.449956810361;53.1218626300151
323.471575622559;53.0885630202323
323.493194434756;53.0772553994176
323.514813246954;53.0825460478001
323.536432059152;53.0929763958897
323.55805087135;53.0982743540231
323.579669683547;53.0865432396323
323.601288495745;53.0460102739292
323.622907307943;52.971766081785
323.64452612014;52.8719794500895
323.666144932338;52.744469845797
323.687763744536;52.589721491244
323.709382556734;52.4043303667658
323.731001368931;52.1820193878167
323.752620181129;51.9312518005409
323.774238993327;51.669628361411
323.795857805525;51.4215747239744
323.817476617722;51.2060526351625
323.83909542992;51.0235890267811
323.860714242118;50.8697731583185
323.882333054316;50.7432700216621
323.903951866513;50.660186044774
323.925570678711;50.656097726247
323.947189490909;50.7351755732207
323.968808303106;50.8659943737642
323.990427115304;51.0302697254257
324.012045927502;51.2211725883052
324.0336647397;51.435335000136
324.055283551897;51.6723816658887
324.076902364095;51.9344174484291
324.098521176293;52.2180056325637
324.120139988491;52.5148206120007
324.141758800688;52.8192599077031
324.163377612886;53.134153423449
324.184996425084;53.4529570652167
324.206615237281;53.7647674749317
324.228234049479;54.0724663735294
324.249852861677;54.3833240506002
324.271471673875;54.6853234163915
324.293090486072;54.9593529048687
324.31470929827;55.2090695841201
324.336328110468;55.4418646940627
324.357946922666;55.6499568125377
324.379565734863;55.8224253808422
324.401184547061;55.9542556694183
324.422803359259;56.037484513641
324.444422171456;56.06501592221
324.466040983654;56.0393204699569
324.487659795852;55.9959151174707
324.50927860805;55.9463468081069
324.530897420247;55.8840609241991
324.552516232445;55.7973700813637
324.574135044643;55.6957231686956
324.595753856841;55.60158170259
324.617372669038;55.5322633749438
324.638991481236;55.4850349988169
324.660610293434;55.4510819293001
324.682229105632;55.4225892290877
324.703847917829;55.3851044631222
324.725466730027;55.3276111504962
324.747085542225;55.2433917425012
324.768704354422;55.1292536270328
324.79032316662;54.9774578514594
