Name;ESR_BC_1_29min_X_gon_180dg_result

Recipe
Accumulations;5;Number of accumulations
RetryCount;0;Number of retries on error
AbortOnError;True;Abort on error
EnableQFactorMeasurement;False;Enable/Disable q-Factor measurement
Bfrom;313;B from
Bto;363;B to
SweepTime;60;Sweep time
Modulation;0.2;Modulation
ModulationFreq;100;Modulation
BHoldEnabled;False;B hold enabled
BHold;0;B hold
MicrowavePower;2;Microwave power
MarkerEnabled;False;
MarkerStartField;0;
MarkerEndField;0;
Mode;;
KineticGFact;0;
KineticTotalTransientTime;0;
KineticTimeResolution;0;
TempFrom;5;
TempUseSlope;False;
TempTo;5;
TempdT;1;
TempSetupTime;0;
GonFrom;0;
GonTo;180;
GonSteps;20;
XRayEnabled;False;
XRayTime;3;
XRayVoltage;40;
XRayCurrent;0.5;
UVEnabled;False;
UVIntensity;0;
UVTime;0;
UVLeadTime;0;
UVWavelength;0;
PowSweepFrom;1;
PowSweepTo;5;
PowSweepSteps;5;
AmpModSweepFrom;0;
AmpModSweepTo;1;
AmpModSweepSteps;10;
ExtTriggerEnabled;False;
ExtTrigLeadTime;0;
ExtTrigOnTime;5;

Meas
BField [mT];MW_Absorption []
313.021034622192;517.891986129804
313.042660474307;517.775133364805
313.064286326421;517.687921541936
313.085912178535;517.632314946567
313.107538030649;517.611117674203
313.129163882763;517.614015273272
313.150789734878;517.623630630762
313.172415586992;517.62237937834
313.194041439106;517.600790084473
313.21566729122;517.549810805872
313.237293143334;517.468899743971
313.258918995449;517.356086507055
313.280544847563;517.201813046395
313.302170699677;516.997722218913
313.323796551791;516.73547645756
313.345422403905;516.40779436917
313.36704825602;516.011865577847
313.388674108134;515.553334819698
313.410299960248;515.045054368846
313.431925812362;514.50278222987
313.453551664476;513.93358789873
313.475177516591;513.345716176858
313.496803368705;512.752209991855
313.518429220819;512.154656011365
313.540055072933;511.557447514479
313.561680925047;510.997425532212
313.583306777161;510.467273415118
313.604932629276;509.943967999467
313.62655848139;509.415350251533
313.648184333504;508.897510447038
313.669810185618;508.400915101916
313.691436037732;507.94426309218
313.713061889847;507.538658404855
313.734687741961;507.18005471783
313.756313594075;506.862043028121
313.777939446189;506.585189252477
313.799565298303;506.354276458595
313.821191150418;506.16580468176
313.842817002532;506.010965254878
313.864442854646;505.888281181216
313.88606870676;505.796163767223
313.907694558874;505.72537267635
313.929320410989;505.675123979871
313.950946263103;505.636556645917
313.972572115217;505.588042932577
313.994197967331;505.512976551362
314.015823819445;505.399700431071
314.03744967156;505.237421559847
314.059075523674;505.011583605087
314.080701375788;504.717395940343
314.102327227902;504.361531629452
314.123953080016;503.945943205392
314.145578932131;503.470364601223
314.167204784245;502.945342623452
314.188830636359;502.383887704981
314.210456488473;501.789432578306
314.232082340587;501.180532778884
314.253708192701;500.584262337628
314.275334044816;500.001235977423
314.29695989693;499.449085539831
314.318585749044;498.950059475397
314.340211601158;498.526694682514
314.361837453272;498.188921586638
314.383463305387;497.933547102775
314.405089157501;497.758592085519
314.426715009615;497.663617746651
314.448340861729;497.639899258153
314.469966713843;497.664169179006
314.491592565958;497.715472795975
314.513218418072;497.773977664379
314.534844270186;497.820126059632
314.5564701223;497.836736117369
314.578095974414;497.808978631967
314.599721826529;497.724421669759
314.621347678643;497.583470609915
314.642973530757;497.390318408842
314.664599382871;497.150311725997
314.686225234985;496.870379231304
314.7078510871;496.554956758477
314.729476939214;496.203414583979
314.751102791328;495.819996640125
314.772728643442;495.4129149521
314.794354495556;494.988982068118
314.815980347671;494.551666939829
314.837606199785;494.113547986485
314.859232051899;493.689472414409
314.880857904013;493.269937324191
314.902483756127;492.837655336981
314.924109608242;492.384475722531
314.945735460356;491.920333884767
314.96736131247;491.473079494519
314.988987164584;491.060590403972
315.010613016698;490.687578893464
315.032238868813;490.355486678092
315.053864720927;490.06265256611
315.075490573041;489.804391096453
315.097116425155;489.571609368464
315.118742277269;489.349392547741
315.140368129383;489.123560855832
315.161993981498;488.902959185327
315.183619833612;488.684278734777
315.205245685726;488.446881151642
315.22687153784;488.16822812661
315.248497389954;487.829401835731
315.270123242069;487.424254743895
315.291749094183;486.953966386259
315.313374946297;486.416634243023
315.335000798411;485.812573407643
315.356626650525;485.147120255323
315.37825250264;484.408833520835
315.399878354754;483.580460029962
315.421504206868;482.655542368584
315.443130058982;481.65344439972
315.464755911096;480.624099736104
315.486381763211;479.58936828569
315.508007615325;478.53118361406
315.529633467439;477.411793609171
315.551259319553;476.240543907427
315.572885171667;475.08919941699
315.594511023782;474.002620544719
315.616136875896;472.967307507827
315.63776272801;471.961820071673
315.659388580124;470.975618203576
315.681014432238;469.996140423301
315.702640284353;469.043879600374
315.724266136467;468.176928107358
315.745891988581;467.406042064117
315.767517840695;466.761286468249
315.789143692809;466.245723165713
315.810769544924;465.826358241548
315.832395397038;465.48096237678
315.854021249152;465.201913721833
315.875647101266;464.981479620301
315.89727295338;464.812034524476
315.918898805494;464.685543559178
315.940524657609;464.599309542457
315.962150509723;464.54871946586
315.983776361837;464.526626089718
316.005402213951;464.524789599716
316.027028066065;464.537964172233
316.04865391818;464.566851641249
316.070279770294;464.612078889047
316.091905622408;464.662309656107
316.113531474522;464.703273373427
316.135157326636;464.739881643527
316.156783178751;464.773127357522
316.178409030865;464.794016793678
316.200034882979;464.793146398035
316.221660735093;464.755491981627
316.243286587207;464.662855582073
316.264912439322;464.507903651852
316.286538291436;464.295611959323
316.30816414355;464.023197044804
316.329789995664;463.68375996584
316.351415847778;463.283542170836
316.373041699893;462.825774272446
316.394667552007;462.295899828812
316.416293404121;461.684695743919
316.437919256235;461.010927395017
316.459545108349;460.320308667273
316.481170960464;459.638138099571
316.502796812578;458.950961932286
316.524422664692;458.242711281733
316.546048516806;457.520679328648
316.56767436892;456.79741441482
316.589300221034;456.063964271177
316.610926073149;455.326282581154
316.632551925263;454.630049787248
316.654177777377;453.986082976147
316.675803629491;453.386646313393
316.697429481605;452.82482184307
316.71905533372;452.289863796943
316.740681185834;451.78710924491
316.762307037948;451.322358012098
316.783932890062;450.892834675366
316.805558742176;450.487756894153
316.827184594291;450.093982712301
316.848810446405;449.706324163846
316.870436298519;449.315514478968
316.892062150633;448.92182232448
316.913688002747;448.521987237324
316.935313854862;448.11277890259
316.956939706976;447.711807595128
316.97856555909;447.321619959897
317.000191411204;446.930790987436
317.021817263318;446.535997032543
317.043443115433;446.131796458798
317.065068967547;445.72059680816
317.086694819661;445.315486852343
317.108320671775;444.945156109259
317.129946523889;444.6136606279
317.151572376004;444.314927532277
317.173198228118;444.049436743519
317.194824080232;443.810655765464
317.216449932346;443.586762317936
317.23807578446;443.369271183141
317.259701636575;443.165170240176
317.281327488689;442.977887962156
317.302953340803;442.800990120008
317.324579192917;442.625601555936
317.346205045031;442.442190580068
317.367830897146;442.245989604671
317.38945674926;442.051722278131
317.411082601374;441.851066389259
317.432708453488;441.626541887067
317.454334305602;441.384669619709
317.475960157716;441.137496632776
317.497586009831;440.884665447373
317.519211861945;440.616221695675
317.540837714059;440.313409553476
317.562463566173;439.954913526402
317.584089418287;439.526607650025
317.605715270402;439.035583323772
317.627341122516;438.483459229005
317.64896697463;437.867795846734
317.670592826744;437.20619979985
317.692218678858;436.515809765512
317.713844530973;435.784938921218
317.735470383087;434.986510763425
317.757096235201;434.127289471913
317.778722087315;433.257419605283
317.800347939429;432.440440086815
317.821973791544;431.722359730226
317.843599643658;431.110376511795
317.865225495772;430.599723507898
317.886851347886;430.189123840675
317.9084772;429.882732049384
317.930103052115;429.682845654577
317.951728904229;429.586594554304
317.973354756343;429.582424649544
317.994980608457;429.655861964058
318.016606460571;429.793625770544
318.038232312686;429.976570758124
318.0598581648;430.184521342837
318.081484016914;430.398449732245
318.103109869028;430.60290399869
318.124735721142;430.782043169408
318.146361573257;430.926148484156
318.167987425371;431.033225964995
318.189613277485;431.101872868263
318.211239129599;431.127145189464
318.232864981713;431.100737129775
318.254490833827;431.022500513202
318.276116685942;430.89551565512
318.297742538056;430.717600549639
318.31936839017;430.483639083396
318.340994242284;430.189376502702
318.362620094398;429.840551133678
318.384245946513;429.457639844074
318.405871798627;429.055028004728
318.427497650741;428.639640945089
318.449123502855;428.212969145626
318.470749354969;427.786537230081
318.492375207084;427.368552919818
318.514001059198;426.963501577365
318.535626911312;426.580506759069
318.557252763426;426.223682628455
318.57887861554;425.885143900145
318.600504467655;425.548395597838
318.622130319769;425.218488968972
318.643756171883;424.900517771442
318.665382023997;424.59328592575
318.687007876111;424.292219372767
318.708633728226;423.991299044266
318.73025958034;423.68445102395
318.751885432454;423.357850307521
318.773511284568;422.997592442726
318.795137136682;422.599959488748
318.816762988796;422.15939048426
318.838388840911;421.682328227538
318.860014693025;421.173595393525
318.881640545139;420.619799392041
318.903266397253;419.99677582642
318.924892249367;419.291036934205
318.946518101482;418.532677074278
318.968143953596;417.741053556922
318.98976980571;416.920122415048
319.011395657824;416.061985892638
319.033021509938;415.192242873235
319.054647362053;414.352443985395
319.076273214167;413.5566911032
319.097899066281;412.789862495829
319.119524918395;412.057603493391
319.141150770509;411.376624549761
319.162776622624;410.750950681654
319.184402474738;410.166039139774
319.206028326852;409.603266967925
319.227654178966;409.061002626926
319.24928003108;408.54357985284
319.270905883195;408.055557114523
319.292531735309;407.602929859605
319.314157587423;407.170767380323
319.335783439537;406.733586536641
319.357409291651;406.282278118703
319.379035143766;405.840799892323
319.40066099588;405.429920219492
319.422286847994;405.046728263192
319.443912700108;404.685512077698
319.465538552222;404.339057497015
319.487164404337;403.998035394443
319.508790256451;403.66400378771
319.530416108565;403.343233348014
319.552041960679;403.029477810102
319.573667812793;402.706660211821
319.595293664908;402.366273157085
319.616919517022;402.018491479589
319.638545369136;401.673485637081
319.66017122125;401.332093911933
319.681797073364;400.993483174071
319.703422925478;400.660309034653
319.725048777593;400.331429948595
319.746674629707;400.008000749107
319.768300481821;399.701006762192
319.789926333935;399.423499643544
319.811552186049;399.172748693064
319.833178038164;398.940061603438
319.854803890278;398.732532414868
319.876429742392;398.556685213588
319.898055594506;398.419723402848
319.91968144662;398.322468109116
319.941307298735;398.258532849949
319.962933150849;398.223973682266
319.984559002963;398.222281995891
320.006184855077;398.266099178117
320.027810707191;398.378684307409
320.049436559306;398.570406888191
320.07106241142;398.825357076229
320.092688263534;399.139951065835
320.114314115648;399.521432950148
320.135939967762;399.959011430809
320.157565819877;400.440943991165
320.179191671991;400.947713775223
320.200817524105;401.461647600364
320.222443376219;401.978568932858
320.244069228333;402.489675297153
320.265695080448;402.961461028781
320.287320932562;403.356176630328
320.308946784676;403.644420065016
320.33057263679;403.804683437523
320.352198488904;403.813473751901
320.373824341019;403.646007320441
320.395450193133;403.283796265441
320.417076045247;402.703182234644
320.438701897361;401.903758690398
320.460327749475;400.877912674027
320.481953601589;399.603032030227
320.503579453704;398.098265909692
320.525205305818;396.467785031564
320.546831157932;394.748284340718
320.568457010046;392.967424604043
320.59008286216;391.146665762681
320.611708714275;389.301429687548
320.633334566389;387.465227419757
320.654960418503;385.711393228492
320.676586270617;384.130364069657
320.698212122731;382.745178054081
320.719837974846;381.529905627594
320.74146382696;380.471884971569
320.763089679074;379.555961619585
320.784715531188;378.759220135842
320.806341383302;378.049618467979
320.827967235417;377.429035799955
320.849593087531;376.904596863974
320.871218939645;376.452373006714
320.892844791759;376.037493774378
320.914470643873;375.649417081111
320.936096495988;375.286402580081
320.957722348102;374.937262623768
320.979348200216;374.578607768513
321.00097405233;374.176458806022
321.022599904444;373.706049594274
321.044225756559;373.183492053834
321.065851608673;372.617394867861
321.087477460787;371.990759290284
321.109103312901;371.297781143066
321.130729165015;370.539722364347
321.152355017129;369.704473169168
321.173980869244;368.778116255851
321.195606721358;367.766328705162
321.217232573472;366.741503711445
321.238858425586;365.738350528243
321.2604842777;364.783664644516
321.282110129815;363.926785160189
321.303735981929;363.172821320326
321.325361834043;362.507346545336
321.346987686157;361.957050548953
321.368613538271;361.545292491605
321.390239390386;361.264597779594
321.4118652425;361.122947271595
321.433491094614;361.121233121901
321.455116946728;361.24569456688
321.476742798842;361.488155306203
321.498368650957;361.856419535252
321.519994503071;362.325772636525
321.541620355185;362.855256250698
321.563246207299;363.419948019688
321.584872059413;363.996467984942
321.606497911528;364.576350808694
321.628123763642;365.165832356963
321.649749615756;365.77224682053
321.67137546787;366.378019241933
321.693001319984;366.94262234934
321.714627172099;367.452991859673
321.736253024213;367.899820959561
321.757878876327;368.267988836406
321.779504728441;368.541395571604
321.801130580555;368.712195032005
321.82275643267;368.783181975487
321.844382284784;368.75104505262
321.866008136898;368.626721346837
321.887633989012;368.393659829668
321.909259841126;368.041029995973
321.930885693241;367.586758181695
321.952511545355;367.051557056183
321.974137397469;366.465857131724
321.995763249583;365.849516288498
322.017389101697;365.219739249722
322.039014953811;364.58565304788
322.060640805926;363.918063073945
322.08226665804;363.199486248932
322.103892510154;362.465893376482
322.125518362268;361.753853645908
322.147144214382;361.069916357437
322.168770066497;360.383993001801
322.190395918611;359.698793578172
322.212021770725;359.015406825549
322.233647622839;358.312469461238
322.255273474953;357.590791844914
322.276899327068;356.872096722006
322.298525179182;356.163077028249
322.320151031296;355.457953646172
322.34177688341;354.761221374753
322.363402735524;354.085944978038
322.385028587639;353.433317949312
322.406654439753;352.813347629108
322.428280291867;352.207190644959
322.449906143981;351.596738776871
322.471531996095;350.98880804191
322.49315784821;350.394101717314
322.514783700324;349.817513342634
322.536409552438;349.263288619545
322.558035404552;348.703226034352
322.579661256666;348.11364120838
322.601287108781;347.522817464925
322.622912960895;346.957671642149
322.644538813009;346.403749949681
322.666164665123;345.840188849573
322.687790517237;345.25663655548
322.709416369352;344.672947723362
322.731042221466;344.079196267316
322.75266807358;343.472733635681
322.774293925694;342.877096855546
322.795919777808;342.300476961225
322.817545629922;341.719153829419
322.839171482037;341.107521130711
322.860797334151;340.476377933296
322.882423186265;339.841162011946
322.904049038379;339.201536617631
322.925674890493;338.551459273227
322.947300742608;337.901254715891
322.968926594722;337.28468721579
322.990552446836;336.712559507308
323.01217829895;336.157314909541
323.033804151064;335.602829850684
323.055430003179;335.058325386033
323.077055855293;334.537096866766
323.098681707407;334.044736441318
323.120307559521;333.582789184335
323.141933411635;333.152886680063
323.16355926375;332.751728175479
323.185185115864;332.377657257557
323.206810967978;332.030906002527
323.228436820092;331.7111249681
323.250062672206;331.417705296908
323.271688524321;331.152362202815
323.293314376435;330.914411884515
323.314940228549;330.718657499873
323.336566080663;330.560144169691
323.358191932777;330.424946845914
323.379817784892;330.301813389763
323.401443637006;330.186025518004
323.42306948912;330.073612365619
323.444695341234;329.956960722811
323.466321193348;329.811680096894
323.487947045462;329.618402618925
323.509572897577;329.375076106583
323.531198749691;329.085926795875
323.552824601805;328.75120439968
323.574450453919;328.362483281597
323.596076306033;327.912013365158
323.617702158148;327.40432481044
323.639328010262;326.872664001689
323.660953862376;326.343246375264
323.68257971449;325.810720703632
323.704205566604;325.268827367509
323.725831418719;324.733939784366
323.747457270833;324.232715798601
323.769083122947;323.768924338523
323.790708975061;323.334877265039
323.812334827175;322.92983131578
323.83396067929;322.553406019337
323.855586531404;322.187946711179
323.877212383518;321.8034481924
323.898838235632;321.371429682821
323.920464087746;320.884295069436
323.942089939861;320.327972490339
323.963715791975;319.696077248387
323.985341644089;318.984790878499
324.006967496203;318.156888634492
324.028593348317;317.183430693413
324.050219200432;316.104947375071
324.071845052546;314.950737876522
324.09347090466;313.701223503936
324.115096756774;312.350775245171
324.136722608888;310.96639601971
324.158348461003;309.579611262488
324.179974313117;308.176301011581
324.201600165231;306.734563335125
324.223226017345;305.267314972012
324.244851869459;303.818094281901
324.266477721573;302.42717883301
324.288103573688;301.067410591799
324.309729425802;299.692666603387
324.331355277916;298.329788268077
324.35298113003;297.088095676318
324.374606982144;295.974134523792
324.396232834259;294.910846729648
324.417858686373;293.8452156871
324.439484538487;292.781786251747
324.461110390601;291.734765795535
324.482736242715;290.696401711911
324.50436209483;289.665627961328
324.525987946944;288.633183622594
324.547613799058;287.59254974131
324.569239651172;286.555716614823
324.590865503286;285.505592778416
324.612491355401;284.396927594618
324.634117207515;283.191399043454
324.655743059629;281.884276315248
324.677368911743;280.490741435207
324.698994763857;279.058493002314
324.720620615972;277.633117541995
324.742246468086;276.242109880559
324.7638723202;274.886594053095
324.785498172314;273.600789013807
