Name;ESR_BC_1_14400s_Y_gon_120dg_result

Recipe
Accumulations;5;Number of accumulations
RetryCount;0;Number of retries on error
AbortOnError;True;Abort on error
EnableQFactorMeasurement;False;Enable/Disable q-Factor measurement
Bfrom;313;B from
Bto;363;B to
SweepTime;60;Sweep time
Modulation;0.2;Modulation
ModulationFreq;100;Modulation
BHoldEnabled;False;B hold enabled
BHold;0;B hold
MicrowavePower;2;Microwave power
MarkerEnabled;False;
MarkerStartField;0;
MarkerEndField;0;
Mode;;
KineticGFact;0;
KineticTotalTransientTime;0;
KineticTimeResolution;0;
TempFrom;5;
TempUseSlope;False;
TempTo;5;
TempdT;1;
TempSetupTime;0;
GonFrom;0;
GonTo;180;
GonSteps;20;
XRayEnabled;False;
XRayTime;3;
XRayVoltage;40;
XRayCurrent;0.5;
UVEnabled;False;
UVIntensity;0;
UVTime;0;
UVLeadTime;0;
UVWavelength;0;
PowSweepFrom;1;
PowSweepTo;5;
PowSweepSteps;5;
AmpModSweepFrom;0;
AmpModSweepTo;1;
AmpModSweepSteps;10;
ExtTriggerEnabled;False;
ExtTrigLeadTime;0;
ExtTrigOnTime;5;

Meas
BField [mT];MW_Absorption []
313.012559509277;176.264832334154
313.034180930586;175.301756131972
313.055802351895;174.25661262598
313.077423773204;173.138358269186
313.099045194513;171.945552121042
313.120666615822;170.690212345352
313.14228803713;169.414407145148
313.163909458439;168.156511189057
313.185530879748;166.897776584755
313.207152301057;165.632128854897
313.228773722366;164.404197696353
313.250395143675;163.274943582478
313.272016564984;162.255667488845
313.293637986292;161.345564584942
313.315259407601;160.543605270689
313.33688082891;159.838331254163
313.358502250219;159.232915841321
313.380123671528;158.771287973115
313.401745092837;158.465843228692
313.423366514146;158.279096046219
313.444987935454;158.183179200471
313.466609356763;158.169940458593
313.488230778072;158.230400142037
313.509852199381;158.348912930863
313.53147362069;158.513243721873
313.553095041999;158.716392810171
313.574716463308;158.948261215159
313.596337884617;159.201370148937
313.617959305925;159.467472770068
313.639580727234;159.733806697634
313.661202148543;159.986553686059
313.682823569852;160.222011963915
313.704444991161;160.440419063096
313.72606641247;160.642813181032
313.747687833779;160.818679329705
313.769309255087;160.96345652638
313.790930676396;161.084711969038
313.812552097705;161.180970605233
313.834173519014;161.245906839672
313.855794940323;161.27544117741
313.877416361632;161.266147819068
313.899037782941;161.224585528741
313.920659204249;161.155223905808
313.942280625558;161.04982664083
313.963902046867;160.894910700063
313.985523468176;160.687887342094
314.007144889485;160.449396122189
314.028766310794;160.206860166287
314.050387732103;159.972141436093
314.072009153411;159.740640893559
314.09363057472;159.507100491039
314.115251996029;159.274397470402
314.136873417338;159.047244946996
314.158494838647;158.82496757503
314.180116259956;158.609780758727
314.201737681265;158.407088502097
314.223359102573;158.214722652763
314.244980523882;158.027948503514
314.266601945191;157.847085759859
314.2882233665;157.670119223134
314.309844787809;157.508657513695
314.331466209118;157.376778195187
314.353087630427;157.283127449184
314.374709051735;157.223539097226
314.396330473044;157.196094053319
314.417951894353;157.212748942638
314.439573315662;157.288143874477
314.461194736971;157.419627671324
314.48281615828;157.58051930092
314.504437579589;157.763650796193
314.526059000898;157.979663089062
314.547680422206;158.220001968944
314.569301843515;158.464282002766
314.590923264824;158.683062347519
314.612544686133;158.869808735788
314.634166107442;159.022137335489
314.655787528751;159.124529324017
314.67740895006;159.170772698888
314.699030371368;159.160353287055
314.720651792677;159.093382145689
314.742273213986;158.969946860431
314.763894635295;158.792046224104
314.785516056604;158.570047942135
314.807137477913;158.305944329156
314.828758899222;158.007435980308
314.85038032053;157.705549731635
314.872001741839;157.41430537373
314.893623163148;157.124688489569
314.915244584457;156.824758966515
314.936866005766;156.518856692288
314.958487427075;156.227708243002
314.980108848384;155.97548649086
315.001730269692;155.757355494023
315.023351691001;155.559018839072
315.04497311231;155.376234804915
315.066594533619;155.216476151685
315.088215954928;155.089637747074
315.109837376237;154.997526414654
315.131458797546;154.934174003067
315.153080218854;154.896606731558
315.174701640163;154.889739479312
315.196323061472;154.92060811725
315.217944482781;154.985241028843
315.23956590409;155.073006859344
315.261187325399;155.176374685208
315.282808746708;155.291419029452
315.304430168016;155.411230191432
315.326051589325;155.524351304136
315.347673010634;155.611898024079
315.369294431943;155.670651016818
315.390915853252;155.707862343368
315.412537274561;155.706365449898
315.43415869587;155.656606541594
315.455780117179;155.569498407118
315.477401538487;155.455360195341
315.499022959796;155.32231999055
315.520644381105;155.182235174348
315.542265802414;155.052637555689
315.563887223723;154.941931767279
315.585508645032;154.852218661648
315.607130066341;154.79424510967
315.628751487649;154.781151697473
315.650372908958;154.809345001946
315.671994330267;154.871070979966
315.693615751576;154.966880886034
315.715237172885;155.093644771745
315.736858594194;155.239741145046
315.758480015503;155.397983427496
315.780101436811;155.571399611143
315.80172285812;155.747167773018
315.823344279429;155.915501981962
315.844965700738;156.073113244382
315.866587122047;156.209494099852
315.888208543356;156.315560031924
315.909829964665;156.398277886421
315.931451385973;156.467846579118
315.953072807282;156.529667823583
315.974694228591;156.59343956396
315.9963156499;156.674257712518
316.017937071209;156.77757826945
316.039558492518;156.896472433433
316.061179913827;157.026447192407
316.082801335135;157.168959021502
316.104422756444;157.326158057151
316.126044177753;157.500440636111
316.147665599062;157.690489171801
316.169287020371;157.884375167083
316.19090844168;158.06851840996
316.212529862989;158.233319762552
316.234151284297;158.370678189607
316.255772705606;158.480599582453
316.277394126915;158.566671669964
316.299015548224;158.632428055178
316.320636969533;158.676305876084
316.342258390842;158.696683940381
316.363879812151;158.697451920872
316.385501233459;158.682370215365
316.407122654768;158.653559902804
316.428744076077;158.613366078521
316.450365497386;158.569279700593
316.471986918695;158.530844068309
316.493608340004;158.500202281228
316.515229761313;158.475674183044
316.536851182621;158.457553644258
316.55847260393;158.451019837978
316.580094025239;158.454602279644
316.601715446548;158.447734514934
316.623336867857;158.422533424891
316.644958289166;158.386350444008
316.666579710475;158.340718198744
316.688201131784;158.280059930574
316.709822553092;158.198101350638
316.731443974401;158.093000635679
316.75306539571;157.974732309388
316.774686817019;157.855221835375
316.796308238328;157.736290514418
316.817929659637;157.615164714036
316.839551080946;157.492031416475
316.861172502254;157.368195732775
316.882793923563;157.247162860492
316.904415344872;157.136621490495
316.926036766181;157.041177355267
316.94765818749;156.954850374993
316.969279608799;156.872268666393
316.990901030108;156.794798299189
317.012522451416;156.723258148215
317.034143872725;156.657360975656
317.055765294034;156.601089451972
317.077386715343;156.559675068214
317.099008136652;156.535261024478
317.120629557961;156.525358493403
317.14225097927;156.5257025363
317.163872400578;156.534329512629
317.185493821887;156.550904198066
317.207115243196;156.578260369446
317.228736664505;156.62449799608
317.250358085814;156.68667116185
317.271979507123;156.757303956872
317.293600928432;156.835561276715
317.31522234974;156.924341020852
317.336843771049;157.020684162571
317.358465192358;157.118635044618
317.380086613667;157.211460360874
317.401708034976;157.297078045099
317.423329456285;157.375739224178
317.444950877594;157.446253159498
317.466572298902;157.506809294266
317.488193720211;157.550114773252
317.50981514152;157.573620181187
317.531436562829;157.581080312607
317.553057984138;157.573205831079
317.574679405447;157.544679221018
317.596300826756;157.479810035902
317.617922248064;157.377325455443
317.639543669373;157.251324577802
317.661165090682;157.097148033453
317.682786511991;156.913294772575
317.7044079333;156.704806387396
317.726029354609;156.479220708723
317.747650775918;156.244791986092
317.769272197226;156.007022453767
317.790893618535;155.766409695772
317.812515039844;155.522273957993
317.834136461153;155.276634360223
317.855757882462;155.032179867953
317.877379303771;154.797403481406
317.89900072508;154.578673476413
317.920622146389;154.370618136472
317.942243567697;154.157755550148
317.963864989006;153.925460846011
317.985486410315;153.671409270116
318.007107831624;153.394253284907
318.028729252933;153.091579416097
318.050350674242;152.769661186741
318.071972095551;152.432789121601
318.093593516859;152.08496807145
318.115214938168;151.728385515571
318.136836359477;151.357757473149
318.158457780786;150.969677634393
318.180079202095;150.575729848027
318.201700623404;150.196495001308
318.223322044713;149.838388603853
318.244943466021;149.492399136025
318.26656488733;149.15950844689
318.288186308639;148.856494919778
318.309807729948;148.588551698397
318.331429151257;148.347073972773
318.353050572566;148.121752883939
318.374671993875;147.899720495539
318.396293415183;147.670939834753
318.417914836492;147.433329669037
318.439536257801;147.182201521932
318.46115767911;146.915902818942
318.482779100419;146.652637070459
318.504400521728;146.40497542874
318.526021943037;146.169197717226
318.547643364345;145.937818140838
318.569264785654;145.706872812882
318.590886206963;145.474554600575
318.612507628272;145.238102267263
318.634129049581;144.990658173522
318.65575047089;144.72170881498
318.677371892199;144.42627206687
318.698993313507;144.116310906548
318.720614734816;143.777426012106
318.742236156125;143.38368644858
318.763857577434;142.925225700224
318.785478998743;142.411382137627
318.807100420052;141.845533618701
318.828721841361;141.220854234553
318.85034326267;140.553046104234
318.871964683978;139.870482665846
318.893586105287;139.19939050767
318.915207526596;138.561858957302
318.936828947905;137.96405334191
318.958450369214;137.39221337841
318.980071790523;136.837146517186
319.001693211832;136.322378925282
319.02331463314;135.873296227012
319.044936054449;135.484268261057
319.066557475758;135.143623289222
319.088178897067;134.852377265613
319.109800318376;134.601210373372
319.131421739685;134.378185205314
319.153043160994;134.175744449623
319.174664582302;133.989208862429
319.196286003611;133.809089605284
319.21790742492;133.62203148624
319.239528846229;133.428047091324
319.261150267538;133.226761588087
319.282771688847;133.01335405881
319.304393110156;132.786988549465
319.326014531464;132.547969956089
319.347635952773;132.306430072262
319.369257374082;132.063475765819
319.390878795391;131.818780552253
319.4125002167;131.580069150232
319.434121638009;131.359042450955
319.455743059318;131.158514992091
319.477364480626;130.976158418014
319.498985901935;130.818229737587
319.520607323244;130.690880157711
319.542228744553;130.593905144865
319.563850165862;130.523345184388
319.585471587171;130.475153988878
319.60709300848;130.441033963548
319.628714429788;130.408398918529
319.650335851097;130.371118958527
319.671957272406;130.328672971653
319.693578693715;130.277520547647
319.715200115024;130.21422166105
319.736821536333;130.135941914336
319.758442957642;130.040362318318
319.780064378951;129.931395261394
319.801685800259;129.821823119402
319.823307221568;129.717864958754
319.844928642877;129.620087645373
319.866550064186;129.524669369975
319.888171485495;129.418672177743
319.909792906804;129.294816709129
319.931414328113;129.155083002841
319.953035749421;128.992068419215
319.97465717073;128.801534218604
319.996278592039;128.589904429347
320.017900013348;128.353653808062
320.039521434657;128.080318863307
320.061142855966;127.75953599285
320.082764277275;127.391998991817
320.104385698583;126.987130425135
320.126007119892;126.55260047193
320.147628541201;126.093818539693
320.16924996251;125.635446965024
320.190871383819;125.192806462642
320.212492805128;124.758453572421
320.234114226437;124.328736235075
320.255735647745;123.928598804214
320.277357069054;123.583155955194
320.298978490363;123.292139132813
320.320599911672;123.044585174179
320.342221332981;122.831407750189
320.36384275429;122.643766318377
320.385464175599;122.470959925364
320.407085596907;122.29946535236
320.428707018216;122.125574723772
320.450328439525;121.949180934209
320.471949860834;121.758509568347
320.493571282143;121.535920545915
320.515192703452;121.266839365265
320.536814124761;120.956070441494
320.558435546069;120.62625322224
320.580056967378;120.284720918537
320.601678388687;119.923591182139
320.623299809996;119.532729528734
320.644921231305;119.106584492605
320.666542652614;118.666642270328
320.688164073923;118.239587625747
320.709785495231;117.827934016446
320.73140691654;117.424493170847
320.753028337849;117.035826919791
320.774649759158;116.678426739201
320.796271180467;116.356099782987
320.817892601776;116.073458864117
320.839514023085;115.839984834585
320.861135444393;115.657188829047
320.882756865702;115.51323475944
320.904378287011;115.396280304321
320.92599970832;115.296760262855
320.947621129629;115.204774187387
320.969242550938;115.111344245214
320.990863972247;115.008546135222
321.012485393555;114.889480341929
321.034106814864;114.752208011797
321.055728236173;114.598202692666
321.077349657482;114.432306844619
321.098971078791;114.261649654677
321.1205925001;114.091891005293
321.142213921409;113.930430189323
321.163835342718;113.788286653343
321.185456764026;113.667643178144
321.207078185335;113.559875288771
321.228699606644;113.453094559153
321.250321027953;113.340483634656
321.271942449262;113.2317642
321.293563870571;113.134219578134
321.31518529188;113.043544116849
321.336806713188;112.956059220487
321.358428134497;112.866488565762
321.380049555806;112.766520118395
321.401670977115;112.649306063084
321.423292398424;112.511467228116
321.444913819733;112.355165180029
321.466535241042;112.183878166682
321.48815666235;111.997346471684
321.509778083659;111.797035364519
321.531399504968;111.592601180246
321.553020926277;111.384970807788
321.574642347586;111.166683316596
321.596263768895;110.943263263148
321.617885190204;110.726785779593
321.639506611512;110.522124117763
321.661128032821;110.333158269959
321.68274945413;110.159797901226
321.704370875439;109.99828235273
321.725992296748;109.843750361086
321.747613718057;109.720931327132
321.769235139366;109.655360266387
321.790856560674;109.627632426091
321.812477981983;109.62258567251
321.834099403292;109.63170111595
321.855720824601;109.644780609162
321.87734224591;109.649026213098
321.898963667219;109.637048367429
321.920585088528;109.599042408654
321.942206509836;109.522645768216
321.963827931145;109.397660285779
321.985449352454;109.213049613234
322.007070773763;108.966047515174
322.028692195072;108.654676712814
322.050313616381;108.279539064199
322.07193503769;107.831748804938
322.093556458998;107.294595514334
322.115177880307;106.664871327978
322.136799301616;105.970667250788
322.158420722925;105.256113915291
322.180042144234;104.508750378011
322.201663565543;103.717873183335
322.223284986852;102.928446840955
322.244906408161;102.191618793563
322.266527829469;101.543279450275
322.288149250778;100.977991882897
322.309770672087;100.48222350095
322.331392093396;100.083694572409
322.353013514705;99.7977895422174
322.374634936014;99.6144333079058
322.396256357323;99.5235295851019
322.417877778631;99.5254576843645
322.43949919994;99.5988252622461
322.461120621249;99.7197304849138
322.482742042558;99.8714008714816
322.504363463867;100.037753095511
322.525984885176;100.201186519083
322.547606306485;100.352691133049
322.569227727793;100.498263702858
322.590849149102;100.643106757334
322.612470570411;100.768486782456
322.63409199172;100.866746536298
322.655713413029;100.944514189087
322.677334834338;101.007572832872
322.698956255647;101.060129667799
322.720577676955;101.106278285375
322.742199098264;101.147322339803
322.763820519573;101.183004538454
322.785441940882;101.213576784914
322.807063362191;101.236273339439
322.8286847835;101.244347977735
322.850306204809;101.235170023898
322.871927626117;101.208315449823
322.893549047426;101.15674195257
322.915170468735;101.076339692323
322.936791890044;100.965460312535
322.958413311353;100.838857753824
322.980034732662;100.697892344378
323.001656153971;100.538525277412
323.02327757528;100.362918432017
323.044898996588;100.18109578997
323.066520417897;99.9935143146897
323.088141839206;99.8062211396584
323.109763260515;99.630873113835
323.131384681824;99.4621261893555
323.153006103133;99.2841371767967
323.174627524442;99.0907239117399
323.19624894575;98.9060626861818
323.217870367059;98.75007957878
323.239491788368;98.6127114194728
323.261113209677;98.4883410259303
323.282734630986;98.3741535968249
323.304356052295;98.268681889824
323.325977473604;98.17274286407
323.347598894912;98.0915695651202
323.369220316221;98.0272634164898
323.39084173753;97.9753388307529
323.412463158839;97.9400264839071
323.434084580148;97.9103020348576
323.455706001457;97.8753476335247
323.477327422766;97.8416299929544
323.498948844074;97.8100858581394
323.520570265383;97.7672596165913
323.542191686692;97.7067604195584
323.563813108001;97.6300586110047
323.58543452931;97.5474064732743
323.607055950619;97.4689718876836
323.628677371928;97.3963907854023
323.650298793236;97.327394279648
323.671920214545;97.2592883389271
323.693541635854;97.1901597497317
323.715163057163;97.1175687117438
323.736784478472;97.0387127121572
323.758405899781;96.9487943717512
323.78002732109;96.8417145313479
323.801648742398;96.7143134040775
323.823270163707;96.5575350256417
323.844891585016;96.3684202278224
323.866513006325;96.1537502206119
323.888134427634;95.9165915276797
323.909755848943;95.6603285086132
323.931377270252;95.3862236361612
323.95299869156;95.10674835675
323.974620112869;94.8389172302375
323.996241534178;94.5927555550198
324.017862955487;94.3721141759456
324.039484376796;94.1787525556814
324.061105798105;94.017562809187
324.082727219414;93.8932955461274
324.104348640722;93.7979681053518
324.125970062031;93.718839425598
324.14759148334;93.6505382988956
324.169212904649;93.590921944075
324.190834325958;93.5416802107414
324.212455747267;93.4974165382217
324.234077168576;93.4511851458574
324.255698589885;93.3977846462321
324.277320011193;93.332457132666
324.298941432502;93.2535652931618
324.320562853811;93.161991132476
324.34218427512;93.0553676122546
324.363805696429;92.9285985856111
324.385427117738;92.778247153575
324.407048539047;92.6068306011845
324.428669960355;92.4062013648976
324.450291381664;92.1792103046327
324.471912802973;91.9313871160203
324.493534224282;91.6573558575609
324.515155645591;91.3627219589138
324.5367770669;91.0645198832248
324.558398488209;90.7718077474878
324.580019909517;90.4882384949653
324.601641330826;90.2199602804883
324.623262752135;89.9650017094905
324.644884173444;89.7174205200338
324.666505594753;89.4857515224414
324.688127016062;89.2827015215202
324.709748437371;89.1025285321668
324.731369858679;88.9341628243268
324.752991279988;88.7701291353454
324.774612701297;88.6118017710949
