Name;ESR_BC_1_840s_X_gon_120dg_result

Recipe
Accumulations;5;Number of accumulations
RetryCount;0;Number of retries on error
AbortOnError;True;Abort on error
EnableQFactorMeasurement;False;Enable/Disable q-Factor measurement
Bfrom;313;B from
Bto;363;B to
SweepTime;60;Sweep time
Modulation;0.2;Modulation
ModulationFreq;100;Modulation
BHoldEnabled;False;B hold enabled
BHold;0;B hold
MicrowavePower;2;Microwave power
MarkerEnabled;False;
MarkerStartField;0;
MarkerEndField;0;
Mode;;
KineticGFact;0;
KineticTotalTransientTime;0;
KineticTimeResolution;0;
TempFrom;5;
TempUseSlope;False;
TempTo;5;
TempdT;1;
TempSetupTime;0;
GonFrom;0;
GonTo;180;
GonSteps;20;
XRayEnabled;False;
XRayTime;3;
XRayVoltage;40;
XRayCurrent;0.5;
UVEnabled;False;
UVIntensity;0;
UVTime;0;
UVLeadTime;0;
UVWavelength;0;
PowSweepFrom;1;
PowSweepTo;5;
PowSweepSteps;5;
AmpModSweepFrom;0;
AmpModSweepTo;1;
AmpModSweepSteps;10;
ExtTriggerEnabled;False;
ExtTrigLeadTime;0;
ExtTrigOnTime;5;

Meas
BField [mT];MW_Absorption []
313.01832649231;550.14709305625
313.039953917169;549.732078834627
313.061581342028;549.300316662029
313.083208766888;548.852361452908
313.104836191747;548.396425855182
313.126463616606;547.927084248798
313.148091041466;547.422393041407
313.169718466325;546.84818125214
313.191345891185;546.209228365028
313.212973316044;545.569343292676
313.234600740903;544.914738113387
313.256228165763;544.204293316821
313.277855590622;543.390287919436
313.299483015482;542.468872808849
313.321110440341;541.484119838394
313.3427378652;540.452873348916
313.36436529006;539.381658736754
313.385992714919;538.277394448219
313.407620139778;537.152015653609
313.429247564638;536.026499605611
313.450874989497;534.906881359724
313.472502414357;533.788676170507
313.494129839216;532.675719165322
313.515757264075;531.579650553361
313.537384688935;530.501784020918
313.559012113794;529.434053821558
313.580639538653;528.374487456885
313.602266963513;527.336218368783
313.623894388372;526.337344701397
313.645521813232;525.370117901712
313.667149238091;524.403809981059
313.68877666295;523.434903724114
313.71040408781;522.499832583172
313.732031512669;521.609579560772
313.753658937529;520.73937653629
313.775286362388;519.88638821712
313.796913787247;519.071375299135
313.818541212107;518.286111124365
313.840168636966;517.531610243152
313.861796061825;516.816735741009
313.883423486685;516.122322430771
313.905050911544;515.430806197078
313.926678336404;514.740819316936
313.948305761263;514.068987573361
313.969933186122;513.421414457204
313.991560610982;512.791532112265
314.013188035841;512.165523190612
314.034815460701;511.521931223
314.05644288556;510.848590281644
314.078070310419;510.155994842547
314.099697735279;509.464637129427
314.121325160138;508.794267844425
314.142952584997;508.157069526138
314.164580009857;507.550596144673
314.186207434716;506.964880536393
314.207834859576;506.381417718102
314.229462284435;505.778883799888
314.251089709294;505.158699014756
314.272717134154;504.54531098752
314.294344559013;503.949001299191
314.315971983872;503.358311317587
314.337599408732;502.763497371044
314.359226833591;502.175807001513
314.380854258451;501.610174810504
314.40248168331;501.086335588246
314.424109108169;500.620058500486
314.445736533029;500.187628297071
314.467363957888;499.75278128386
314.488991382748;499.311284427814
314.510618807607;498.884240561229
314.532246232466;498.487419869572
314.553873657326;498.12017570961
314.575501082185;497.766033096565
314.597128507044;497.400978247511
314.618755931904;497.001136754284
314.640383356763;496.582244745161
314.662010781623;496.172548573177
314.683638206482;495.768941631446
314.705265631341;495.348511300401
314.726893056201;494.915064143536
314.74852048106;494.476174451758
314.770147905919;494.029931945613
314.791775330779;493.57214761109
314.813402755638;493.100371048877
314.835030180498;492.621398912245
314.856657605357;492.151110480061
314.878285030216;491.689573153892
314.899912455076;491.23267367331
314.921539879935;490.781222108634
314.943167304795;490.337744412179
314.964794729654;489.88718017682
314.986422154513;489.423421820205
315.008049579373;488.954053021428
315.029677004232;488.473629227827
315.051304429091;487.975605504735
315.072931853951;487.467657297614
315.09455927881;486.941192205376
315.11618670367;486.365533184347
315.137814128529;485.737011649861
315.159441553388;485.070893170064
315.181068978248;484.374714607057
315.202696403107;483.642093106935
315.224323827966;482.864550201686
315.245951252826;482.022854357871
315.267578677685;481.106973922792
315.289206102545;480.155230592989
315.310833527404;479.205349541447
315.332460952263;478.251366710276
315.354088377123;477.286545882164
315.375715801982;476.325021279367
315.397343226842;475.377185073841
315.418970651701;474.44434404498
315.44059807656;473.51036844953
315.46222550142;472.565862380813
315.483852926279;471.600433412032
315.505480351138;470.598330074749
315.527107775998;469.597143531666
315.548735200857;468.621703821588
315.570362625717;467.62836835979
315.591990050576;466.590139636762
315.613617475435;465.534066875741
315.635244900295;464.503999724396
315.656872325154;463.527361823402
315.678499750013;462.59516090822
315.700127174873;461.717639198
315.721754599732;460.888212657196
315.743382024592;460.076411899786
315.765009449451;459.296312498312
315.78663687431;458.590396073328
315.80826429917;457.962630929203
315.829891724029;457.391829941529
315.851519148889;456.852204065617
315.873146573748;456.331426630564
315.894773998607;455.807294809835
315.916401423467;455.277896804979
315.938028848326;454.755465861775
315.959656273185;454.250025362657
315.981283698045;453.749476202601
316.002911122904;453.245286898247
316.024538547764;452.738144773107
316.046165972623;452.229864719279
316.067793397482;451.706297981958
316.089420822342;451.160639761355
316.111048247201;450.590937057241
316.13267567206;450.013472704115
316.15430309692;449.440650498984
316.175930521779;448.857705281804
316.197557946639;448.236334424305
316.219185371498;447.562747787593
316.240812796357;446.853277457553
316.262440221217;446.121448770794
316.284067646076;445.365815656049
316.305695070936;444.574976201242
316.327322495795;443.754256346224
316.348949920654;442.930527339555
316.370577345514;442.112685883272
316.392204770373;441.286287394411
316.413832195232;440.441863663981
316.435459620092;439.601408423849
316.457087044951;438.819558363052
316.478714469811;438.12703419629
316.50034189467;437.518765259086
316.521969319529;436.992287686878
316.543596744389;436.54064523284
316.565224169248;436.153560706792
316.586851594108;435.820266403222
316.608479018967;435.524465376858
316.630106443826;435.259173967137
316.651733868686;435.017691788908
316.673361293545;434.777587488072
316.694988718404;434.520398629974
316.716616143264;434.250155464898
316.738243568123;433.962874081084
316.759870992983;433.644498595921
316.781498417842;433.321523173241
316.803125842701;433.01116522484
316.824753267561;432.707270249293
316.84638069242;432.411016298965
316.868008117279;432.136164783357
316.889635542139;431.89242095777
316.911262966998;431.681019565486
316.932890391858;431.500746051937
316.954517816717;431.350097031989
316.976145241576;431.22618859197
316.997772666436;431.125029842629
317.019400091295;431.03028387212
317.041027516155;430.922960741338
317.062654941014;430.792173356365
317.084282365873;430.620485895752
317.105909790733;430.382702716417
317.127537215592;430.055893344468
317.149164640451;429.620476912697
317.170792065311;429.060298046961
317.19241949017;428.368109372651
317.21404691503;427.586342258558
317.235674339889;426.761515022618
317.257301764748;425.867327242204
317.278929189608;424.889646650306
317.300556614467;423.85634006225
317.322184039326;422.82859135815
317.343811464186;421.821900212918
317.365438889045;420.838539657779
317.387066313905;419.855602528401
317.408693738764;418.850229291545
317.430321163623;417.832513148878
317.451948588483;416.863077600536
317.473576013342;415.972800440762
317.495203438202;415.134062919547
317.516830863061;414.317897158623
317.53845828792;413.558688631964
317.56008571278;412.865948343381
317.581713137639;412.198736076005
317.603340562498;411.544946944298
317.624967987358;410.961864143372
317.646595412217;410.468887798946
317.668222837077;410.031687295392
317.689850261936;409.616314505642
317.711477686795;409.207944171495
317.733105111655;408.803387949223
317.754732536514;408.394628882482
317.776359961373;407.963521556457
317.797987386233;407.499688766799
317.819614811092;406.990823748322
317.841242235952;406.429084602663
317.862869660811;405.834192119218
317.88449708567;405.217987262946
317.90612451053;404.567037613663
317.927751935389;403.8819267161
317.949379360249;403.181947162439
317.971006785108;402.490543629226
317.992634209967;401.807591790873
318.014261634827;401.101445276111
318.035889059686;400.407242658196
318.057516484545;399.756092011237
318.079143909405;399.126509300733
318.100771334264;398.487380070943
318.122398759124;397.841333811043
318.144026183983;397.184939067317
318.165653608842;396.503517344453
318.187281033702;395.799463588119
318.208908458561;395.079212427787
318.23053588342;394.344592630355
318.25216330828;393.593577386145
318.273790733139;392.827983511368
318.295418157999;392.068281346393
318.317045582858;391.335762100787
318.338673007717;390.643365612994
318.360300432577;389.980216893624
318.381927857436;389.32658703023
318.403555282296;388.694204940102
318.425182707155;388.115988050346
318.446810132014;387.604261904042
318.468437556874;387.18177856018
318.490064981733;386.860661938057
318.511692406592;386.61467716862
318.533319831452;386.429070882662
318.554947256311;386.310480247105
318.576574681171;386.260361109757
318.59820210603;386.271182430234
318.619829530889;386.329933993767
318.641456955749;386.421001326059
318.663084380608;386.527855947982
318.684711805467;386.632613642733
318.706339230327;386.728106880342
318.727966655186;386.811457812676
318.749594080046;386.875036985268
318.771221504905;386.911867679126
318.792848929764;386.91473363044
318.814476354624;386.876518572573
318.836103779483;386.796002270893
318.857731204343;386.674328765172
318.879358629202;386.510293520783
318.900986054061;386.303821413756
318.922613478921;386.052871126601
318.94424090378;385.755829335918
318.965868328639;385.422704721437
318.987495753499;385.056248258914
319.009123178358;384.642089716014
319.030750603218;384.165576068512
319.052378028077;383.629765086228
319.074005452936;383.05533593564
319.095632877796;382.4709658502
319.117260302655;381.897839152407
319.138887727515;381.341142649377
319.160515152374;380.789203182764
319.182142577233;380.245463835612
319.203770002093;379.726778166162
319.225397426952;379.239952087338
319.247024851811;378.793932021035
319.268652276671;378.388834544835
319.29027970153;378.012014545047
319.31190712639;377.656797195418
319.333534551249;377.329361010148
319.355161976108;377.044878819507
319.376789400968;376.803400043926
319.398416825827;376.602590577577
319.420044250686;376.427413226423
319.441671675546;376.265890741495
319.463299100405;376.12338492971
319.484926525265;376.002856133472
319.506553950124;375.899515055884
319.528181374983;375.806177156395
319.549808799843;375.711985856721
319.571436224702;375.608308299367
319.593063649562;375.489927123682
319.614691074421;375.34623021221
319.63631849928;375.171731537603
319.65794592414;374.964410430374
319.679573348999;374.721407055811
319.701200773858;374.439422209652
319.722828198718;374.12877705074
319.744455623577;373.817669108648
319.766083048437;373.522610260701
319.787710473296;373.247139817068
319.809337898155;372.976669140658
319.830965323015;372.708240833325
319.852592747874;372.45900421306
319.874220172733;372.255747101867
319.895847597593;372.09841509247
319.917475022452;371.969575371729
319.939102447312;371.854173271573
319.960729872171;371.746398666903
319.98235729703;371.657354942819
320.00398472189;371.600493323104
320.025612146749;371.57807864581
320.047239571609;371.578552312622
320.068866996468;371.591017899905
320.090494421327;371.61084037437
320.112121846187;371.64438555779
320.133749271046;371.700435166953
320.155376695905;371.789101092748
320.177004120765;371.916246102976
320.198631545624;372.084548817713
320.220258970484;372.294562234456
320.241886395343;372.553888143314
320.263513820202;372.864233575811
320.285141245062;373.214345701554
320.306768669921;373.588096992815
320.32839609478;373.963866987933
320.35002351964;374.299005655533
320.371650944499;374.554884364934
320.393278369359;374.708768394131
320.414905794218;374.735877566303
320.436533219077;374.60392850352
320.458160643937;374.290723976049
320.479788068796;373.788527928299
320.501415493656;373.076267579464
320.523042918515;372.105608001578
320.544670343374;370.889021360229
320.566297768234;369.494197448211
320.587925193093;367.949783501897
320.609552617952;366.25601087868
320.631180042812;364.462687542782
320.652807467671;362.639756876057
320.674434892531;360.826412378355
320.69606231739;359.035174456779
320.717689742249;357.258135709844
320.739317167109;355.538809120571
320.760944591968;353.962316806494
320.782572016827;352.546452367968
320.804199441687;351.269707894287
320.825826866546;350.118625886546
320.847454291406;349.083023088435
320.869081716265;348.13021420508
320.890709141124;347.25114539336
320.912336565984;346.432752258539
320.933963990843;345.639355070613
320.955591415703;344.859404844584
320.977218840562;344.07975384081
320.998846265421;343.267153044457
321.020473690281;342.393108296446
321.04210111514;341.477789806515
321.063728539999;340.54883577309
321.085355964859;339.619338112589
321.106983389718;338.666960728781
321.128610814578;337.660994378471
321.150238239437;336.585513546234
321.171865664296;335.456240123338
321.193493089156;334.29859070133
321.215120514015;333.107073351539
321.236747938874;331.875067542747
321.258375363734;330.633819387014
321.280002788593;329.433649547772
321.301630213453;328.284404776907
321.323257638312;327.153078264926
321.344885063171;326.008453027703
321.366512488031;324.860128996141
321.38813991289;323.757263586353
321.40976733775;322.765890239421
321.431394762609;321.896163404191
321.453022187468;321.117123922778
321.474649612328;320.41086611994
321.496277037187;319.782312274725
321.517904462046;319.234151197518
321.539531886906;318.772538973219
321.561159311765;318.410687990695
321.582786736625;318.146156772494
321.604414161484;317.970283083297
321.626041586343;317.877381898131
321.647669011203;317.846138750594
321.669296436062;317.857222495891
321.690923860922;317.891940848513
321.712551285781;317.936376851104
321.73417871064;317.978164370521
321.7558061355;318.00840610409
321.777433560359;318.019811588831
321.799060985218;318.000531470158
321.820688410078;317.933148756386
321.842315834937;317.811046918944
321.863943259797;317.636783898531
321.885570684656;317.408152895756
321.907198109515;317.11671156248
321.928825534375;316.759504107198
321.950452959234;316.337997179127
321.972080384093;315.860101007254
321.993707808953;315.338314117341
322.015335233812;314.775935184388
322.036962658672;314.158643220371
322.058590083531;313.481953405919
322.08021750839;312.763656674057
322.10184493325;311.999169590187
322.123472358109;311.172141689493
322.145099782969;310.280571741003
322.166727207828;309.349957095138
322.188354632687;308.394325512886
322.209982057547;307.406574310128
322.231609482406;306.383186460503
322.253236907265;305.336937947414
322.274864332125;304.30081271968
322.296491756984;303.295743942691
322.318119181844;302.291816734195
322.339746606703;301.271781358788
322.361374031562;300.256182440261
322.383001456422;299.275250031923
322.404628881281;298.347027401351
322.42625630614;297.464160686068
322.447883731;296.626521924878
322.469511155859;295.846275577802
322.491138580719;295.13321307322
322.512766005578;294.485227838224
322.534393430437;293.88660055501
322.556020855297;293.320885335391
322.577648280156;292.778623844678
322.599275705016;292.277742623682
322.620903129875;291.839117683124
322.642530554734;291.44867154948
322.664157979594;291.110069969524
322.685785404453;290.839746501096
322.707412829312;290.645679597203
322.729040254172;290.516789112178
322.750667679031;290.436043543521
322.772295103891;290.394135312786
322.79392252875;290.389275179246
322.815549953609;290.412485849964
322.837177378469;290.445832778578
322.858804803328;290.466852313903
322.880432228187;290.464798416567
322.902059653047;290.432836478498
322.923687077906;290.360322857811
322.945314502766;290.242639321466
322.966941927625;290.083260902797
322.988569352484;289.887407600874
323.010196777344;289.647206385775
323.031824202203;289.357229906056
323.053451627063;289.033827249758
323.075079051922;288.69994980242
323.096706476781;288.356539603914
323.118333901641;288.000750882832
323.1399613265;287.628971255955
323.161588751359;287.23971767125
323.183216176219;286.830075007059
323.204843601078;286.402020610063
323.226471025938;285.951020174779
323.248098450797;285.466704113052
323.269725875656;284.95217090656
323.291353300516;284.410371305399
323.312980725375;283.827443112832
323.334608150234;283.186245739209
323.356235575094;282.540223805566
323.377862999953;281.94003595983
323.399490424813;281.370228706292
323.421117849672;280.806271927116
323.442745274531;280.240441027699
323.464372699391;279.698790320698
323.48600012425;279.206540908994
323.50762754911;278.752996181693
323.529254973969;278.328754401042
323.550882398828;277.942826441804
323.572509823688;277.596573937089
323.594137248547;277.282869049485
323.615764673406;276.981947897802
323.637392098266;276.67645752099
323.659019523125;276.355521621671
323.680646947985;276.013383948293
323.702274372844;275.640656215819
323.723901797703;275.238065535656
323.745529222563;274.808730571932
323.767156647422;274.354353145757
323.788784072281;273.875685930279
323.810411497141;273.355128393335
323.832038922;272.755996471804
323.85366634686;272.053609420958
323.875293771719;271.318509468072
323.896921196578;270.586984141755
323.918548621438;269.828655998437
323.940176046297;269.009722984917
323.961803471157;268.131278719247
323.983430896016;267.22502807455
324.005058320875;266.315156042332
324.026685745735;265.376455403351
324.048313170594;264.371386033553
324.069940595453;263.320022480018
324.091568020313;262.2868035886
324.113195445172;261.304268828059
324.134822870032;260.378655200055
324.156450294891;259.507093484018
324.17807771975;258.652347285882
324.19970514461;257.799156537903
324.221332569469;256.976998188075
324.242959994328;256.215033080213
324.264587419188;255.528885154364
324.286214844047;254.889236643001
324.307842268907;254.266257597669
324.329469693766;253.647033777086
324.351097118625;253.044602850218
324.372724543485;252.470485593208
324.394351968344;251.912102121722
324.415979393204;251.352402323969
324.437606818063;250.778850493002
324.459234242922;250.189351261815
324.480861667782;249.601512885937
324.502489092641;249.006442982344
324.5241165175;248.405149506133
324.54574394236;247.806807527415
324.567371367219;247.183945798756
324.588998792079;246.497326071652
324.610626216938;245.73810139295
324.632253641797;244.933823848724
324.653881066657;244.094448103318
324.675508491516;243.20204915388
324.697135916376;242.232929245144
324.718763341235;241.160491745514
324.740390766094;239.950329596869
324.762018190954;238.578338109942
324.783645615813;237.12576540269
