Name;ESR_BC_1_7200s_Z_gon_60dg_result

Recipe
Accumulations;5;Number of accumulations
RetryCount;0;Number of retries on error
AbortOnError;True;Abort on error
EnableQFactorMeasurement;False;Enable/Disable q-Factor measurement
Bfrom;313;B from
Bto;363;B to
SweepTime;60;Sweep time
Modulation;0.2;Modulation
ModulationFreq;100;Modulation
BHoldEnabled;False;B hold enabled
BHold;0;B hold
MicrowavePower;2;Microwave power
MarkerEnabled;False;
MarkerStartField;0;
MarkerEndField;0;
Mode;;
KineticGFact;0;
KineticTotalTransientTime;0;
KineticTimeResolution;0;
TempFrom;5;
TempUseSlope;False;
TempTo;5;
TempdT;1;
TempSetupTime;0;
GonFrom;0;
GonTo;180;
GonSteps;20;
XRayEnabled;False;
XRayTime;3;
XRayVoltage;40;
XRayCurrent;0.5;
UVEnabled;False;
UVIntensity;0;
UVTime;0;
UVLeadTime;0;
UVWavelength;0;
PowSweepFrom;1;
PowSweepTo;5;
PowSweepSteps;5;
AmpModSweepFrom;0;
AmpModSweepTo;1;
AmpModSweepSteps;10;
ExtTriggerEnabled;False;
ExtTrigLeadTime;0;
ExtTrigOnTime;5;

Meas
BField [mT];MW_Absorption []
313.021089477539;77.8739948683774
313.042716001833;77.4425937113286
313.064342526126;76.7113892072194
313.08596905042;75.9420109895922
313.107595574713;75.2059001783139
313.129222099007;74.564674760456
313.1508486233;74.0064781558466
313.172475147594;73.5113050189522
313.194101671888;73.0870225340087
313.215728196181;72.7629489378144
313.237354720475;72.5435742751933
313.258981244768;72.4070447261742
313.280607769062;72.3356313544534
313.302234293356;72.3197505188852
313.323860817649;72.3540149976943
313.345487341943;72.4241562563014
313.367113866236;72.5045927357583
313.38874039053;72.589080988638
313.410366914823;72.680022367915
313.431993439117;72.7712066929686
313.453619963411;72.8533706720557
313.475246487704;72.9265363985779
313.496873011998;72.9991382250814
313.518499536291;73.0775024355283
313.540126060585;73.1625165918865
313.561752584878;73.2468952850925
313.583379109172;73.3355394256886
313.605005633466;73.4441516223922
313.626632157759;73.5827113598396
313.648258682053;73.7543043644203
313.669885206346;73.9585431775626
313.69151173064;74.1806936803042
313.713138254933;74.4120887504115
313.734764779227;74.6530616598773
313.756391303521;74.9005409495735
313.778017827814;75.1429593974045
313.799644352108;75.3644638640172
313.821270876401;75.5632537900959
313.842897400695;75.7415784593213
313.864523924989;75.8911943491078
313.886150449282;76.0079109279043
313.907776973576;76.1010789829672
313.929403497869;76.1738664248827
313.951030022163;76.2183579295345
313.972656546456;76.2203382123758
313.99428307075;76.1733408669417
314.015909595044;76.0880337349903
314.037536119337;75.972324969265
314.059162643631;75.8349423323711
314.080789167924;75.6785995015982
314.102415692218;75.5004345955187
314.124042216512;75.3028728424774
314.145668740805;75.0940811040939
314.167295265099;74.8843502730222
314.188921789392;74.6827671382729
314.210548313686;74.5051385285189
314.232174837979;74.3690935904913
314.253801362273;74.2752360723297
314.275427886566;74.215227105866
314.29705441086;74.1872171582298
314.318680935154;74.1959204875678
314.340307459447;74.2535085769466
314.361933983741;74.366715345947
314.383560508034;74.5118823077991
314.405187032328;74.6652153130763
314.426813556622;74.8269144973223
314.448440080915;75.0018110567907
314.470066605209;75.1839666521549
314.491693129502;75.3766158897959
314.513319653796;75.5694076054786
314.534946178089;75.7415667420083
314.556572702383;75.9112597322013
314.578199226677;76.0874337709831
314.59982575097;76.2643955448395
314.621452275264;76.4426232699956
314.643078799557;76.6301764130551
314.664705323851;76.8211379844256
314.686331848145;77.0027147818938
314.707958372438;77.1733371405241
314.729584896732;77.3343614568019
314.751211421025;77.4824996888429
314.772837945319;77.6134197140695
314.794464469612;77.7222182243396
314.816090993906;77.8013997804723
314.8377175182;77.8459640945794
314.859344042493;77.8660843608418
314.880970566787;77.8634975298982
314.90259709108;77.843516358633
314.924223615374;77.8232463097241
314.945850139667;77.8137897452601
314.967476663961;77.8238562882091
314.989103188255;77.8624711523001
315.010729712548;77.9337933570322
315.032356236842;78.0340984191029
315.053982761135;78.160281142913
315.075609285429;78.3163347131686
315.097235809722;78.5027756424326
315.118862334016;78.6998930462242
315.14048885831;78.8879041891965
315.162115382603;79.0548148621099
315.183741906897;79.1946772906603
315.20536843119;79.3080069273501
315.226994955484;79.3842125798641
315.248621479778;79.4103131655258
315.270248004071;79.3787935154166
315.291874528365;79.2906480731989
315.313501052658;79.1494067454709
315.335127576952;78.9517355594388
315.356754101245;78.6966382365229
315.378380625539;78.3925728406572
315.400007149833;78.0458907486561
315.421633674126;77.6625627290954
315.44326019842;77.2451886855234
315.464886722713;76.802226812658
315.486513247007;76.3453671324093
315.5081397713;75.8811929181615
315.529766295594;75.4154865882384
315.551392819888;74.9658544161154
315.573019344181;74.5526244816794
315.594645868475;74.1729920428948
315.616272392768;73.8181092860752
315.637898917062;73.4780452076387
315.659525441355;73.1563248094309
315.681151965649;72.8520263773668
315.702778489943;72.5603734673935
315.724405014236;72.2693831091595
315.74603153853;71.9749347418793
315.767658062823;71.6803587493713
315.789284587117;71.3905962789507
315.810911111411;71.10855548127
315.832537635704;70.8423064916718
315.854164159998;70.6160525558979
315.875790684291;70.4265638532385
315.897417208585;70.2720798295773
315.919043732878;70.1542684834166
315.940670257172;70.0690597951956
315.962296781466;70.0148251784427
315.983923305759;69.9905755263916
316.005549830053;69.9963190925029
316.027176354346;70.0222321482857
316.04880287864;70.0517676828803
316.070429402933;70.078913976732
316.092055927227;70.101045213747
316.113682451521;70.1124127493229
316.135308975814;70.1052316462761
316.156935500108;70.0782893640939
316.178562024401;70.0357043195143
316.200188548695;69.9874786018678
316.221815072988;69.9512311089436
316.243441597282;69.9319522957436
316.265068121576;69.9216076476893
316.286694645869;69.9199670486756
316.308321170163;69.9270151230259
316.329947694456;69.9369866097723
316.35157421875;69.9387817910536
316.373200743044;69.9201323343589
316.394827267337;69.8712494070268
316.416453791631;69.7885158199004
316.438080315924;69.6663406351483
316.459706840218;69.4891911651606
316.481333364511;69.2481874552161
316.502959888805;68.9513264577361
316.524586413099;68.6059233153948
316.546212937392;68.2101878227872
316.567839461686;67.7800529517509
316.589465985979;67.3622887214327
316.611092510273;66.9853672507903
316.632719034566;66.6507668494573
316.65434555886;66.3569841363731
316.675972083154;66.1042382657135
316.697598607447;65.8947182204209
316.719225131741;65.735445545999
316.740851656034;65.6507446667035
316.762478180328;65.6530236705685
316.784104704621;65.7316347889445
316.805731228915;65.8713055108462
316.827357753209;66.0629983686986
316.848984277502;66.3067132143526
316.870610801796;66.5907830118433
316.892237326089;66.902438583689
316.913863850383;67.2311186470434
316.935490374677;67.55682653587
316.95711689897;67.8853829661289
316.978743423264;68.2285099744835
317.000369947557;68.5801883150528
317.021996471851;68.914480414561
317.043622996144;69.2214806681278
317.065249520438;69.5020177096416
317.086876044732;69.7583383730107
317.108502569025;69.997751413214
317.130129093319;70.2261612222876
317.151755617612;70.4412836433903
317.173382141906;70.6299027384081
317.1950086662;70.7784262448254
317.216635190493;70.8842883539085
317.238261714787;70.9461708463973
317.25988823908;70.958204156205
317.281514763374;70.9208999690444
317.303141287667;70.8391632918739
317.324767811961;70.709198345394
317.346394336255;70.5419597722092
317.368020860548;70.3532154905086
317.389647384842;70.1459430552842
317.411273909135;69.9121329540431
317.432900433429;69.6402078470748
317.454526957722;69.3249822090762
317.476153482016;68.9652183849771
317.49778000631;68.5747617497366
317.519406530603;68.1558004109159
317.541033054897;67.6972070327878
317.56265957919;67.1870177274636
317.584286103484;66.6316164317303
317.605912627777;66.0503058887428
317.627539152071;65.4512879507358
317.649165676365;64.8523410605333
317.670792200658;64.2821904140865
317.692418724952;63.7392093743594
317.714045249245;63.2326916193952
317.735671773539;62.7880852509386
317.757298297833;62.4280129898704
317.778924822126;62.1621354216736
317.80055134642;61.9921297585057
317.822177870713;61.9214317053018
317.843804395007;61.9610182006883
317.8654309193;62.0999516400022
317.887057443594;62.3191953058414
317.908683967888;62.607595117261
317.930310492181;62.9535790930359
317.951937016475;63.3407626490977
317.973563540768;63.7513052810447
317.995190065062;64.1747423613306
318.016816589355;64.5925659306946
318.038443113649;64.9822903466188
318.060069637943;65.3381226990603
318.081696162236;65.6580094422171
318.10332268653;65.9346582096848
318.124949210823;66.1644239692345
318.146575735117;66.3520629226451
318.16820225941;66.5017930494892
318.189828783704;66.6163708196777
318.211455307998;66.6978013514637
318.233081832291;66.7464158801241
318.254708356585;66.7700869181321
318.276334880878;66.7818219153797
318.297961405172;66.7865648920691
318.319587929466;66.7840161484667
318.341214453759;66.7682803271478
318.362840978053;66.7427572286796
318.384467502346;66.7213764842518
318.40609402664;66.7051462842425
318.427720550933;66.6975713833432
318.449347075227;66.6944028533058
318.470973599521;66.6816302385658
318.492600123814;66.64733209728
318.514226648108;66.5928853933788
318.535853172401;66.5234274407886
318.557479696695;66.4418258056239
318.579106220988;66.343813422011
318.600732745282;66.2216108083794
318.622359269576;66.07581439127
318.643985793869;65.9116994921237
318.665612318163;65.7309230429957
318.687238842456;65.5250274883826
318.70886536675;65.295152976848
318.730491891043;65.0473697994289
318.752118415337;64.7874109106465
318.773744939631;64.5126796275149
318.795371463924;64.2171765741312
318.816997988218;63.9113148232509
318.838624512511;63.5971105180825
318.860251036805;63.2663676925324
318.881877561099;62.9327428542307
318.903504085392;62.6161030487133
318.925130609686;62.3153921789908
318.946757133979;62.0328032929548
318.968383658273;61.7836900425513
318.990010182566;61.5734085449038
319.01163670686;61.388145878976
319.033263231154;61.2231731157206
319.054889755447;61.0911314048534
319.076516279741;60.9888477036633
319.098142804034;60.9155879619584
319.119769328328;60.8797748550422
319.141395852621;60.8818473777293
319.163022376915;60.9132674181413
319.184648901209;60.9705698430763
319.206275425502;61.0509136166296
319.227901949796;61.153624284668
319.249528474089;61.2827812492173
319.271154998383;61.4402384086425
319.292781522676;61.6217577984626
319.31440804697;61.8138762212434
319.336034571264;61.9920340263683
319.357661095557;62.1535685582625
319.379287619851;62.3088213876704
319.400914144144;62.4496084026393
319.422540668438;62.554890075911
319.444167192732;62.6301406819844
319.465793717025;62.6811335920303
319.487420241319;62.7093398414428
319.509046765612;62.7223180598136
319.530673289906;62.7263531521401
319.552299814199;62.7304578199867
319.573926338493;62.7442743054017
319.595552862787;62.7780670176668
319.61717938708;62.8429452039209
319.638805911374;62.9457963225635
319.660432435667;63.0899127769794
319.682058959961;63.2783804662566
319.703685484254;63.5100617936634
319.725312008548;63.7737225252844
319.746938532842;64.0474129215855
319.768565057135;64.3145738648728
319.790191581429;64.5697821110468
319.811818105722;64.8159475274103
319.833444630016;65.0393691333161
319.85507115431;65.21760324395
319.876697678603;65.3431452587883
319.898324202897;65.4109570494845
319.91995072719;65.4204569384497
319.941577251484;65.3825790342243
319.963203775777;65.3076824776285
319.984830300071;65.2019126777423
320.006456824365;65.0754914531076
320.028083348658;64.9438613028154
320.049709872952;64.8241584812716
320.071336397245;64.7201759218843
320.092962921539;64.6235228706639
320.114589445832;64.5403414894444
320.136215970126;64.4857837646413
320.15784249442;64.4609875731751
320.179469018713;64.4463775745191
320.201095543007;64.4224809242155
320.2227220673;64.3798748502387
320.244348591594;64.3133832085881
320.265975115888;64.2222512766371
320.287601640181;64.1016782383953
320.309228164475;63.9471338684295
320.330854688768;63.7640084344034
320.352481213062;63.5596538736365
320.374107737355;63.3319879877127
320.395734261649;63.0751465169454
320.417360785943;62.8006491543273
320.438987310236;62.5138242868968
320.46061383453;62.2054524721862
320.482240358823;61.8735363575327
320.503866883117;61.5280898864287
320.52549340741;61.1764668915516
320.547119931704;60.8264156662887
320.568746455998;60.4863620974423
320.590372980291;60.154454833785
320.611999504585;59.8223004124907
320.633626028878;59.4770657454752
320.655252553172;59.1353189015215
320.676879077465;58.8565062938725
320.698505601759;58.6521864561498
320.720132126053;58.5090862013456
320.741758650346;58.42081852235
320.76338517464;58.3855430207318
320.785011698933;58.406085297915
320.806638223227;58.4898194540199
320.828264747521;58.6410470358457
320.849891271814;58.8584008879497
320.871517796108;59.1258820688937
320.893144320401;59.43049405541
320.914770844695;59.7697715417092
320.936397368988;60.134811385591
320.958023893282;60.5086158726584
320.979650417576;60.8896782095319
321.001276941869;61.2832077621334
321.022903466163;61.6668221411677
321.044529990456;62.0002023391742
321.06615651475;62.2696542580666
321.087783039043;62.4708956888915
321.109409563337;62.5996005412269
321.131036087631;62.6568163337307
321.152662611924;62.6454011669738
321.174289136218;62.5675493272465
321.195915660511;62.4192623467195
321.217542184805;62.2000989352233
321.239168709098;61.9415603412143
321.260795233392;61.6620290089739
321.282421757686;61.3543162389906
321.304048281979;61.0168114683472
321.325674806273;60.6515980324777
321.347301330566;60.2619054690023
321.36892785486;59.8548249422109
321.390554379154;59.4408959571179
321.412180903447;59.0283217430181
321.433807427741;58.6254331037374
321.455433952034;58.2351577307184
321.477060476328;57.8677303077667
321.498687000621;57.5350765270265
321.520313524915;57.2466873020175
321.541940049209;57.0089887373353
321.563566573502;56.8244283453265
321.585193097796;56.6910434269842
321.606819622089;56.6128881344037
321.628446146383;56.5960503133981
321.650072670676;56.6331190257187
321.67169919497;56.7086409111786
321.693325719264;56.8066369636766
321.714952243557;56.900727391241
321.736578767851;56.972171645035
321.758205292144;57.012261085557
321.779831816438;57.0158891469796
321.801458340732;56.9716601386416
321.823084865025;56.8625245783639
321.844711389319;56.6794982254691
321.866337913612;56.4189575709247
321.887964437906;56.0724165507449
321.909590962199;55.6345510689948
321.931217486493;55.105973417489
321.952844010787;54.5122573395782
321.97447053508;53.9076309367989
321.996097059374;53.3118390207289
322.017723583667;52.6926292502689
322.039350107961;52.0256406692341
322.060976632254;51.3312306831191
322.082603156548;50.6412053493722
322.104229680842;49.9751733493562
322.125856205135;49.3452508230288
322.147482729429;48.7741880675034
322.169109253722;48.2704567732402
322.190735778016;47.8257301801758
322.212362302309;47.439031833258
322.233988826603;47.1108485786198
322.255615350897;46.8499441820934
322.27724187519;46.6707685804054
322.298868399484;46.5739037634568
322.320494923777;46.5504497189538
322.342121448071;46.5918089525989
322.363747972365;46.6867484289747
322.385374496658;46.8348422518189
322.407001020952;47.0444598651421
322.428627545245;47.3008976711132
322.450254069539;47.5536166985699
322.471880593832;47.7902680935803
322.493507118126;48.0245987562816
322.51513364242;48.2587851672187
322.536760166713;48.4717388396378
322.558386691007;48.6463855812623
322.5800132153;48.7776270402939
322.601639739594;48.8617829909786
322.623266263887;48.8933124902077
322.644892788181;48.8648714388213
322.666519312475;48.7763094442658
322.688145836768;48.6348183184003
322.709772361062;48.4493109898618
322.731398885355;48.2176733187798
322.753025409649;47.930196919699
322.774651933942;47.5878709572141
322.796278458236;47.2050435125142
322.81790498253;46.809615572948
322.839531506823;46.4038598885636
322.861158031117;46.0013745414813
322.88278455541;45.6252460307713
322.904411079704;45.2868510688209
322.926037603998;44.9857495959897
322.947664128291;44.721795012863
322.969290652585;44.4994867873544
322.990917176878;44.3309222402978
323.012543701172;44.2141388029292
323.034170225465;44.1417121798911
323.055796749759;44.1136120743497
323.077423274053;44.135054976693
323.099049798346;44.1987640610008
323.12067632264;44.2853781045994
323.142302846933;44.3818332668387
323.163929371227;44.4935011647846
323.18555589552;44.6185126012616
323.207182419814;44.7543187881821
323.228808944108;44.9032945537027
323.250435468401;45.0733554844744
323.272061992695;45.2709109569095
323.293688516988;45.4951865326825
323.315315041282;45.7320706411485
323.336941565576;45.9624877786622
323.358568089869;46.1887004052936
323.380194614163;46.4207543593224
323.401821138456;46.6565704703359
323.42344766275;46.8752780907308
323.445074187043;47.0571043522006
323.466700711337;47.1977779029607
323.488327235631;47.2962176580265
323.509953759924;47.3495137424634
323.531580284218;47.3583743428715
323.553206808511;47.3152751463091
323.574833332805;47.2078484868399
323.596459857098;47.0497547587348
323.618086381392;46.8416570419319
323.639712905686;46.5819297814809
323.661339429979;46.2840922550165
323.682965954273;45.9558386766657
323.704592478566;45.6215383736565
323.72621900286;45.2848054770875
323.747845527153;44.9234960144439
323.769472051447;44.5385593357258
323.791098575741;44.1414041283511
323.812725100034;43.747254602065
323.834351624328;43.3614383618352
323.855978148621;42.9848824197672
323.877604672915;42.6191651097471
323.899231197209;42.2700640532467
323.920857721502;41.9437673853745
323.942484245796;41.6320493595452
323.964110770089;41.330186529276
323.985737294383;41.0423666239276
324.007363818676;40.7872177034055
324.02899034297;40.5642926117728
324.050616867264;40.36965783079
324.072243391557;40.191396383085
324.093869915851;40.0115029720853
324.115496440144;39.8290766239573
324.137122964438;39.6505368330282
324.158749488731;39.4729639776002
324.180376013025;39.2918606038616
324.202002537319;39.113667947416
324.223629061612;38.9448468714561
324.245255585906;38.7842117559877
324.266882110199;38.6358781914364
324.288508634493;38.5152394720396
324.310135158786;38.4383632683297
324.33176168308;38.4134467448816
324.353388207374;38.4450109601173
324.375014731667;38.5444431628205
324.396641255961;38.7319404771372
324.418267780254;38.9888113041641
324.439894304548;39.277670370598
324.461520828842;39.5904812579445
324.483147353135;39.9281452830324
324.504773877429;40.2852886211641
324.526400401722;40.6495431450051
324.548026926016;41.0066406833524
324.569653450309;41.3362624496868
324.591279974603;41.6284875201128
324.612906498897;41.8838704118011
324.63453302319;42.1038683744098
324.656159547484;42.2827800667504
324.677786071777;42.4174266811524
324.699412596071;42.5088712476016
324.721039120364;42.5643709375935
324.742665644658;42.5892641620405
324.764292168952;42.5850658664922
