Name;ESR_BC_1_14400s_X_gon_0dg_result

Recipe
Accumulations;5;Number of accumulations
RetryCount;0;Number of retries on error
AbortOnError;True;Abort on error
EnableQFactorMeasurement;False;Enable/Disable q-Factor measurement
Bfrom;313;B from
Bto;363;B to
SweepTime;60;Sweep time
Modulation;0.2;Modulation
ModulationFreq;100;Modulation
BHoldEnabled;False;B hold enabled
BHold;0;B hold
MicrowavePower;2;Microwave power
MarkerEnabled;False;
MarkerStartField;0;
MarkerEndField;0;
Mode;;
KineticGFact;0;
KineticTotalTransientTime;0;
KineticTimeResolution;0;
TempFrom;5;
TempUseSlope;False;
TempTo;5;
TempdT;1;
TempSetupTime;0;
GonFrom;0;
GonTo;180;
GonSteps;20;
XRayEnabled;False;
XRayTime;3;
XRayVoltage;40;
XRayCurrent;0.5;
UVEnabled;False;
UVIntensity;0;
UVTime;0;
UVLeadTime;0;
UVWavelength;0;
PowSweepFrom;1;
PowSweepTo;5;
PowSweepSteps;5;
AmpModSweepFrom;0;
AmpModSweepTo;1;
AmpModSweepSteps;10;
ExtTriggerEnabled;False;
ExtTrigLeadTime;0;
ExtTrigOnTime;5;

Meas
BField [mT];MW_Absorption []
313.014554443359;557.727451138029
313.036168879638;557.511453996616
313.057783315916;557.252828218074
313.079397752194;556.94950215543
313.101012188473;556.597878984523
313.122626624751;556.187062596806
313.144241061029;555.710849185532
313.165855497307;555.18871892017
313.187469933586;554.633653812322
313.209084369864;554.044823681018
313.230698806142;553.425946634948
313.252313242421;552.802991819696
313.273927678699;552.19613327085
313.295542114977;551.605132946609
313.317156551255;551.03816608768
313.338770987534;550.495240800919
313.360385423812;549.961566345139
313.38199986009;549.424791570797
313.403614296369;548.890585285349
313.425228732647;548.36538687286
313.446843168925;547.839285132466
313.468457605204;547.2926090575
313.490072041482;546.712173818991
313.51168647776;546.112300431991
313.533300914038;545.505789776334
313.554915350317;544.902208885579
313.576529786595;544.321028220354
313.598144222873;543.760542825669
313.619758659152;543.214464132057
313.64137309543;542.66926771927
313.662987531708;542.114557529983
313.684601967986;541.576613066394
313.706216404265;541.062000501618
313.727830840543;540.553648525568
313.749445276821;540.029567934912
313.7710597131;539.470238563001
313.792674149378;538.862458941998
313.814288585656;538.215943369683
313.835903021935;537.551462890347
313.857517458213;536.839657870301
313.879131894491;536.054006015214
313.900746330769;535.211277990161
313.922360767048;534.354788805667
313.943975203326;533.509471603146
313.965589639604;532.679821204111
313.987204075883;531.883480674276
314.008818512161;531.142442383886
314.030432948439;530.45709968879
314.052047384717;529.809617519974
314.073661820996;529.180185799769
314.095276257274;528.557591505081
314.116890693552;527.95686811222
314.138505129831;527.396097409592
314.160119566109;526.869156572132
314.181734002387;526.362331940146
314.203348438666;525.857518608165
314.224962874944;525.337128649037
314.246577311222;524.7833112551
314.2681917475;524.181368419735
314.289806183779;523.534246147727
314.311420620057;522.862186329202
314.333035056335;522.1896732928
314.354649492614;521.510656850012
314.376263928892;520.793005641029
314.39787836517;520.03323244808
314.419492801448;519.267820827447
314.441107237727;518.526435000768
314.462721674005;517.76914950353
314.484336110283;516.980832465967
314.505950546562;516.172886791702
314.52756498284;515.346742240391
314.549179419118;514.512814136475
314.570793855397;513.717156057551
314.592408291675;512.955319041325
314.614022727953;512.183884858694
314.635637164231;511.39104327715
314.65725160051;510.597726174794
314.678866036788;509.824970919892
314.700480473066;509.0652427587
314.722094909345;508.298978256039
314.743709345623;507.529822443006
314.765323781901;506.7646561575
314.786938218179;506.013411669828
314.808552654458;505.270458010832
314.830167090736;504.519978048004
314.851781527014;503.769552635307
314.873395963293;503.044586064474
314.895010399571;502.350163232054
314.916624835849;501.663801387424
314.938239272128;500.958089003874
314.959853708406;500.258119981214
314.981468144684;499.59917376253
315.003082580962;498.996779031242
315.024697017241;498.440930007419
315.046311453519;497.905836271183
315.067925889797;497.383453155403
315.089540326076;496.877794838035
315.111154762354;496.391364043804
315.132769198632;495.925112262554
315.15438363491;495.489710963842
315.175998071189;495.111629533805
315.197612507467;494.794816972139
315.219226943745;494.521902672148
315.240841380024;494.284654950355
315.262455816302;494.086210304886
315.28407025258;493.930187648389
315.305684688858;493.817879230172
315.327299125137;493.74491166788
315.348913561415;493.702912318378
315.370527997693;493.674983767328
315.392142433972;493.639588886627
315.41375687025;493.584117727225
315.435371306528;493.494535115211
315.456985742807;493.347701356366
315.478600179085;493.121463689288
315.500214615363;492.793677659096
315.521829051641;492.347094482163
315.54344348792;491.777273945511
315.565057924198;491.083557721017
315.586672360476;490.250314993561
315.608286796755;489.25525646767
315.629901233033;488.092383287484
315.651515669311;486.79146352692
315.67313010559;485.410286885258
315.694744541868;484.005073393017
315.716358978146;482.644381572212
315.737973414424;481.29731345247
315.759587850703;479.9519907314
315.781202286981;478.664915196363
315.802816723259;477.465217079233
315.824431159538;476.368289004226
315.846045595816;475.39002292124
315.867660032094;474.55479088396
315.889274468372;473.849031067649
315.910888904651;473.255073006562
315.932503340929;472.778940738235
315.954117777207;472.394391964908
315.975732213486;472.082315657982
315.997346649764;471.827713208568
316.018961086042;471.60988473852
316.04057552232;471.401148582302
316.062189958599;471.20150585426
316.083804394877;471.015411619456
316.105418831155;470.839362327561
316.127033267434;470.671713841171
316.148647703712;470.522420090545
316.17026213999;470.390412147761
316.191876576269;470.263011528146
316.213491012547;470.131949314214
316.235105448825;469.996095605539
316.256719885103;469.854402614705
316.278334321382;469.702194702742
316.29994875766;469.535327792886
316.321563193938;469.340457648552
316.343177630217;469.101486136505
316.364792066495;468.810913980595
316.386406502773;468.466624578214
316.408020939051;468.07172329877
316.42963537533;467.635965357156
316.451249811608;467.163655765741
316.472864247886;466.649587572729
316.494478684165;466.095687641016
316.516093120443;465.521775121916
316.537707556721;464.933470473256
316.559321993;464.326052113889
316.580936429278;463.703942823283
316.602550865556;463.082255372006
316.624165301834;462.46306295753
316.645779738113;461.85090981626
316.667394174391;461.239150237787
316.689008610669;460.629601795678
316.710623046948;460.0327590547
316.732237483226;459.455568608569
316.753851919504;458.898956725532
316.775466355783;458.352320963134
316.797080792061;457.805486021658
316.818695228339;457.244429250046
316.840309664617;456.661469833967
316.861924100896;456.07208395522
316.883538537174;455.48392167949
316.905152973452;454.904621124496
316.926767409731;454.326100148642
316.948381846009;453.739413478449
316.969996282287;453.141988417398
316.991610718565;452.525749573271
317.013225154844;451.891236907291
317.034839591122;451.260347481271
317.0564540274;450.657324073232
317.078068463679;450.083197475928
317.099682899957;449.51303386394
317.121297336235;448.947028130781
317.142911772513;448.389178290974
317.164526208792;447.836965234111
317.18614064507;447.277932913442
317.207755081348;446.712093346298
317.229369517627;446.174696294849
317.250983953905;445.680123277092
317.272598390183;445.226076617462
317.294212826462;444.822640709076
317.31582726274;444.482277319759
317.337441699018;444.216882991007
317.359056135296;444.027457441043
317.380670571575;443.910355330462
317.402285007853;443.856863234643
317.423899444131;443.85411008155
317.44551388041;443.891861112219
317.467128316688;443.964409412449
317.488742752966;444.063658321759
317.510357189244;444.177143834355
317.531971625523;444.284967794797
317.553586061801;444.371613901114
317.575200498079;444.429254142593
317.596814934358;444.450491238869
317.618429370636;444.421444998813
317.640043806914;444.314847159758
317.661658243193;444.117228657618
317.683272679471;443.83233006137
317.704887115749;443.440841645142
317.726501552027;442.918738269359
317.748115988306;442.290037780108
317.769730424584;441.586951439503
317.791344860862;440.802296224271
317.812959297141;439.920847187006
317.834573733419;438.9434748924
317.856188169697;437.86734816349
317.877802605975;436.687635347299
317.899417042254;435.424943223093
317.921031478532;434.130580566709
317.94264591481;432.821268594716
317.964260351089;431.489376428458
317.985874787367;430.185194871374
318.007489223645;428.981026081655
318.029103659924;427.882857108707
318.050718096202;426.876897773593
318.07233253248;425.969712983281
318.093946968758;425.17824394181
318.115561405037;424.502269689231
318.137175841315;423.926748922041
318.158790277593;423.436167476836
318.180404713872;423.02249417674
318.20201915015;422.70032742538
318.223633586428;422.473554477095
318.245248022706;422.318387571576
318.266862458985;422.208483329685
318.288476895263;422.130509899765
318.310091331541;422.079557791149
318.33170576782;422.052817506679
318.353320204098;422.041101539003
318.374934640376;422.036902544503
318.396549076654;422.031584697848
318.418163512933;422.01081188107
318.439777949211;421.961254575273
318.461392385489;421.871439527678
318.483006821768;421.734145040327
318.504621258046;421.544633217135
318.526235694324;421.298763858804
318.547850130603;420.991633503389
318.569464566881;420.609447989306
318.591079003159;420.140873385122
318.612693439437;419.59852399938
318.634307875716;419.008880814019
318.655922311994;418.376658325551
318.677536748272;417.708873424608
318.699151184551;417.014093626402
318.720765620829;416.282085870913
318.742380057107;415.488969786321
318.763994493386;414.640638175294
318.785608929664;413.785522106356
318.807223365942;412.980836877223
318.82883780222;412.221969867242
318.850452238499;411.49926389177
318.872066674777;410.81026359703
318.893681111055;410.162892112374
318.915295547334;409.556029567868
318.936909983612;408.973877700968
318.95852441989;408.407969685062
318.980138856168;407.854047188375
319.001753292447;407.344621384079
319.023367728725;406.891070058116
319.044982165003;406.467906967767
319.066596601282;406.049022466392
319.08821103756;405.615321063871
319.109825473838;405.166262586612
319.131439910117;404.708540056172
319.153054346395;404.239725937329
319.174668782673;403.761992283052
319.196283218951;403.279618772477
319.21789765523;402.77034799569
319.239512091508;402.21040642388
319.261126527786;401.596919832387
319.282740964065;400.975402253188
319.304355400343;400.352454888041
319.325969836621;399.707733668021
319.347584272899;399.059907593035
319.369198709178;398.402136393189
319.390813145456;397.718577490664
319.412427581734;397.034094574283
319.434042018013;396.370382404762
319.455656454291;395.721190413462
319.477270890569;395.094104421983
319.498885326847;394.502068737237
319.520499763126;393.940542827049
319.542114199404;393.40509838318
319.563728635682;392.91125498478
319.585343071961;392.470235949792
319.606957508239;392.074118095287
319.628571944517;391.723033088088
319.650186380796;391.420945915433
319.671800817074;391.161674707913
319.693415253352;390.930445616014
319.71502968963;390.726821519186
319.736644125909;390.558735720694
319.758258562187;390.426886566029
319.779872998465;390.319879400208
319.801487434744;390.230756800248
319.823101871022;390.160187321299
319.8447163073;390.112216973474
319.866330743578;390.085373655528
319.887945179857;390.077491401246
319.909559616135;390.089369710909
319.931174052413;390.117389266708
319.952788488692;390.157829999141
319.97440292497;390.2144848014
319.996017361248;390.291668137407
320.017631797527;390.393126906267
320.039246233805;390.523889728291
320.060860670083;390.681914621195
320.082475106361;390.864049741794
320.10408954264;391.076575835492
320.125703978918;391.330262509791
320.147318415196;391.636511190335
320.168932851475;391.996186351341
320.190547287753;392.401875086169
320.212161724031;392.856500612494
320.233776160309;393.372728301791
320.255390596588;393.946723864179
320.277005032866;394.562188977066
320.298619469144;395.207554230644
320.320233905423;395.876074738878
320.341848341701;396.541293373843
320.363462777979;397.151902170436
320.385077214258;397.669084648103
320.406691650536;398.089878998776
320.428306086814;398.404918362085
320.449920523092;398.588601112853
320.471534959371;398.585134989477
320.493149395649;398.36312177484
320.514763831927;397.927247444788
320.536378268206;397.287463058028
320.557992704484;396.449741783872
320.579607140762;395.456136453365
320.60122157704;394.343701645196
320.622836013319;393.109967656432
320.644450449597;391.747661683452
320.666064885875;390.302386453119
320.687679322154;388.840296432201
320.709293758432;387.397233437198
320.73090819471;386.018736721452
320.752522630988;384.736825649392
320.774137067267;383.540209960996
320.795751503545;382.412745122838
320.817365939823;381.34312534081
320.838980376102;380.321767917034
320.86059481238;379.336135382262
320.882209248658;378.366384547321
320.903823684937;377.389228183382
320.925438121215;376.379196505855
320.947052557493;375.331918943325
320.968666993771;374.264687070348
320.99028143005;373.162356462342
321.011895866328;371.988862491149
321.033510302606;370.730777122094
321.055124738885;369.406531474919
321.076739175163;368.037427388664
321.098353611441;366.606635862023
321.11996804772;365.071027937893
321.141582483998;363.432326089145
321.163196920276;361.752733729871
321.184811356554;360.042620638433
321.206425792833;358.283706798457
321.228040229111;356.500295525032
321.249654665389;354.760052306485
321.271269101668;353.088491881028
321.292883537946;351.483645137423
321.314497974224;350.010068230593
321.336112410502;348.712135012347
321.357726846781;347.567473216449
321.379341283059;346.524758990054
321.400955719337;345.564514329519
321.422570155616;344.709463115252
321.444184591894;344.005782143081
321.465799028172;343.452407068407
321.487413464451;343.016401481378
321.509027900729;342.676634980742
321.530642337007;342.42655062878
321.552256773285;342.26337272012
321.573871209564;342.169685342231
321.595485645842;342.125678032995
321.61710008212;342.123690097712
321.638714518399;342.159417172401
321.660328954677;342.219696762391
321.681943390955;342.288395964309
321.703557827233;342.359665407735
321.725172263512;342.428738797685
321.74678669979;342.484775266714
321.768401136068;342.518829861935
321.790015572347;342.532821639667
321.811630008625;342.517810726756
321.833244444903;342.454423742558
321.854858881181;342.333047228581
321.87647331746;342.153321487829
321.898087753738;341.907737366776
321.919702190016;341.5857105276
321.941316626295;341.185235386254
321.962931062573;340.703877909088
321.984545498851;340.130081549256
322.00615993513;339.474280023374
322.027774371408;338.776182845234
322.049388807686;338.044645509
322.071003243964;337.283411414484
322.092617680243;336.50241706615
322.114232116521;335.70561332135
322.135846552799;334.890962650329
322.157460989078;334.086611279602
322.179075425356;333.328476554102
322.200689861634;332.603050295664
322.222304297913;331.87510000386
322.243918734191;331.136441007918
322.265533170469;330.39748173299
322.287147606747;329.678661598202
322.308762043026;329.009926482731
322.330376479304;328.387776598543
322.351990915582;327.788651534441
322.373605351861;327.186365624795
322.395219788139;326.545265072709
322.416834224417;325.849592455797
322.438448660695;325.109805976927
322.460063096974;324.357954464263
322.481677533252;323.588506855377
322.50329196953;322.775681639098
322.524906405809;321.912454180129
322.546520842087;321.013358637215
322.568135278365;320.099934027536
322.589749714643;319.179309634971
322.611364150922;318.258552201071
322.6329785872;317.36573866735
322.654593023478;316.523893910441
322.676207459757;315.719729601146
322.697821896035;314.943579812957
322.719436332313;314.211605293096
322.741050768592;313.532686686891
322.76266520487;312.890472486854
322.784279641148;312.279603753263
322.805894077426;311.718259460342
322.827508513705;311.198028084476
322.849122949983;310.680691772688
322.870737386261;310.143403405271
322.89235182254;309.582859536806
322.913966258818;308.989302982054
322.935580695096;308.374785276743
322.957195131374;307.759463676984
322.978809567653;307.145567872461
323.000424003931;306.497362598202
323.022038440209;305.797169685579
323.043652876488;305.060389371439
323.065267312766;304.317218194251
323.086881749044;303.598140175624
323.108496185323;302.916592672585
323.130110621601;302.256779360393
323.151725057879;301.614520496314
323.173339494157;300.996003021399
323.194953930436;300.403043019477
323.216568366714;299.834724494849
323.238182802992;299.302039815189
323.259797239271;298.829826912448
323.281411675549;298.433468396884
323.303026111827;298.115095797174
323.324640548105;297.875312479045
323.346254984384;297.702812759221
323.367869420662;297.588903613888
323.38948385694;297.521120906794
323.411098293219;297.494885341748
323.432712729497;297.504041089708
323.454327165775;297.5388407932
323.475941602054;297.587829404003
323.497556038332;297.642513119202
323.51917047461;297.698702385484
323.540784910888;297.750011303296
323.562399347167;297.784430349938
323.584013783445;297.79029795162
323.605628219723;297.765445286619
323.627242656002;297.714081933661
323.64885709228;297.633295136218
323.670471528558;297.516275350515
323.692085964836;297.35757097864
323.713700401115;297.153917215931
323.735314837393;296.910615705971
323.756929273671;296.627105976823
323.77854370995;296.285842777097
323.800158146228;295.882318134987
323.821772582506;295.416043078757
323.843387018785;294.877544843933
323.865001455063;294.265198345547
323.886615891341;293.585920381231
323.908230327619;292.857691008194
323.929844763898;292.07382372839
323.951459200176;291.205914412829
323.973073636454;290.265060571087
323.994688072733;289.271149522217
324.016302509011;288.254044757459
324.037916945289;287.229611675277
324.059531381567;286.198129137887
324.081145817846;285.1508575891
324.102760254124;284.067412679311
324.124374690402;282.96214397146
324.145989126681;281.880962778993
324.167603562959;280.850972968559
324.189217999237;279.889451736087
324.210832435516;278.971877942601
324.232446871794;278.074903804852
324.254061308072;277.206666461923
324.27567574435;276.396219640395
324.297290180629;275.631715903389
324.318904616907;274.888163939855
324.340519053185;274.149935632404
324.362133489464;273.416360284104
324.383747925742;272.68718121371
324.40536236202;271.943562911699
324.426976798298;271.145945332339
324.448591234577;270.297959141048
324.470205670855;269.409625119818
324.491820107133;268.483247407095
324.513434543412;267.509365120378
324.53504897969;266.458886794958
324.556663415968;265.295540481404
324.578277852247;263.995659567786
324.599892288525;262.576369399764
324.621506724803;261.098867022003
324.643121161081;259.557741916417
324.66473559736;257.944716027698
324.686350033638;256.316653391251
324.707964469916;254.699056152247
324.729578906195;253.057447780939
324.751193342473;251.346750747411
324.772807778751;249.5900221318
