Name;ESR_BC_1_7200s_Z_gon_80dg_result

Recipe
Accumulations;5;Number of accumulations
RetryCount;0;Number of retries on error
AbortOnError;True;Abort on error
EnableQFactorMeasurement;False;Enable/Disable q-Factor measurement
Bfrom;313;B from
Bto;363;B to
SweepTime;60;Sweep time
Modulation;0.2;Modulation
ModulationFreq;100;Modulation
BHoldEnabled;False;B hold enabled
BHold;0;B hold
MicrowavePower;2;Microwave power
MarkerEnabled;False;
MarkerStartField;0;
MarkerEndField;0;
Mode;;
KineticGFact;0;
KineticTotalTransientTime;0;
KineticTimeResolution;0;
TempFrom;5;
TempUseSlope;False;
TempTo;5;
TempdT;1;
TempSetupTime;0;
GonFrom;0;
GonTo;180;
GonSteps;20;
XRayEnabled;False;
XRayTime;3;
XRayVoltage;40;
XRayCurrent;0.5;
UVEnabled;False;
UVIntensity;0;
UVTime;0;
UVLeadTime;0;
UVWavelength;0;
PowSweepFrom;1;
PowSweepTo;5;
PowSweepSteps;5;
AmpModSweepFrom;0;
AmpModSweepTo;1;
AmpModSweepSteps;10;
ExtTriggerEnabled;False;
ExtTrigLeadTime;0;
ExtTrigOnTime;5;

Meas
BField [mT];MW_Absorption []
313.015964660645;79.8250036157001
313.037588648646;79.6073918048904
313.059212636646;78.9253359890216
313.080836624647;78.1071277819678
313.102460612648;77.3295911571891
313.124084600649;76.6296602751557
313.14570858865;76.0118521394843
313.167332576651;75.4818135824946
313.188956564652;75.043035875981
313.210580552653;74.7025965183915
313.232204540654;74.4762464130235
313.253828528655;74.3663165377898
313.275452516656;74.3594807242297
313.297076504657;74.439929067376
313.318700492658;74.5937606080064
313.340324480658;74.7981370002744
313.361948468659;75.0289295663135
313.38357245666;75.277913223077
313.405196444661;75.5442827712207
313.426820432662;75.8109161354418
313.448444420663;76.0571346545931
313.470068408664;76.2806553503017
313.491692396665;76.4818802990694
313.513316384666;76.6547402817363
313.534940372667;76.7891351362695
313.556564360668;76.8914005026703
313.578188348669;76.976741955825
313.59981233667;77.0530372029168
313.621436324671;77.1224905377565
313.643060312671;77.1796586307136
313.664684300672;77.2241750077265
313.686308288673;77.2571733912501
313.707932276674;77.2671309764259
313.729556264675;77.2469973246024
313.751180252676;77.2008932072276
313.772804240677;77.1400834536407
313.794428228678;77.0610057617522
313.816052216679;76.9532343640666
313.83767620468;76.8194458455016
313.859300192681;76.6698831991592
313.880924180682;76.5189689881103
313.902548168683;76.393309612076
313.924172156683;76.3168396568708
313.945796144684;76.2971214877024
313.967420132685;76.3240607204399
313.989044120686;76.3929844630075
314.010668108687;76.5026808430483
314.032292096688;76.656368886571
314.053916084689;76.8569491591541
314.07554007269;77.0974192097557
314.097164060691;77.3650998274499
314.118788048692;77.6538916050891
314.140412036693;77.9618380026273
314.162036024694;78.2835378673981
314.183660012695;78.6146284979032
314.205284000696;78.9437690955298
314.226907988696;79.2670912732919
314.248531976697;79.5998165304972
314.270155964698;79.9414926385499
314.291779952699;80.2810047279042
314.3134039407;80.6078679877857
314.335027928701;80.9136301655658
314.356651916702;81.1812477966105
314.378275904703;81.3930797814026
314.399899892704;81.5509048328396
314.421523880705;81.6525580988397
314.443147868706;81.6898985686689
314.464771856707;81.6606886006557
314.486395844708;81.5688007825331
314.508019832709;81.4106231153155
314.529643820709;81.198900723958
314.55126780871;80.9537619569262
314.572891796711;80.6837842833019
314.594515784712;80.3921198914392
314.616139772713;80.0863008529398
314.637763760714;79.770619504745
314.659387748715;79.4644445401874
314.681011736716;79.1837535441473
314.702635724717;78.9301069001123
314.724259712718;78.6958973915889
314.745883700719;78.4715922337757
314.76750768872;78.2664328857156
314.789131676721;78.0857890571982
314.810755664721;77.9184642512597
314.832379652722;77.7532583056972
314.854003640723;77.5933697384709
314.875627628724;77.4397037179067
314.897251616725;77.2842320329613
314.918875604726;77.1188758645614
314.940499592727;76.9479538064748
314.962123580728;76.7734632591746
314.983747568729;76.5898855466291
315.00537155673;76.4013442700034
315.026995544731;76.2233142325758
315.048619532732;76.0595915289883
315.070243520733;75.9061448561343
315.091867508734;75.7574052619662
315.113491496734;75.6123103780311
315.135115484735;75.4796336887956
315.156739472736;75.3694786155108
315.178363460737;75.2844790362093
315.199987448738;75.2116225170492
315.221611436739;75.1347249055067
315.24323542474;75.0558280164994
315.264859412741;74.9822006605794
315.286483400742;74.9118327601255
315.308107388743;74.8412108331877
315.329731376744;74.7649224442092
315.351355364745;74.6721668141164
315.372979352746;74.5555812199881
315.394603340746;74.4185682550638
315.416227328747;74.2609643502657
315.437851316748;74.0842051336422
315.459475304749;73.8817859412058
315.48109929275;73.6461967488367
315.502723280751;73.3706254138557
315.524347268752;73.0472956360581
315.545971256753;72.6794694298076
315.567595244754;72.2655855847058
315.589219232755;71.8194588080257
315.610843220756;71.3508434274825
315.632467208757;70.861970999633
315.654091196758;70.3601802621007
315.675715184759;69.8558290698249
315.697339172759;69.3705843416521
315.71896316076;68.9285912732774
315.740587148761;68.5473435116884
315.762211136762;68.239720581979
315.783835124763;67.9998227512415
315.805459112764;67.8213753249865
315.827083100765;67.7022494577161
315.848707088766;67.6422530285944
315.870331076767;67.6437462648366
315.891955064768;67.7023438451128
315.913579052769;67.8183063021762
315.93520304077;67.9834339821136
315.956827028771;68.1893428063704
315.978451016771;68.4269576537755
316.000075004772;68.6898302329416
316.021698992773;68.9784849807263
316.043322980774;69.2950004521786
316.064946968775;69.6347542503674
316.086570956776;69.9830063632568
316.108194944777;70.3283552436196
316.129818932778;70.667797809887
316.151442920779;70.9958118355111
316.17306690878;71.3120903296366
316.194690896781;71.6197253546213
316.216314884782;71.919018844102
316.237938872783;72.1999392081665
316.259562860784;72.4481336561601
316.281186848785;72.6575992980982
316.302810836785;72.830933697197
316.324434824786;72.9710508824413
316.346058812787;73.0808902224296
316.367682800788;73.1640782087008
316.389306788789;73.223385790765
316.41093077679;73.2596150515657
316.432554764791;73.2726089951927
316.454178752792;73.258615925523
316.475802740793;73.2121983696235
316.497426728794;73.1303867705444
316.519050716795;73.0144271017413
316.540674704796;72.8676997443137
316.562298692797;72.6940322791624
316.583922680797;72.497794091562
316.605546668798;72.2803746841083
316.627170656799;72.0384837980578
316.6487946448;71.7663289448479
316.670418632801;71.479530042383
316.692042620802;71.2037358240192
316.713666608803;70.9435138492563
316.735290596804;70.693785340377
316.756914584805;70.452692143002
316.778538572806;70.2270891497385
316.800162560807;70.0229742234433
316.821786548808;69.8353156645411
316.843410536809;69.6584878669056
316.86503452481;69.4892853766984
316.88665851281;69.3229380455551
316.908282500811;69.1563780660411
316.929906488812;68.991130665668
316.951530476813;68.8313152762372
316.973154464814;68.6733711335002
316.994778452815;68.5031510957944
317.016402440816;68.3173233937579
317.038026428817;68.1281152852777
317.059650416818;67.9456389012829
317.081274404819;67.764045783608
317.10289839282;67.5647701880715
317.124522380821;67.3449155358941
317.146146368822;67.1251927192312
317.167770356822;66.9234855745843
317.189394344823;66.7318321806274
317.211018332824;66.5405790576775
317.232642320825;66.3493221945052
317.254266308826;66.1713442912494
317.275890296827;66.0199803134362
317.297514284828;65.8826100036802
317.319138272829;65.7510014975377
317.34076226083;65.6300799992552
317.362386248831;65.5219890772953
317.384010236832;65.4218611837366
317.405634224833;65.3211385193663
317.427258212834;65.2190563008355
317.448882200835;65.1244265889246
317.470506188835;65.0425505283697
317.492130176836;64.966785072247
317.513754164837;64.9006509431524
317.535378152838;64.8589380129317
317.557002140839;64.8437065941803
317.57862612884;64.844755988164
317.600250116841;64.8541787245076
317.621874104842;64.8801749106042
317.643498092843;64.9247789188665
317.665122080844;64.9857217654104
317.686746068845;65.0688710097524
317.708370056846;65.1811449146141
317.729994044847;65.3122338751863
317.751618032847;65.4446869797485
317.773242020848;65.5727260263739
317.794866008849;65.6943705049072
317.81648999685;65.8051175376402
317.838113984851;65.903161644478
317.859737972852;65.9914404896552
317.881361960853;66.0751327558877
317.902985948854;66.152409082738
317.924609936855;66.2178707360908
317.946233924856;66.2711918349259
317.967857912857;66.3149769489182
317.989481900858;66.3489766282475
318.011105888859;66.3707392404777
318.03272987686;66.3923176803184
318.05435386486;66.4256512778018
318.075977852861;66.4749759851532
318.097601840862;66.5437583808236
318.119225828863;66.6369592338247
318.140849816864;66.7606775095728
318.162473804865;66.9235312689802
318.184097792866;67.131343883128
318.205721780867;67.3679024745401
318.227345768868;67.6198736622688
318.248969756869;67.8756914330609
318.27059374487;68.1368111761396
318.292217732871;68.4035822190454
318.313841720872;68.6561583713754
318.335465708873;68.8736585314694
318.357089696873;69.0508147429419
318.378713684874;69.1851044987439
318.400337672875;69.2643262723586
318.421961660876;69.2746047452607
318.443585648877;69.2275646933816
318.465209636878;69.1410732953944
318.486833624879;69.0324174320089
318.50845761288;68.9145252808564
318.530081600881;68.7878835085524
318.551705588882;68.6607974922807
318.573329576883;68.5403066317314
318.594953564884;68.4295826488166
318.616577552885;68.3219301778778
318.638201540886;68.2054138647731
318.659825528886;68.0778263751119
318.681449516887;67.938363549987
318.703073504888;67.7837210457627
318.724697492889;67.6014765488165
318.74632148089;67.3756557978691
318.767945468891;67.1011484717054
318.789569456892;66.7818365396412
318.811193444893;66.4270836720504
318.832817432894;66.0326683655285
318.854441420895;65.6086140943373
318.876065408896;65.1731578650767
318.897689396897;64.7344211116888
318.919313384898;64.2893815364142
318.940937372898;63.8538612190629
318.962561360899;63.4491508116279
318.9841853489;63.0707936308663
319.005809336901;62.7158959762418
319.027433324902;62.3896824116548
319.049057312903;62.097877919436
319.070681300904;61.8401218345852
319.092305288905;61.6137499994075
319.113929276906;61.4179861305701
319.135553264907;61.2437614415846
319.157177252908;61.0834067400861
319.178801240909;60.9490657963213
319.20042522891;60.8599088333765
319.222049216911;60.8028574604761
319.243673204911;60.7474729596325
319.265297192912;60.6764016858552
319.286921180913;60.601024749109
319.308545168914;60.532201009744
319.330169156915;60.4672246464542
319.351793144916;60.400605745055
319.373417132917;60.33739296712
319.395041120918;60.2838088046809
319.416665108919;60.2412301517996
319.43828909692;60.2161824818116
319.459913084921;60.2151917100347
319.481537072922;60.2408119961514
319.503161060923;60.3007611786053
319.524785048923;60.3873958804592
319.546409036924;60.4897569239228
319.568033024925;60.5966983462023
319.589657012926;60.6921399352776
319.611281000927;60.7585028259677
319.632904988928;60.7820974874897
319.654528976929;60.7651134339809
319.67615296493;60.7174951828023
319.697776952931;60.635270121433
319.719400940932;60.5074691857974
319.741024928933;60.3263257974216
319.762648916934;60.0891063504814
319.784272904935;59.8035812559194
319.805896892936;59.4697998535309
319.827520880936;59.0884361503061
319.849144868937;58.6750895138162
319.870768856938;58.2540879597387
319.892392844939;57.8399100590358
319.91401683294;57.4416995854392
319.935640820941;57.0769513246983
319.957264808942;56.7599122756876
319.978888796943;56.4877812267957
320.000512784944;56.2541988063463
320.022136772945;56.0642811455445
320.043760760946;55.9261262435447
320.065384748947;55.8325481614271
320.087008736948;55.7723028839837
320.108632724949;55.7447716395432
320.130256712949;55.7478915364925
320.15188070095;55.7793561126472
320.173504688951;55.8343444553572
320.195128676952;55.9039278642997
320.216752664953;55.9796439934239
320.238376652954;56.0600003169859
320.260000640955;56.1453912140023
320.281624628956;56.2344234871725
320.303248616957;56.3289846743665
320.324872604958;56.4317799240201
320.346496592959;56.5435278784387
320.36812058096;56.66233097403
320.389744568961;56.7837884295693
320.411368556961;56.9071814528844
320.432992544962;57.037914921725
320.454616532963;57.1809607102283
320.476240520964;57.3397214029844
320.497864508965;57.5168567313451
320.519488496966;57.7121248360032
320.541112484967;57.9205900644162
320.562736472968;58.1352982308835
320.584360460969;58.3542062344684
320.60598444897;58.5806887272429
320.627608436971;58.8192032292277
320.649232424972;59.0713897548069
320.670856412973;59.3293673243432
320.692480400974;59.5806004293266
320.714104388974;59.8243379808146
320.735728376975;60.0595088603912
320.757352364976;60.2782144331584
320.778976352977;60.4741699165361
320.800600340978;60.6534519592496
320.822224328979;60.8249718626891
320.84384831698;60.9889762433586
320.865472304981;61.1483862976807
320.887096292982;61.3052234730043
320.908720280983;61.4557904109154
320.930344268984;61.595481158421
320.951968256985;61.7335929638839
320.973592244986;61.8743501898457
320.995216232986;62.0083408254646
321.016840220987;62.1176736428899
321.038464208988;62.1927815730993
321.060088196989;62.2413616503144
321.08171218499;62.2743322959529
321.103336172991;62.2993622226125
321.124960160992;62.3154956081067
321.146584148993;62.3164588805535
321.168208136994;62.309588349928
321.189832124995;62.3312580891728
321.211456112996;62.3990065542383
321.233080100997;62.4900486723341
321.254704088998;62.5823646162238
321.276328076999;62.6788054332189
321.297952064999;62.7900339608325
321.319576053;62.9071091953349
321.341200041001;63.0026245161772
321.362824029002;63.062458728642
321.384448017003;63.0889364991696
321.406072005004;63.0940860889616
321.427695993005;63.0728256742259
321.449319981006;62.9982872893324
321.470943969007;62.8700595068001
321.492567957008;62.7026532835169
321.514191945009;62.5083709564467
321.53581593301;62.2887062700738
321.557439921011;62.0389325738931
321.579063909012;61.7636484675197
321.600687897012;61.4830873439452
321.622311885013;61.2275082016468
321.643935873014;61.0131044724688
321.665559861015;60.8287919743588
321.687183849016;60.6652699925938
321.708807837017;60.5159781775021
321.730431825018;60.3773024699944
321.752055813019;60.2378107106709
321.77367980102;60.0793596365793
321.795303789021;59.897285924946
321.816927777022;59.6906950558703
321.838551765023;59.4506983393467
321.860175753024;59.1701252675632
321.881799741025;58.8392154929594
321.903423729025;58.4561590289609
321.925047717026;58.0126380458176
321.946671705027;57.5049482259612
321.968295693028;56.9553028767502
321.989919681029;56.394869942753
322.01154366903;55.8292688135172
322.033167657031;55.245555007407
322.054791645032;54.631117646641
322.076415633033;54.00345688714
322.098039621034;53.3782974922908
322.119663609035;52.7612241769751
322.141287597036;52.1935618008563
322.162911585037;51.6987557756758
322.184535573037;51.2666039300042
322.206159561038;50.8830331265002
322.227783549039;50.54587481894
322.24940753704;50.2780553252726
322.271031525041;50.0842559694928
322.292655513042;49.9537551553611
322.314279501043;49.8698853571367
322.335903489044;49.8260498368518
322.357527477045;49.833532442743
322.379151465046;49.8742232537908
322.400775453047;49.9335500764725
322.422399441048;49.9965863691928
322.444023429049;50.0527840607291
322.46564741705;50.0939377686092
322.48727140505;50.1139791281538
322.508895393051;50.1070812250049
322.530519381052;50.0684833527708
322.552143369053;49.9939560065125
322.573767357054;49.8797635976676
322.595391345055;49.7195272872952
322.617015333056;49.5099039809214
322.638639321057;49.2615104043831
322.660263309058;49.0059390563567
322.681887297059;48.7586351035867
322.70351128506;48.5180405196583
322.725135273061;48.2671035843783
322.746759261062;47.9888030058818
322.768383249062;47.685888904799
322.790007237063;47.3984624817182
322.811631225064;47.1531762188655
322.833255213065;46.958066213474
322.854879201066;46.825744387853
322.876503189067;46.7589011110177
322.898127177068;46.7348726425092
322.919751165069;46.7400696862836
322.94137515307;46.7901191925147
322.962999141071;46.8899028217808
322.984623129072;47.0244448127177
323.006247117073;47.1792544007478
323.027871105074;47.3492267513357
323.049495093075;47.533188263804
323.071119081075;47.7282373391264
323.092743069076;47.9200780796305
323.114367057077;48.1011843808975
323.135991045078;48.2763663866957
323.157615033079;48.4380000731774
323.17923902108;48.5851514961658
323.200863009081;48.7282600093254
323.222486997082;48.8708881896909
323.244110985083;49.0099355712274
323.265734973084;49.1361158154394
323.287358961085;49.2408004862908
323.308982949086;49.3351148407363
323.330606937087;49.4205340300258
323.352230925088;49.4835962170988
323.373854913088;49.5111210215723
323.395478901089;49.4982854803372
323.41710288909;49.4374579007308
323.438726877091;49.3313118835916
323.460350865092;49.192440663155
323.481974853093;49.0314826830863
323.503598841094;48.8604955534182
323.525222829095;48.692797015077
323.546846817096;48.5302933080921
323.568470805097;48.3672479318765
323.590094793098;48.1957492584985
323.611718781099;48.011892031896
323.6333427691;47.8221911241044
323.654966757101;47.6346984600309
323.676590745101;47.442045377543
323.698214733102;47.2298478493338
323.719838721103;46.9788048591238
323.741462709104;46.6871613055871
323.763086697105;46.3588020532291
323.784710685106;45.9822568964383
323.806334673107;45.5477320387027
323.827958661108;45.0621048582241
323.849582649109;44.5498306570734
323.87120663711;44.0282445172201
323.892830625111;43.4956801720414
323.914454613112;42.9448248345805
323.936078601113;42.3715677414433
323.957702589113;41.795926212834
323.979326577114;41.2551994279837
324.000950565115;40.7432729097765
324.022574553116;40.2714067816075
324.044198541117;39.8603031315204
324.065822529118;39.5086142294443
324.087446517119;39.1938710523428
324.10907050512;38.8969023508857
324.130694493121;38.6261881893338
324.152318481122;38.4080685083087
324.173942469123;38.2479277610197
324.195566457124;38.1449738559286
324.217190445125;38.0887668478621
324.238814433126;38.0919487610491
324.260438421126;38.1642531575311
324.282062409127;38.2856258947065
324.303686397128;38.4644739310202
324.325310385129;38.7221407989012
324.34693437313;39.0341510221421
324.368558361131;39.3734984752247
324.390182349132;39.7411856165621
324.411806337133;40.1381018098543
324.433430325134;40.5529423706209
324.455054313135;40.9673849946317
324.476678301136;41.35685234864
324.498302289137;41.7035130944221
324.519926277138;42.0002699922342
324.541550265138;42.2486727970122
324.563174253139;42.4541339034373
324.58479824114;42.6265061137349
324.606422229141;42.7723756030454
324.628046217142;42.899102213778
324.649670205143;43.0096464137671
324.671294193144;43.1004311320252
324.692918181145;43.1782625708735
324.714542169146;43.2548946445777
324.736166157147;43.3350842051034
324.757790145148;43.4182675415719
324.779414133149;43.5018783628259
