Name;ESR_BC_1_359s_X_gon_140dg_result

Recipe
Accumulations;5;Number of accumulations
RetryCount;0;Number of retries on error
AbortOnError;True;Abort on error
EnableQFactorMeasurement;False;Enable/Disable q-Factor measurement
Bfrom;313;B from
Bto;363;B to
SweepTime;60;Sweep time
Modulation;0.2;Modulation
ModulationFreq;100;Modulation
BHoldEnabled;False;B hold enabled
BHold;0;B hold
MicrowavePower;2;Microwave power
MarkerEnabled;False;
MarkerStartField;0;
MarkerEndField;0;
Mode;;
KineticGFact;0;
KineticTotalTransientTime;0;
KineticTimeResolution;0;
TempFrom;5;
TempUseSlope;False;
TempTo;5;
TempdT;1;
TempSetupTime;0;
GonFrom;0;
GonTo;180;
GonSteps;20;
XRayEnabled;False;
XRayTime;3;
XRayVoltage;40;
XRayCurrent;0.5;
UVEnabled;False;
UVIntensity;0;
UVTime;0;
UVLeadTime;0;
UVWavelength;0;
PowSweepFrom;1;
PowSweepTo;5;
PowSweepSteps;5;
AmpModSweepFrom;0;
AmpModSweepTo;1;
AmpModSweepSteps;10;
ExtTriggerEnabled;False;
ExtTrigLeadTime;0;
ExtTrigOnTime;5;

Meas
BField [mT];MW_Absorption []
313.025992279053;651.279582512064
313.047617222377;650.504565673621
313.069242165702;649.689715522881
313.090867109026;648.824787223594
313.112492052351;647.903828242375
313.134116995675;646.913882675441
313.155741939;645.850294792466
313.177366882324;644.729342858559
313.198991825649;643.60331938838
313.220616768973;642.510048363143
313.242241712298;641.436878061076
313.263866655622;640.356376997228
313.285491598947;639.272137004664
313.307116542271;638.225346810517
313.328741485596;637.243555022035
313.35036642892;636.325623130377
313.371991372245;635.446381727088
313.393616315569;634.584457880089
313.415241258894;633.753870012068
313.436866202218;632.921218353706
313.458491145543;632.042918357621
313.480116088867;631.084316209925
313.501741032192;630.046869279718
313.523365975516;628.94943647845
313.544990918841;627.839128463994
313.566615862165;626.744893691683
313.58824080549;625.663150296644
313.609865748814;624.576748732616
313.631490692139;623.470024108269
313.653115635463;622.352846436803
313.674740578788;621.226064315224
313.696365522112;620.1686142953
313.717990465437;619.218716554289
313.739615408761;618.371506855325
313.761240352086;617.637445905222
313.78286529541;617.043642706506
313.804490238735;616.594894300985
313.826115182059;616.274490892775
313.847740125384;616.089627908653
313.869365068708;616.039075946695
313.890990012033;616.080659141698
313.912614955357;616.172878009206
313.934239898682;616.289310331076
313.955864842006;616.412640983517
313.977489785331;616.526066610109
313.999114728655;616.600600332278
314.02073967198;616.606552819108
314.042364615304;616.539510460489
314.063989558629;616.394322186194
314.085614501953;616.160069340327
314.107239445278;615.81737166292
314.128864388602;615.343108569645
314.150489331927;614.783655345865
314.172114275251;614.165480108038
314.193739218576;613.502229358368
314.2153641619;612.785647895156
314.236989105225;611.977018100243
314.258614048549;611.110382210221
314.280238991874;610.238245485445
314.301863935198;609.392743449479
314.323488878523;608.523178069665
314.345113821847;607.599179566054
314.366738765172;606.651351509752
314.388363708496;605.733323483017
314.409988651821;604.857951964923
314.431613595145;604.002399381923
314.45323853847;603.161744367945
314.474863481794;602.349178079798
314.496488425119;601.589143125466
314.518113368443;600.873256955423
314.539738311768;600.179762136688
314.561363255092;599.484683350218
314.582988198417;598.791421502241
314.604613141741;598.115122105799
314.626238085066;597.448477783585
314.64786302839;596.761624099757
314.669487971715;596.019017773881
314.691112915039;595.235965981983
314.712737858364;594.428240673701
314.734362801688;593.580714247185
314.755987745013;592.679075133646
314.777612688337;591.731248219521
314.799237631662;590.753189187268
314.820862574986;589.771581786816
314.842487518311;588.811427679228
314.864112461635;587.859431227075
314.88573740496;586.919233484446
314.907362348284;586.025966173416
314.928987291609;585.197198136315
314.950612234933;584.401589248883
314.972237178258;583.654155006529
314.993862121582;582.959329574498
315.015487064907;582.301092975399
315.037112008231;581.656381402865
315.058736951556;581.02200757907
315.08036189488;580.414951059453
315.101986838205;579.83101232074
315.123611781529;579.260653184927
315.145236724854;578.701729174571
315.166861668178;578.155381583262
315.188486611503;577.624520637877
315.210111554827;577.110694401221
315.231736498152;576.611141312899
315.253361441476;576.128144553006
315.274986384801;575.663315324922
315.296611328125;575.213153507235
315.31823627145;574.784285828643
315.339861214774;574.37302706588
315.361486158099;573.957554378301
315.383111101423;573.536409199619
315.404736044747;573.101776893926
315.426360988072;572.642951772102
315.447985931396;572.149421111905
315.469610874721;571.607750956481
315.491235818045;571.015712365433
315.51286076137;570.402647820817
315.534485704694;569.775055897991
315.556110648019;569.113857941019
315.577735591343;568.421515365226
315.599360534668;567.717504013317
315.620985477992;567.006452898806
315.642610421317;566.286238608492
315.664235364641;565.559452667809
315.685860307966;564.826982557858
315.70748525129;564.083450126477
315.729110194615;563.345987920395
315.750735137939;562.641791591717
315.772360081264;561.9817760522
315.793985024588;561.372087691558
315.815609967913;560.813594762481
315.837234911237;560.296455433839
315.858859854562;559.813140043713
315.880484797886;559.364846907053
315.902109741211;558.963185806833
315.923734684535;558.614207403423
315.94535962786;558.31857752867
315.966984571184;558.070507209009
315.988609514509;557.856945565862
316.010234457833;557.667859835071
316.031859401158;557.495852740739
316.053484344482;557.323171940323
316.075109287807;557.128154494524
316.096734231131;556.897886052771
316.118359174456;556.622445271709
316.13998411778;556.285256928342
316.161609061105;555.86738580893
316.183234004429;555.346895306241
316.204858947754;554.714060552665
316.226483891078;554.002242131449
316.248108834403;553.242066718209
316.269733777727;552.415224944295
316.291358721052;551.530437428434
316.312983664376;550.616551113844
316.334608607701;549.690092479407
316.356233551025;548.750615112133
316.37785849435;547.824046739412
316.399483437674;546.951739733337
316.421108380999;546.150564776778
316.442733324323;545.399017163541
316.464358267648;544.658277726549
316.485983210972;543.910531832247
316.507608154297;543.172515961736
316.529233097621;542.466678307725
316.550858040946;541.80060923775
316.57248298427;541.18790054242
316.594107927595;540.611925023103
316.615732870919;540.034312966324
316.637357814244;539.421818950638
316.658982757568;538.768098810891
316.680607700893;538.117952686296
316.702232644217;537.486346054223
316.723857587542;536.874690444113
316.745482530866;536.294268370251
316.767107474191;535.735498833399
316.788732417515;535.180927252023
316.81035736084;534.625288276349
316.831982304164;534.069405427008
316.853607247489;533.516383988947
316.875232190813;532.94955552884
316.896857134138;532.344678251732
316.918482077462;531.725878112534
316.940107020787;531.114279779452
316.961731964111;530.510138765966
316.983356907436;529.907057262751
317.00498185076;529.294724041713
317.026606794085;528.671541006638
317.048231737409;528.047524694529
317.069856680734;527.430778089633
317.091481624058;526.805784741078
317.113106567383;526.150468555614
317.134731510707;525.463378466352
317.156356454032;524.751958746323
317.177981397356;524.002877774697
317.199606340681;523.198270421516
317.221231284005;522.363919990887
317.24285622733;521.543177995139
317.264481170654;520.742827007086
317.286106113979;519.964538933971
317.307731057303;519.223514032015
317.329356000628;518.531181156412
317.350980943952;517.888234513329
317.372605887277;517.299877509676
317.394230830601;516.759417652329
317.415855773926;516.239157504682
317.43748071725;515.716617946349
317.459105660575;515.188685694746
317.480730603899;514.653133408347
317.502355547224;514.114624368343
317.523980490548;513.576825936407
317.545605433873;513.020114844561
317.567230377197;512.407202179708
317.588855320522;511.701284853542
317.610480263846;510.919287698346
317.632105207171;510.124334618383
317.653730150495;509.332411301083
317.67535509382;508.520418915495
317.696980037144;507.664560805377
317.718604980469;506.775474388254
317.740229923793;505.899822767517
317.761854867118;505.05869004503
317.783479810442;504.239245298205
317.805104753767;503.428182132215
317.826729697091;502.632684532482
317.848354640416;501.879938366356
317.86997958374;501.176675411972
317.891604527065;500.498961925984
317.913229470389;499.830533793518
317.934854413714;499.200446191626
317.956479357038;498.653463805715
317.978104300363;498.17650201434
317.999729243687;497.73610806019
318.021354187012;497.314702635023
318.042979130336;496.919648075429
318.064604073661;496.559155983201
318.086229016985;496.228916905049
318.10785396031;495.91652467542
318.129478903634;495.610093300178
318.151103846959;495.301769889303
318.172728790283;494.983869341601
318.194353733608;494.646698211757
318.215978676932;494.282305709356
318.237603620257;493.876029744516
318.259228563581;493.420167735831
318.280853506906;492.929881964535
318.30247845023;492.404369767172
318.324103393555;491.833913405651
318.345728336879;491.21525210782
318.367353280204;490.561350247068
318.388978223528;489.897566249429
318.410603166853;489.236016113938
318.432228110177;488.590030712599
318.453853053502;487.981722894292
318.475477996826;487.420601297801
318.497102940151;486.912734899359
318.518727883475;486.462173385345
318.5403528268;486.067074559344
318.561977770124;485.733846320881
318.583602713449;485.467633449168
318.605227656773;485.258381339911
318.626852600098;485.094677884674
318.648477543422;484.971254105338
318.670102486747;484.890156191955
318.691727430071;484.846304995663
318.713352373396;484.836235220108
318.73497731672;484.855639900657
318.756602260045;484.902722128625
318.778227203369;484.969115892034
318.799852146694;485.039904642411
318.821477090018;485.112329323547
318.843102033343;485.190212383212
318.864726976667;485.262370642432
318.886351919992;485.311268464485
318.907976863316;485.32130571634
318.929601806641;485.277596233366
318.951226749965;485.153502555597
318.97285169329;484.941044731545
318.994476636614;484.649368293517
319.016101579939;484.286450539187
319.037726523263;483.840314910415
319.059351466588;483.287905602557
319.080976409912;482.643927002993
319.102601353237;481.952528799119
319.124226296561;481.232322953324
319.145851239886;480.476520802451
319.16747618321;479.690747482608
319.189101126535;478.913405391124
319.210726069859;478.172680007518
319.232351013184;477.481142980502
319.253975956508;476.808487196639
319.275600899833;476.154637458471
319.297225843157;475.563269387135
319.318850786482;475.063358786892
319.340475729806;474.635175019875
319.362100673131;474.263084360417
319.383725616455;473.930132312198
319.40535055978;473.622202524127
319.426975503104;473.331142165757
319.448600446429;473.045845434246
319.470225389753;472.744039640722
319.491850333078;472.404371636168
319.513475276402;472.016744210012
319.535100219727;471.578279799701
319.556725163051;471.0785826844
319.578350106376;470.506688327161
319.5999750497;469.861776450348
319.621599993025;469.160312932055
319.643224936349;468.395218655661
319.664849879674;467.546891277802
319.686474822998;466.6376208731
319.708099766323;465.70039749187
319.729724709647;464.736393922427
319.751349652972;463.715173509944
319.772974596296;462.624851412784
319.794599539621;461.491473498202
319.816224482945;460.345485218476
319.83784942627;459.191341772548
319.859474369594;458.041472556072
319.881099312919;456.966676263593
319.902724256243;455.998709877554
319.924349199568;455.125551423502
319.945974142892;454.356779331944
319.967599086217;453.708042921857
319.989224029541;453.174756774282
320.010848972866;452.750708706911
320.03247391619;452.419528994495
320.054098859515;452.167390038689
320.075723802839;451.998815423077
320.097348746164;451.943143440076
320.118973689488;452.00703639806
320.140598632813;452.149770976236
320.162223576137;452.359385652629
320.183848519461;452.652584795001
320.205473462786;453.045698811129
320.22709840611;453.542468898086
320.248723349435;454.122078742888
320.270348292759;454.749204603791
320.291973236084;455.391749439126
320.313598179408;456.016409404122
320.335223122733;456.595461885888
320.356848066057;457.105471357738
320.378473009382;457.515654534467
320.400097952706;457.786367391181
320.421722896031;457.865502244917
320.443347839355;457.706020277881
320.46497278268;457.301393786726
320.486597726004;456.667761315935
320.508222669329;455.822017621229
320.529847612653;454.766427839914
320.551472555978;453.516625675938
320.573097499302;452.096042143167
320.594722442627;450.523785082433
320.616347385951;448.805219291037
320.637972329276;447.002464684658
320.6595972726;445.220234655804
320.681222215925;443.500341522812
320.702847159249;441.836883155987
320.724472102574;440.210710710573
320.746097045898;438.629513318393
320.767721989223;437.165938724261
320.789346932547;435.864875396538
320.810971875872;434.693429602033
320.832596819196;433.614037740214
320.854221762521;432.597529182548
320.875846705845;431.620219851258
320.89747164917;430.668388047068
320.919096592494;429.732709627206
320.940721535819;428.780477497009
320.962346479143;427.790759236589
320.983971422468;426.738021972775
321.005596365792;425.590826921281
321.027221309117;424.330340962712
321.048846252441;422.967866867604
321.070471195766;421.480494527499
321.09209613909;419.890974731001
321.113721082415;418.264192226386
321.135346025739;416.60814663935
321.156970969064;414.877358005262
321.178595912388;413.013882099319
321.200220855713;410.998991123813
321.221845799037;408.895600127684
321.243470742362;406.836962580841
321.265095685686;404.874178501249
321.286720629011;403.04691131753
321.308345572335;401.394011409516
321.32997051566;399.868536753137
321.351595458984;398.454336307705
321.373220402309;397.199925181611
321.394845345633;396.191567692177
321.416470288958;395.388052543085
321.438095232282;394.751829313771
321.459720175607;394.252399541356
321.481345118931;393.874950160131
321.502970062256;393.616107402613
321.52459500558;393.451668976579
321.546219948905;393.375112686555
321.567844892229;393.377116494537
321.589469835554;393.43797859353
321.611094778878;393.531057094851
321.632719722203;393.652189898655
321.654344665527;393.798503003613
321.675969608852;393.947733769828
321.697594552176;394.088865632087
321.719219495501;394.226071989494
321.740844438825;394.364745802079
321.76246938215;394.495558466976
321.784094325474;394.602283466165
321.805719268799;394.671716360639
321.827344212123;394.700659607644
321.848969155448;394.690783919356
321.870594098772;394.627252978612
321.892219042097;394.491117794594
321.913843985421;394.270240996291
321.935468928746;393.969741846183
321.95709387207;393.581637581943
321.978718815395;393.102780421424
322.000343758719;392.518089686029
322.021968702044;391.80914412004
322.043593645368;390.998297496454
322.065218588693;390.124972505151
322.086843532017;389.207765518867
322.108468475342;388.212224663103
322.130093418666;387.144915456038
322.151718361991;386.061410264043
322.173343305315;384.954561311655
322.19496824864;383.783097746988
322.216593191964;382.562738817424
322.238218135289;381.366168040394
322.259843078613;380.188817191781
322.281468021938;378.945620102987
322.303092965262;377.595377118514
322.324717908587;376.25000373454
322.346342851911;374.969190530033
322.367967795236;373.721304901818
322.38959273856;372.452792304459
322.411217681885;371.150197468805
322.432842625209;369.850563399557
322.454467568534;368.586457549877
322.476092511858;367.358366519291
322.497717455183;366.177777119548
322.519342398507;365.048243233527
322.540967341832;363.950806664146
322.562592285156;362.869619269624
322.584217228481;361.827870682728
322.605842171805;360.842037470715
322.62746711513;359.878477252146
322.649092058454;358.93337250136
322.670717001779;358.021829450426
322.692341945103;357.138515732091
322.713966888428;356.272790458166
322.735591831752;355.418698365826
322.757216775077;354.58846606397
322.778841718401;353.79267811499
322.800466661726;353.030579258667
322.82209160505;352.277396292485
322.843716548375;351.487072137125
322.865341491699;350.642544327319
322.886966435024;349.772605851835
322.908591378348;348.905555487991
322.930216321673;348.044204092275
322.951841264997;347.175297309422
322.973466208322;346.282995853792
322.995091151646;345.351384042319
323.016716094971;344.381720471334
323.038341038295;343.425278979947
323.05996598162;342.513381039514
323.081590924944;341.639718145731
323.103215868269;340.792698306709
323.124840811593;339.954891343014
323.146465754918;339.122011865337
323.168090698242;338.299653961513
323.189715641567;337.514940155613
323.211340584891;336.786417265242
323.232965528216;336.108802661014
323.25459047154;335.456818972689
323.276215414865;334.826838469768
323.297840358189;334.240915952906
323.319465301514;333.727357426171
323.341090244838;333.270544947548
323.362715188163;332.841936297068
323.384340131487;332.426810776542
323.405965074812;332.026198279847
323.427590018136;331.649780244967
323.449214961461;331.306422458333
323.470839904785;330.996115996588
323.49246484811;330.703828774697
323.514089791434;330.419744071369
323.535714734759;330.144848639254
323.557339678083;329.873515786065
323.578964621408;329.599067416739
323.600589564732;329.316761038269
323.622214508057;329.018809252882
323.643839451381;328.706718681167
323.665464394706;328.376508933429
323.68708933803;328.007501386312
323.708714281355;327.585195182831
323.730339224679;327.10528708535
323.751964168004;326.569580623212
323.773589111328;325.998211626946
323.795214054653;325.389041790739
323.816838997977;324.727179908785
323.838463941302;324.022347905884
323.860088884626;323.311049302711
323.881713827951;322.618380325341
323.903338771275;321.933847867556
323.9249637146;321.229812308452
323.946588657924;320.491532538608
323.968213601249;319.725831315638
323.989838544573;318.943935149605
324.011463487898;318.132726803542
324.033088431222;317.265333637218
324.054713374547;316.337529094232
324.076338317871;315.36861358365
324.097963261196;314.384102434578
324.11958820452;313.398396157932
324.141213147845;312.398744609383
324.162838091169;311.374259787579
324.184463034494;310.338357880536
324.206087977818;309.31404836458
324.227712921143;308.303161294462
324.249337864467;307.291233827539
324.270962807792;306.266428574699
324.292587751116;305.232995358265
324.314212694441;304.190431183557
324.335837637765;303.130482030063
324.35746258109;302.050013776184
324.379087524414;300.964591262516
324.400712467739;299.872596408259
324.422337411063;298.744532524949
324.443962354388;297.54422260645
324.465587297712;296.233697141881
324.487212241037;294.839973343887
324.508837184361;293.406000265245
324.530462127686;291.934603568624
324.55208707101;290.409971324724
324.573712014335;288.838330954743
324.595336957659;287.245136663522
324.616961900984;285.616118732387
324.638586844308;283.908497521176
324.660211787633;282.120180496764
324.681836730957;280.291559809971
324.703461674282;278.458897935948
324.725086617606;276.627639186098
324.746711560931;274.825926886172
324.768336504255;273.090266757954
