Name;ESR_BC_1_89s_X_gon_40dg_result

Recipe
Accumulations;5;Number of accumulations
RetryCount;0;Number of retries on error
AbortOnError;True;Abort on error
EnableQFactorMeasurement;False;Enable/Disable q-Factor measurement
Bfrom;313;B from
Bto;363;B to
SweepTime;60;Sweep time
Modulation;0.2;Modulation
ModulationFreq;100;Modulation
BHoldEnabled;False;B hold enabled
BHold;0;B hold
MicrowavePower;2;Microwave power
MarkerEnabled;False;
MarkerStartField;0;
MarkerEndField;0;
Mode;;
KineticGFact;0;
KineticTotalTransientTime;0;
KineticTimeResolution;0;
TempFrom;5;
TempUseSlope;False;
TempTo;5;
TempdT;1;
TempSetupTime;0;
GonFrom;0;
GonTo;180;
GonSteps;20;
XRayEnabled;False;
XRayTime;3;
XRayVoltage;40;
XRayCurrent;0.5;
UVEnabled;False;
UVIntensity;0;
UVTime;0;
UVLeadTime;0;
UVWavelength;0;
PowSweepFrom;1;
PowSweepTo;5;
PowSweepSteps;5;
AmpModSweepFrom;0;
AmpModSweepTo;1;
AmpModSweepSteps;10;
ExtTriggerEnabled;False;
ExtTrigLeadTime;0;
ExtTrigOnTime;5;

Meas
BField [mT];MW_Absorption []
313.017335662842;603.613397911982
313.038962382494;603.046784597468
313.060589102146;602.424141312115
313.082215821799;601.749143777646
313.103842541451;601.048770351644
313.125469261103;600.327125339438
313.147095980756;599.553180783252
313.168722700408;598.729475703653
313.19034942006;597.851980358814
313.211976139713;596.880225797958
313.233602859365;595.799279507054
313.255229579017;594.673248470414
313.27685629867;593.519094102124
313.298483018322;592.315064998821
313.320109737974;591.071053683641
313.341736457627;589.808172389165
313.363363177279;588.516375823099
313.384989896931;587.181822414333
313.406616616584;585.839313312711
313.428243336236;584.541364002989
313.449870055888;583.285395135865
313.47149677554;582.065254823107
313.493123495193;580.88494498981
313.514750214845;579.736059095206
313.536376934497;578.599026395912
313.55800365415;577.479832714316
313.579630373802;576.387459503033
313.601257093454;575.310482627418
313.622883813107;574.254493703745
313.644510532759;573.209215008851
313.666137252411;572.160115187632
313.687763972064;571.12117699013
313.709390691716;570.139035726467
313.731017411368;569.181429486272
313.752644131021;568.190264157435
313.774270850673;567.190785430293
313.795897570325;566.23128256503
313.817524289977;565.31785142994
313.83915100963;564.452786739988
313.860777729282;563.626256151507
313.882404448934;562.856419083391
313.904031168587;562.153597462601
313.925657888239;561.501733418286
313.947284607891;560.887794742863
313.968911327544;560.317868273183
313.990538047196;559.798776156618
314.012164766848;559.328089898772
314.033791486501;558.891377677769
314.055418206153;558.46963075338
314.077044925805;558.049741902051
314.098671645458;557.623078870318
314.12029836511;557.183354334356
314.141925084762;556.734264996288
314.163551804415;556.29603810351
314.185178524067;555.870186324634
314.206805243719;555.430523081674
314.228431963372;554.958790235541
314.250058683024;554.448229339184
314.271685402676;553.896662083746
314.293312122328;553.309252352007
314.314938841981;552.701665612716
314.336565561633;552.087762208657
314.358192281285;551.472297579421
314.379819000938;550.856831711384
314.40144572059;550.240040138529
314.423072440242;549.621739611754
314.444699159895;549.001970813366
314.466325879547;548.37553230242
314.487952599199;547.731202463406
314.509579318852;547.072601203371
314.531206038504;546.393214770073
314.552832758156;545.675787430836
314.574459477809;544.926147063519
314.596086197461;544.155638449746
314.617712917113;543.380289887047
314.639339636766;542.585713446618
314.660966356418;541.74142779013
314.68259307607;540.827854369794
314.704219795722;539.871598620535
314.725846515375;538.919325217088
314.747473235027;537.91842953623
314.769099954679;536.858877183722
314.790726674332;535.72419047468
314.812353393984;534.535917133145
314.833980113636;533.385298484117
314.855606833289;532.270265726409
314.877233552941;531.174513434391
314.898860272593;530.105033435384
314.920486992246;529.045054914916
314.942113711898;527.990595194436
314.96374043155;526.97665665981
314.985367151203;526.013024128872
315.006993870855;525.084130188558
315.028620590507;524.155335693974
315.05024731016;523.216017598286
315.071874029812;522.292676772586
315.093500749464;521.412445297688
315.115127469116;520.576173940993
315.136754188769;519.782507429848
315.158380908421;519.0230383698
315.180007628073;518.288826098972
315.201634347726;517.580375983612
315.223261067378;516.919172909263
315.24488778703;516.33137418108
315.266514506683;515.825299324454
315.288141226335;515.396408296552
315.309767945987;515.015570216169
315.33139466564;514.664578267709
315.353021385292;514.336101078878
315.374648104944;514.01887887618
315.396274824597;513.699149011338
315.417901544249;513.37178904364
315.439528263901;513.034179895346
315.461154983554;512.665290294306
315.482781703206;512.24211209779
315.504408422858;511.776766816146
315.52603514251;511.289914576555
315.547661862163;510.77135444785
315.569288581815;510.200055445888
315.590915301467;509.561595003011
315.61254202112;508.876934430647
315.634168740772;508.160970426124
315.655795460424;507.417439604487
315.677422180077;506.647489463525
315.699048899729;505.853961553731
315.720675619381;505.097349001284
315.742302339034;504.40331676235
315.763929058686;503.758404485878
315.785555778338;503.145475461151
315.807182497991;502.535198497314
315.828809217643;501.917240115651
315.850435937295;501.316033125804
315.872062656948;500.757887401373
315.8936893766;500.238997177038
315.915316096252;499.726860262698
315.936942815905;499.183072912126
315.958569535557;498.589371536308
315.980196255209;497.94714001311
316.001822974861;497.256383860305
316.023449694514;496.534026079956
316.045076414166;495.783265049511
316.066703133818;495.004265771688
316.088329853471;494.205376553371
316.109956573123;493.398675178948
316.131583292775;492.594217771483
316.153210012428;491.805353255161
316.17483673208;491.038605085493
316.196463451732;490.288243666698
316.218090171385;489.549468479074
316.239716891037;488.837464348728
316.261343610689;488.163313587858
316.282970330342;487.501490570564
316.304597049994;486.858954147708
316.326223769646;486.260906593492
316.347850489298;485.699401379406
316.369477208951;485.153376362531
316.391103928603;484.618283475442
316.412730648255;484.103245753509
316.434357367908;483.621728663329
316.45598408756;483.169222874635
316.477610807212;482.724166999426
316.499237526865;482.272616848733
316.520864246517;481.82758427632
316.542490966169;481.38445956354
316.564117685822;480.930349320613
316.585744405474;480.443692822711
316.607371125126;479.906286720901
316.628997844779;479.322706207747
316.650624564431;478.698024796953
316.672251284083;478.022757685033
316.693878003736;477.311377220909
316.715504723388;476.57099852979
316.73713144304;475.822046207648
316.758758162693;475.085100085023
316.780384882345;474.327129858862
316.802011601997;473.561752797178
316.823638321649;472.816160439042
316.845265041302;472.096245141618
316.866891760954;471.386334492536
316.888518480606;470.697166592818
316.910145200259;470.051765194481
316.931771919911;469.443404685123
316.953398639563;468.867509224153
316.975025359216;468.324968977844
316.996652078868;467.805175877943
317.01827879852;467.290633821668
317.039905518173;466.783031223608
317.061532237825;466.314346375759
317.083158957477;465.900257969215
317.10478567713;465.534862180311
317.126412396782;465.214359865181
317.148039116434;464.935096667603
317.169665836086;464.679534620524
317.191292555739;464.444857066364
317.212919275391;464.232187540374
317.234545995043;464.050948900887
317.256172714696;463.888501899407
317.277799434348;463.72254845082
317.299426154;463.539307673523
317.321052873653;463.348044173006
317.342679593305;463.15871605377
317.364306312957;462.959719434324
317.38593303261;462.751203281653
317.407559752262;462.52277553654
317.429186471914;462.261027428589
317.450813191567;461.970122853576
317.472439911219;461.64878097559
317.494066630871;461.292108400888
317.515693350524;460.883902907702
317.537320070176;460.399421683998
317.558946789828;459.822287126308
317.580573509481;459.17176982078
317.602200229133;458.469497466004
317.623826948785;457.693742921398
317.645453668437;456.809623459797
317.66708038809;455.819344198953
317.688707107742;454.741515592304
317.710333827394;453.552607996969
317.731960547047;452.279036486354
317.753587266699;450.948599557034
317.775213986351;449.532623070554
317.796840706004;448.024248320006
317.818467425656;446.469043999287
317.840094145308;444.915556580617
317.861720864961;443.393470737496
317.883347584613;441.912806515731
317.904974304265;440.496487864447
317.926601023918;439.186275984631
317.94822774357;437.982165530841
317.969854463222;436.870682640183
317.991481182875;435.853566063744
318.013107902527;434.922360367003
318.034734622179;434.064884453728
318.056361341831;433.273479962055
318.077988061484;432.541528817254
318.099614781136;431.869146470749
318.121241500788;431.247722891903
318.142868220441;430.665432702766
318.164494940093;430.111514482226
318.186121659745;429.588280780933
318.207748379398;429.086862031814
318.22937509905;428.601144773155
318.251001818702;428.130687630246
318.272628538355;427.675567446715
318.294255258007;427.232738716123
318.315881977659;426.794474203964
318.337508697312;426.352323164484
318.359135416964;425.902707289303
318.380762136616;425.454325901331
318.402388856269;425.01426661683
318.424015575921;424.574648308717
318.445642295573;424.13351761275
318.467269015226;423.690112278176
318.488895734878;423.228334657179
318.51052245453;422.74688419813
318.532149174182;422.273872236858
318.553775893835;421.812287254068
318.575402613487;421.337999948977
318.597029333139;420.848270404044
318.618656052792;420.365678584643
318.640282772444;419.90837407933
318.661909492096;419.463600436361
318.683536211749;419.011229054266
318.705162931401;418.5364198351
318.726789651053;418.040160508261
318.748416370706;417.527961080133
318.770043090358;416.988727006229
318.79166981001;416.40128717904
318.813296529663;415.753490040318
318.834923249315;415.039873607269
318.856549968967;414.272548359175
318.878176688619;413.459712601723
318.899803408272;412.606285853382
318.921430127924;411.718798854484
318.943056847576;410.795075287998
318.964683567229;409.847769462544
318.986310286881;408.891844191234
319.007937006533;407.92331956242
319.029563726186;406.931332288707
319.051190445838;405.933849760926
319.07281716549;404.939280843371
319.094443885143;403.977960483598
319.116070604795;403.105647663683
319.137697324447;402.330020898787
319.1593240441;401.625810161858
319.180950763752;400.99992258949
319.202577483404;400.471082075022
319.224204203057;400.05219519169
319.245830922709;399.720869014135
319.267457642361;399.455213582765
319.289084362014;399.239549251327
319.310711081666;399.070840660967
319.332337801318;398.94747454573
319.35396452097;398.862201884921
319.375591240623;398.804959089919
319.397217960275;398.766726148574
319.418844679927;398.735447903722
319.44047139958;398.703700220641
319.462098119232;398.663120264649
319.483724838884;398.606635616696
319.505351558537;398.537998272336
319.526978278189;398.46037737007
319.548604997841;398.367134844131
319.570231717494;398.25236066191
319.591858437146;398.116159438467
319.613485156798;397.957515577334
319.635111876451;397.765557782574
319.656738596103;397.517336270235
319.678365315755;397.197577263478
319.699992035408;396.819129628622
319.72161875506;396.41008437488
319.743245474712;395.986128425123
319.764872194364;395.544890366407
319.786498914017;395.074293619373
319.808125633669;394.561879669571
319.829752353321;394.02216610958
319.851379072974;393.473064500507
319.873005792626;392.910880128707
319.894632512278;392.343524307566
319.916259231931;391.777993897835
319.937885951583;391.188842290254
319.959512671235;390.589334235906
319.981139390888;390.018636581915
320.00276611054;389.487722437378
320.024392830192;388.990785508194
320.046019549845;388.533756664143
320.067646269497;388.129511358113
320.089272989149;387.781217441819
320.110899708802;387.482544106562
320.132526428454;387.225440164007
320.154153148106;387.013723304384
320.175779867758;386.843860640321
320.197406587411;386.696882656608
320.219033307063;386.557169702396
320.240660026715;386.412691296097
320.262286746368;386.247457913496
320.28391346602;386.041600407042
320.305540185672;385.773866288619
320.327166905325;385.417668697087
320.348793624977;384.963416159724
320.370420344629;384.416594286162
320.392047064282;383.770464798441
320.413673783934;383.018587779815
320.435300503586;382.151845466368
320.456927223239;381.153826407239
320.478553942891;380.026328136993
320.500180662543;378.805605251544
320.521807382196;377.49727216459
320.543434101848;376.108513452013
320.5650608215;374.654673836309
320.586687541153;373.150150886571
320.608314260805;371.616470049114
320.629940980457;370.111171034486
320.651567700109;368.693351732679
320.673194419762;367.363776989926
320.694821139414;366.097433946559
320.716447859066;364.8935463085
320.738074578719;363.747004653142
320.759701298371;362.665969079085
320.781328018023;361.666004551725
320.802954737676;360.748292141899
320.824581457328;359.925985845079
320.84620817698;359.196139477345
320.867834896633;358.525029069172
320.889461616285;357.868011191127
320.911088335937;357.188018064252
320.93271505559;356.454923138585
320.954341775242;355.665412370312
320.975968494894;354.828437694525
320.997595214546;353.937980860516
321.019221934199;352.986850693445
321.040848653851;351.966672672402
321.062475373503;350.862241461319
321.084102093156;349.672480795153
321.105728812808;348.415865839946
321.12735553246;347.105362519692
321.148982252113;345.750845263884
321.170608971765;344.366781334757
321.192235691417;342.971738985995
321.21386241107;341.594547093371
321.235489130722;340.256914333101
321.257115850374;338.981741300614
321.278742570027;337.802099578245
321.300369289679;336.743645009083
321.321996009331;335.8047035089
321.343622728984;334.946532131805
321.365249448636;334.149607223349
321.386876168288;333.476281816399
321.408502887941;332.962269990439
321.430129607593;332.582993055356
321.451756327245;332.314766968984
321.473383046897;332.136734962645
321.49500976655;332.024403961522
321.516636486202;331.965277975155
321.538263205854;331.949167620434
321.559889925507;331.963481457366
321.581516645159;331.990700622433
321.603143364811;332.008463931205
321.624770084464;332.011479967609
321.646396804116;332.008021413112
321.668023523768;332.000097516089
321.689650243421;331.987863780193
321.711276963073;331.975692821073
321.732903682725;331.97266795746
321.754530402378;331.985012468775
321.77615712203;332.009680385668
321.797783841682;332.043418256519
321.819410561335;332.075140298236
321.841037280987;332.091777696086
321.862664000639;332.080541300636
321.884290720291;332.032908505953
321.905917439944;331.936911449259
321.927544159596;331.772486947424
321.949170879248;331.524970590285
321.970797598901;331.179208414451
321.992424318553;330.74262125834
322.014051038205;330.251514596145
322.035677757858;329.743167336281
322.05730447751;329.226965294474
322.078931197162;328.696522869953
322.100557916815;328.154250352034
322.122184636467;327.619466085482
322.143811356119;327.119903847232
322.165438075772;326.674471952443
322.187064795424;326.292818866665
322.208691515076;325.974577295595
322.230318234729;325.711305548387
322.251944954381;325.482991469579
322.273571674033;325.271068060682
322.295198393686;325.063619832671
322.316825113338;324.845517013817
322.33845183299;324.598790380498
322.360078552642;324.310164409201
322.381705272295;323.971164978776
322.403331991947;323.58174201021
322.424958711599;323.138142741433
322.446585431252;322.647227880202
322.468212150904;322.112987301989
322.489838870556;321.545589854153
322.511465590209;320.977606315306
322.533092309861;320.426210511831
322.554719029513;319.894607988335
322.576345749166;319.382557056505
322.597972468818;318.90397991014
322.61959918847;318.486359191875
322.641225908123;318.124808993807
322.662852627775;317.789451408589
322.684479347427;317.486818313509
322.706106067079;317.245714688798
322.727732786732;317.068869248595
322.749359506384;316.949823044749
322.770986226036;316.873031499924
322.792612945689;316.825042367896
322.814239665341;316.801531308112
322.835866384993;316.800584053942
322.857493104646;316.808041015976
322.879119824298;316.797233213558
322.90074654395;316.750841059573
322.922373263603;316.663988493924
322.943999983255;316.530099790752
322.965626702907;316.320210551744
322.98725342256;315.991777477588
323.008880142212;315.529056815232
323.030506861864;314.966511321703
323.052133581517;314.305073546229
323.073760301169;313.537899890205
323.095387020821;312.679851753354
323.117013740474;311.778309089298
323.138640460126;310.853302075658
323.160267179778;309.864602976977
323.18189389943;308.769394094879
323.203520619083;307.561362910183
323.225147338735;306.31901240621
323.246774058387;305.101914361299
323.26840077804;303.909498598024
323.290027497692;302.734765333515
323.311654217344;301.589176816729
323.333280936997;300.481321419316
323.354907656649;299.436550686175
323.376534376301;298.472701380562
323.398161095954;297.574389938772
323.419787815606;296.734671061732
323.441414535258;295.969588582383
323.463041254911;295.306526519257
323.484667974563;294.746260861849
323.506294694215;294.270494429972
323.527921413867;293.859014922342
323.54954813352;293.503983041047
323.571174853172;293.221941387459
323.592801572824;293.008219177207
323.614428292477;292.826914642079
323.636055012129;292.668335461882
323.657681731781;292.532984651769
323.679308451434;292.409185504604
323.700935171086;292.274322249304
323.722561890738;292.117032257889
323.744188610391;291.930217560546
323.765815330043;291.692851116204
323.787442049695;291.400972223567
323.809068769348;291.071808371281
323.830695489;290.713712340512
323.852322208652;290.325507139187
323.873948928305;289.906100459824
323.895575647957;289.436503084954
323.917202367609;288.929995515192
323.938829087262;288.414408214079
323.960455806914;287.88994732943
323.982082526566;287.356441144378
324.003709246218;286.813021404328
324.025335965871;286.240795824372
324.046962685523;285.649403589298
324.068589405175;285.038252694263
324.090216124828;284.388177852036
324.11184284448;283.690091461121
324.133469564132;282.953656651918
324.155096283785;282.19526021342
324.176723003437;281.425032922347
324.198349723089;280.645832776418
324.219976442742;279.851372362474
324.241603162394;279.021790496078
324.263229882046;278.173589011892
324.284856601699;277.338211258367
324.306483321351;276.527309102648
324.328110041003;275.739082530281
324.349736760656;274.976863404897
324.371363480308;274.237446005526
324.39299019996;273.49740402049
324.414616919612;272.718300761551
324.436243639265;271.88516975875
324.457870358917;270.998791087764
324.479497078569;270.062000369602
324.501123798222;269.061018667116
324.522750517874;267.999719874918
324.544377237526;266.906148345239
324.566003957179;265.813990476511
324.587630676831;264.708565552868
324.609257396483;263.548956049435
324.630884116136;262.359341732449
324.652510835788;261.187040563258
324.67413755544;260.051973543192
324.695764275093;258.955370503116
324.717390994745;257.908462836411
324.739017714397;256.919762305997
324.76064443405;255.967346426376
324.782271153702;255.031073818267
