Name;ESR_BC_1_3600s_Y_gon_60dg_result

Recipe
Accumulations;5;Number of accumulations
RetryCount;0;Number of retries on error
AbortOnError;True;Abort on error
EnableQFactorMeasurement;False;Enable/Disable q-Factor measurement
Bfrom;313;B from
Bto;363;B to
SweepTime;60;Sweep time
Modulation;0.2;Modulation
ModulationFreq;100;Modulation
BHoldEnabled;False;B hold enabled
BHold;0;B hold
MicrowavePower;2;Microwave power
MarkerEnabled;False;
MarkerStartField;0;
MarkerEndField;0;
Mode;;
KineticGFact;0;
KineticTotalTransientTime;0;
KineticTimeResolution;0;
TempFrom;5;
TempUseSlope;False;
TempTo;5;
TempdT;1;
TempSetupTime;0;
GonFrom;0;
GonTo;180;
GonSteps;20;
XRayEnabled;False;
XRayTime;3;
XRayVoltage;40;
XRayCurrent;0.5;
UVEnabled;False;
UVIntensity;0;
UVTime;0;
UVLeadTime;0;
UVWavelength;0;
PowSweepFrom;1;
PowSweepTo;5;
PowSweepSteps;5;
AmpModSweepFrom;0;
AmpModSweepTo;1;
AmpModSweepSteps;10;
ExtTriggerEnabled;False;
ExtTrigLeadTime;0;
ExtTrigOnTime;5;

Meas
BField [mT];MW_Absorption []
313.020751953125;187.526845083569
313.042373733686;187.244083988219
313.063995514246;186.886665492129
313.085617294807;186.45465553629
313.107239075368;185.952572374719
313.128860855928;185.369471022355
313.150482636489;184.718711997476
313.17210441705;184.05560182195
313.19372619761;183.397023629093
313.215347978171;182.752306159991
313.236969758731;182.134849915644
313.258591539292;181.550707538613
313.280213319853;181.013101385067
313.301835100413;180.541349490114
313.323456880974;180.144859567649
313.345078661535;179.831499976981
313.366700442095;179.614528371077
313.388322222656;179.48415887329
313.409944003217;179.420984918188
313.431565783777;179.409604824598
313.453187564338;179.43999129504
313.474809344899;179.498969616402
313.496431125459;179.577707311883
313.51805290602;179.672673288951
313.539674686581;179.780220097027
313.561296467141;179.888444192762
313.582918247702;179.991636524989
313.604540028262;180.089113740341
313.626161808823;180.178267567855
313.647783589384;180.241121988807
313.669405369944;180.273560638709
313.691027150505;180.278116966003
313.712648931066;180.255110060844
313.734270711626;180.200969334594
313.755892492187;180.112533141561
313.777514272748;179.999158371054
313.799136053308;179.872388997874
313.820757833869;179.730776364416
313.84237961443;179.56231150514
313.86400139499;179.367527039221
313.885623175551;179.160345787157
313.907244956111;178.952274690783
313.928866736672;178.74596272467
313.950488517233;178.54099258584
313.972110297793;178.342210038658
313.993732078354;178.157496062268
314.015353858915;177.993393726704
314.036975639475;177.862765299772
314.058597420036;177.780566064242
314.080219200597;177.751856243714
314.101840981157;177.768608308628
314.123462761718;177.815201276887
314.145084542279;177.880547811076
314.166706322839;177.961064139032
314.1883281034;178.045825126644
314.209949883961;178.116419818069
314.231571664521;178.162236708591
314.253193445082;178.181840590446
314.274815225643;178.18003794261
314.296437006203;178.154136209925
314.318058786764;178.089815250512
314.339680567324;177.991997183772
314.361302347885;177.876589900116
314.382924128446;177.741192246521
314.404545909006;177.585609767159
314.426167689567;177.419596093622
314.447789470128;177.245229881478
314.469411250688;177.058088994795
314.491033031249;176.851152819335
314.51265481181;176.623725387914
314.53427659237;176.377025236946
314.555898372931;176.106525013337
314.577520153492;175.803965005447
314.599141934052;175.467585293311
314.620763714613;175.099276429068
314.642385495173;174.704465110047
314.664007275734;174.296885881159
314.685629056295;173.889450898424
314.707250836855;173.481875235611
314.728872617416;173.07572981901
314.750494397977;172.718135517513
314.772116178537;172.436143471505
314.793737959098;172.225287025645
314.815359739659;172.071115332196
314.836981520219;171.971906906002
314.85860330078;171.92178505771
314.880225081341;171.895992993681
314.901846861901;171.871521557541
314.923468642462;171.836215163825
314.945090423023;171.776489885665
314.966712203583;171.67527649174
314.988333984144;171.529304850086
315.009955764704;171.338871161397
315.031577545265;171.091884195608
315.053199325826;170.770364877952
315.074821106386;170.383489879296
315.096442886947;169.952106907955
315.118064667508;169.495337582288
315.139686448068;169.043195875796
315.161308228629;168.591017850356
315.18293000919;168.116178458602
315.20455178975;167.616115064402
315.226173570311;167.119900046603
315.247795350872;166.640951602567
315.269417131432;166.16989198749
315.291038911993;165.686789300135
315.312660692553;165.177560718196
315.334282473114;164.653885339319
315.355904253675;164.135684419835
315.377526034235;163.617394758982
315.399147814796;163.077559065067
315.420769595357;162.5053902727
315.442391375917;161.907164102419
315.464013156478;161.296919889284
315.485634937039;160.675146308947
315.507256717599;160.045529452079
315.52887849816;159.419583589915
315.550500278721;158.7972872415
315.572122059281;158.170234109693
315.593743839842;157.559304760701
315.615365620403;156.969306089166
315.636987400963;156.4001540245
315.658609181524;155.839515995498
315.680230962084;155.281160969768
315.701852742645;154.73528872487
315.723474523206;154.211049118231
315.745096303766;153.696459149714
315.766718084327;153.170775388294
315.788339864888;152.631802699497
315.809961645448;152.080773542064
315.831583426009;151.506376014954
315.85320520657;150.904680937152
315.87482698713;150.286026622845
315.896448767691;149.643888920415
315.918070548252;148.952680978732
315.939692328812;148.208750132825
315.961314109373;147.450002937572
315.982935889934;146.692534226606
316.004557670494;145.924473411398
316.026179451055;145.14115809541
316.047801231615;144.359507523201
316.069423012176;143.60864741906
316.091044792737;142.915699982701
316.112666573297;142.27440114513
316.134288353858;141.669402747688
316.155910134419;141.085846906272
316.177531914979;140.518510123042
316.19915369554;139.962863508305
316.220775476101;139.40382064883
316.242397256661;138.861622663331
316.264019037222;138.344607447881
316.285640817783;137.826499135465
316.307262598343;137.296852882565
316.328884378904;136.767397275523
316.350506159465;136.231948468849
316.372127940025;135.683876381834
316.393749720586;135.134884138075
316.415371501146;134.599387816291
316.436993281707;134.081164472882
316.458615062268;133.564901479936
316.480236842828;133.025917768995
316.501858623389;132.457682662526
316.52348040395;131.879378650513
316.54510218451;131.306769346676
316.566723965071;130.736766443379
316.588345745632;130.160996103607
316.609967526192;129.579025980751
316.631589306753;128.999023197392
316.653211087314;128.435265841276
316.674832867874;127.899422325396
316.696454648435;127.394296603372
316.718076428996;126.904774639154
316.739698209556;126.41406713243
316.761319990117;125.919315230292
316.782941770677;125.433318889012
316.804563551238;124.973142242785
316.826185331799;124.549156103712
316.847807112359;124.160008263975
316.86942889292;123.80860992226
316.891050673481;123.493659155042
316.912672454041;123.200953549738
316.934294234602;122.909715879984
316.955916015163;122.612260155405
316.977537795723;122.324229150008
316.999159576284;122.057201930663
317.020781356845;121.802027468587
317.042403137405;121.540140277189
317.064024917966;121.254566489029
317.085646698526;120.928245259196
317.107268479087;120.546864587992
317.128890259648;120.124092866868
317.150512040208;119.696618098883
317.172133820769;119.278569089349
317.19375560133;118.865418610433
317.21537738189;118.443498739779
317.236999162451;117.997292557635
317.258620943012;117.552480355375
317.280242723572;117.151797347235
317.301864504133;116.802899259946
317.323486284694;116.500417018304
317.345108065254;116.233433973928
317.366729845815;116.000209156843
317.388351626376;115.79974965555
317.409973406936;115.618148448788
317.431595187497;115.448902413118
317.453216968057;115.298994741453
317.474838748618;115.171093087329
317.496460529179;115.05156193824
317.518082309739;114.929700380473
317.5397040903;114.802066722418
317.561325870861;114.659581565021
317.582947651421;114.503621099898
317.604569431982;114.333849111314
317.626191212543;114.145057769543
317.647812993103;113.930908083975
317.669434773664;113.67861187264
317.691056554225;113.375581748491
317.712678334785;113.029137221663
317.734300115346;112.648048552573
317.755921895907;112.241904871489
317.777543676467;111.827675353331
317.799165457028;111.412173181056
317.820787237588;110.995009968061
317.842409018149;110.586893219824
317.86403079871;110.198493914753
317.88565257927;109.837623601895
317.907274359831;109.495514378794
317.928896140392;109.161268305922
317.950517920952;108.851315002411
317.972139701513;108.583824536382
317.993761482074;108.346486013894
318.015383262634;108.136318706903
318.037005043195;107.948894814634
318.058626823756;107.775307903596
318.080248604316;107.60762853056
318.101870384877;107.447509464012
318.123492165437;107.295688609775
318.145113945998;107.146224942197
318.166735726559;106.991913313791
318.188357507119;106.822295351144
318.20997928768;106.632271661894
318.231601068241;106.431149553587
318.253222848801;106.234545850413
318.274844629362;106.035268088089
318.296466409923;105.819645795807
318.318088190483;105.586650655618
318.339709971044;105.344060684192
318.361331751605;105.090382970379
318.382953532165;104.809376988583
318.404575312726;104.521219847467
318.426197093287;104.237072836672
318.447818873847;103.96430204929
318.469440654408;103.714652169781
318.491062434969;103.504694370992
318.512684215529;103.327836484646
318.53430599609;103.180590310907
318.55592777665;103.064023070336
318.577549557211;102.973076395704
318.599171337772;102.898691881165
318.620793118332;102.829833002071
318.642414898893;102.750803646817
318.664036679454;102.642949195457
318.685658460014;102.510438473777
318.707280240575;102.364552484206
318.728902021136;102.194667986262
318.750523801696;101.993749405298
318.772145582257;101.757104267212
318.793767362818;101.473977950849
318.815389143378;101.149763946733
318.837010923939;100.80811201751
318.858632704499;100.467124843674
318.88025448506;100.131819259501
318.901876265621;99.8084893187092
318.923498046181;99.4973407754257
318.945119826742;99.1947069250991
318.966741607303;98.9066109177292
318.988363387863;98.6493057344632
319.009985168424;98.4309719309925
319.031606948985;98.2515544051139
319.053228729545;98.1075923686588
319.074850510106;98.0012963176259
319.096472290667;97.9475023124981
319.118094071227;97.9475365428281
319.139715851788;98.0027134754784
319.161337632349;98.1038605646963
319.182959412909;98.234516260911
319.20458119347;98.3920328911947
319.22620297403;98.5809222914683
319.247824754591;98.803959851057
319.269446535152;99.0313323032753
319.291068315712;99.2366067950389
319.312690096273;99.4251556374929
319.334311876834;99.6140984241202
319.355933657394;99.7994833924623
319.377555437955;99.9666507538842
319.399177218516;100.104071648158
319.420798999076;100.204937974054
319.442420779637;100.273377123838
319.464042560198;100.303770275517
319.485664340758;100.27581002155
319.507286121319;100.177856696417
319.52890790188;100.02939085373
319.55052968244;99.8537235935688
319.572151463001;99.6601145352627
319.593773243561;99.4478150012343
319.615395024122;99.226524853521
319.637016804683;98.9953865186249
319.658638585243;98.7447564624862
319.680260365804;98.4790529638366
319.701882146365;98.2354398527118
319.723503926925;98.0324483206134
319.745125707486;97.8670229477784
319.766747488047;97.7258229084511
319.788369268607;97.5978629515361
319.809991049168;97.4928315311802
319.831612829729;97.4143531587115
319.853234610289;97.3656692776912
319.87485639085;97.3559758836013
319.89647817141;97.3848243169842
319.918099951971;97.4438674588727
319.939721732532;97.5317987627731
319.961343513092;97.6469082308724
319.982965293653;97.7796488984338
320.004587074214;97.9231024753934
320.026208854774;98.0722588162607
320.047830635335;98.2167000337774
320.069452415896;98.3381691464579
320.091074196456;98.4292728923576
320.112695977017;98.4891731349708
320.134317757578;98.5168895527608
320.155939538138;98.5110006243437
320.177561318699;98.4712621443472
320.19918309926;98.3994549536859
320.22080487982;98.3072912394089
320.242426660381;98.2086722086945
320.264048440942;98.1128816330559
320.285670221502;98.0278631894916
320.307292002063;97.9639232192699
320.328913782623;97.9225602677525
320.350535563184;97.9053621900736
320.372157343745;97.9003318681246
320.393779124305;97.9043949511872
320.415400904866;97.9190420796595
320.437022685427;97.9486771135554
320.458644465987;97.9842148274598
320.480266246548;98.0205702837375
320.501888027109;98.0529653243021
320.523509807669;98.0726633724767
320.54513158823;98.0768450441028
320.566753368791;98.0696573523932
320.588375149351;98.0518755318197
320.609996929912;98.0235298420454
320.631618710472;97.9894254035151
320.653240491033;97.9619180955535
320.674862271594;97.9550795472783
320.696484052154;97.9746536451746
320.718105832715;98.0200167649048
320.739727613276;98.0900200875247
320.761349393836;98.1905533684796
320.782971174397;98.3196119496167
320.804592954958;98.4695519346216
320.826214735518;98.6410963371761
320.847836516079;98.8342074635315
320.86945829664;99.041951441892
320.8910800772;99.2615971457857
320.912701857761;99.493536476919
320.934323638322;99.7321547571357
320.955945418882;99.9706713138118
320.977567199443;100.199192814836
320.999188980003;100.414763597245
321.020810760564;100.624417823341
321.042432541125;100.844939226732
321.064054321685;101.075962328195
321.085676102246;101.306211795646
321.107297882807;101.525836854672
321.128919663367;101.731271865515
321.150541443928;101.928521952612
321.172163224489;102.128023515587
321.193785005049;102.338496450715
321.21540678561;102.558650664534
321.237028566171;102.781205736472
321.258650346731;103.002227361909
321.280272127292;103.222060943369
321.301893907853;103.441297522664
321.323515688413;103.658058293812
321.345137468974;103.867893350967
321.366759249534;104.066133308787
321.388381030095;104.243377564302
321.410002810656;104.390246943687
321.431624591216;104.503281000317
321.453246371777;104.580858720387
321.474868152338;104.617591600625
321.496489932898;104.608740704143
321.518111713459;104.557190429456
321.53973349402;104.464268069498
321.56135527458;104.335630213555
321.582977055141;104.185349055073
321.604598835702;104.027386711483
321.626220616262;103.863664121881
321.647842396823;103.691238280389
321.669464177383;103.512517673957
321.691085957944;103.331246197462
321.712707738505;103.144088840159
321.734329519065;102.947599943459
321.755951299626;102.737163007374
321.777573080187;102.5044461271
321.799194860747;102.23882462842
321.820816641308;101.935004960129
321.842438421869;101.598087594323
321.864060202429;101.242217663141
321.88568198299;100.883750151208
321.907303763551;100.517466880033
321.928925544111;100.138150617015
321.950547324672;99.7487149049641
321.972169105233;99.3609357052579
321.993790885793;98.9766842732248
322.015412666354;98.5837973853404
322.037034446914;98.1736309627233
322.058656227475;97.757356903653
322.080278008036;97.3414661695339
322.101899788596;96.9202943172407
322.123521569157;96.4818180828917
322.145143349718;96.0139970782886
322.166765130278;95.5162630016273
322.188386910839;95.0126501901031
322.2100086914;94.5551608109809
322.23163047196;94.148076543873
322.253252252521;93.7661269548715
322.274874033082;93.4012319107134
322.296495813642;93.0540447323488
322.318117594203;92.7258878799501
322.339739374764;92.432708250626
322.361361155324;92.1836926887405
322.382982935885;91.968666778611
322.404604716445;91.776163570658
322.426226497006;91.6084754077542
322.447848277567;91.4657513654628
322.469470058127;91.3418683007245
322.491091838688;91.2370715433536
322.512713619249;91.1620697431726
322.534335399809;91.1107487163918
322.55595718037;91.0764381507473
322.577578960931;91.0720856807192
322.599200741491;91.1044924665831
322.620822522052;91.1803517915221
322.642444302613;91.2953061154331
322.664066083173;91.4378642504603
322.685687863734;91.600340886846
322.707309644295;91.7732837910806
322.728931424855;91.9386217148718
322.750553205416;92.0959100179339
322.772174985976;92.2350054734729
322.793796766537;92.3447076584878
322.815418547098;92.4208001961875
322.837040327658;92.4574320870932
322.858662108219;92.4572449231812
322.88028388878;92.4224345611025
322.90190566934;92.3514643314964
322.923527449901;92.2400321459676
322.945149230462;92.0791849986506
322.966771011022;91.8717022861638
322.988392791583;91.6353140513649
323.010014572144;91.3820192747953
323.031636352704;91.1154938776583
323.053258133265;90.8370821754701
323.074879913826;90.5486000174587
323.096501694386;90.2515310834622
323.118123474947;89.9530603061477
323.139745255507;89.6740331829357
323.161367036068;89.4327100817009
323.182988816629;89.2143167072301
323.204610597189;89.001974286886
323.22623237775;88.7956772833009
323.247854158311;88.6053467097153
323.269475938871;88.4412810440509
323.291097719432;88.2974838982103
323.312719499993;88.1621677805609
323.334341280553;88.0295419007632
323.355963061114;87.892962419779
323.377584841675;87.7494061845198
323.399206622235;87.5971769072982
323.420828402796;87.4411179084959
323.442450183356;87.2846847569309
323.464071963917;87.1289416761869
323.485693744478;86.9754524288388
323.507315525038;86.826546336549
323.528937305599;86.6929692246579
323.55055908616;86.5843545751654
323.57218086672;86.4905707965385
323.593802647281;86.4025670449025
323.615424427842;86.3235788574045
323.637046208402;86.2535494443422
323.658667988963;86.1871205270439
323.680289769524;86.1108301286419
323.701911550084;86.017685785058
323.723533330645;85.9027447965035
323.745155111206;85.766089354984
323.766776891766;85.6117696270953
323.788398672327;85.4388921350736
323.810020452887;85.2456502029964
323.831642233448;85.0355110772139
323.853264014009;84.8250420891897
323.874885794569;84.6323942976007
323.89650757513;84.4617004624591
323.918129355691;84.3149222327062
323.939751136251;84.2014324751897
323.961372916812;84.1275671599909
323.982994697373;84.0900166066223
324.004616477933;84.085330027718
324.026238258494;84.111412624587
324.047860039055;84.1606539678279
324.069481819615;84.2265757198335
324.091103600176;84.3057690298571
324.112725380736;84.3915101467778
324.134347161297;84.4795635806178
324.155968941858;84.5663594435813
324.177590722418;84.6491151079625
324.199212502979;84.7148617007479
324.22083428354;84.7631108768648
324.2424560641;84.8036288740029
324.264077844661;84.8114574941755
324.285699625222;84.7672685476448
324.307321405782;84.6810299699507
324.328943186343;84.5598619533878
324.350564966904;84.3941768489522
324.372186747464;84.1858177407951
324.393808528025;83.9547423618463
324.415430308586;83.7066414334695
324.437052089146;83.4391126271187
324.458673869707;83.1557910996314
324.480295650268;82.8812677195041
324.501917430828;82.6382891283826
324.523539211389;82.4176718050821
324.545160991949;82.2099397310414
324.56678277251;82.0236816319491
324.588404553071;81.8820452436672
324.610026333631;81.7825478384699
324.631648114192;81.7100717552557
324.653269894753;81.6580082610761
324.674891675313;81.6204593900937
324.696513455874;81.592132272612
324.718135236435;81.5671996617702
324.739757016995;81.5377828417295
324.761378797556;81.4875547056144
