Name;ESR_BC_1_3600s_Z_gon_80dg_result

Recipe
Accumulations;5;Number of accumulations
RetryCount;0;Number of retries on error
AbortOnError;True;Abort on error
EnableQFactorMeasurement;False;Enable/Disable q-Factor measurement
Bfrom;313;B from
Bto;363;B to
SweepTime;60;Sweep time
Modulation;0.2;Modulation
ModulationFreq;100;Modulation
BHoldEnabled;False;B hold enabled
BHold;0;B hold
MicrowavePower;2;Microwave power
MarkerEnabled;False;
MarkerStartField;0;
MarkerEndField;0;
Mode;;
KineticGFact;0;
KineticTotalTransientTime;0;
KineticTimeResolution;0;
TempFrom;5;
TempUseSlope;False;
TempTo;5;
TempdT;1;
TempSetupTime;0;
GonFrom;0;
GonTo;180;
GonSteps;20;
XRayEnabled;False;
XRayTime;3;
XRayVoltage;40;
XRayCurrent;0.5;
UVEnabled;False;
UVIntensity;0;
UVTime;0;
UVLeadTime;0;
UVWavelength;0;
PowSweepFrom;1;
PowSweepTo;5;
PowSweepSteps;5;
AmpModSweepFrom;0;
AmpModSweepTo;1;
AmpModSweepSteps;10;
ExtTriggerEnabled;False;
ExtTrigLeadTime;0;
ExtTrigOnTime;5;

Meas
BField [mT];MW_Absorption []
313.018023223877;72.4942791545137
313.039651998545;71.9877013692721
313.061280773212;71.5007796820347
313.08290954788;71.1037366018562
313.104538322548;70.8028623028687
313.126167097216;70.6070672800707
313.147795871883;70.5294065981829
313.169424646551;70.5771659157423
313.191053421219;70.7109031544736
313.212682195886;70.906501734163
313.234310970554;71.1586100460561
313.255939745222;71.4725101084481
313.27756851989;71.8261422201101
313.299197294557;72.1699948110014
313.320826069225;72.4882317602442
313.342454843893;72.7801809617966
313.36408361856;73.046986719867
313.385712393228;73.284608798987
313.407341167896;73.4837859971175
313.428969942564;73.6386046062991
313.450598717231;73.7443514170038
313.472227491899;73.8060603662971
313.493856266567;73.8384581182959
313.515485041234;73.8458579128894
313.537113815902;73.8231187270623
313.55874259057;73.7644689227488
313.580371365238;73.6733596611749
313.602000139905;73.5628300677159
313.623628914573;73.4318334042405
313.645257689241;73.2848358181143
313.666886463908;73.127245812925
313.688515238576;72.9447697572247
313.710144013244;72.7338358696567
313.731772787912;72.5090630885053
313.753401562579;72.2901219009341
313.775030337247;72.0758946792791
313.796659111915;71.8514396378672
313.818287886582;71.611342591858
313.83991666125;71.3634825060926
313.861545435918;71.112417774241
313.883174210586;70.8576345249902
313.904802985253;70.607877895995
313.926431759921;70.3886450920902
313.948060534589;70.2140404557408
313.969689309256;70.0788844606282
313.991318083924;69.9817721759346
314.012946858592;69.9217084152934
314.03457563326;69.8764599047027
314.056204407927;69.8409034144416
314.077833182595;69.8407119749011
314.099461957263;69.8652186537248
314.12109073193;69.8726235724489
314.142719506598;69.8610301877713
314.164348281266;69.8340347616798
314.185977055934;69.7843571499185
314.207605830601;69.7129368928921
314.229234605269;69.6355982869373
314.250863379937;69.5642092776506
314.272492154604;69.5032039139792
314.294120929272;69.4596190664247
314.31574970394;69.4460510456007
314.337378478608;69.4719386206456
314.359007253275;69.5362244126465
314.380636027943;69.6345080089943
314.402264802611;69.7727111778044
314.423893577278;69.9613441607439
314.445522351946;70.1964083530409
314.467151126614;70.4620061014736
314.488779901282;70.7384508222196
314.510408675949;71.0112728132814
314.532037450617;71.2674401479134
314.553666225285;71.5010519952495
314.575294999952;71.7021327766607
314.59692377462;71.8682141522515
314.618552549288;71.9986864540622
314.640181323956;72.0853571699429
314.661810098623;72.1151121453233
314.683438873291;72.0651875137007
314.705067647959;71.9275316586326
314.726696422626;71.7096460145748
314.748325197294;71.4250442647145
314.769953971962;71.1052692251163
314.79158274663;70.7754493932609
314.813211521297;70.4405297906296
314.834840295965;70.1013637682388
314.856469070633;69.7851969044124
314.8780978453;69.5173148331807
314.899726619968;69.316403667839
314.921355394636;69.1804526785636
314.942984169304;69.0957697956301
314.964612943971;69.0555811148835
314.986241718639;69.0610875303464
315.007870493307;69.1099165739175
315.029499267974;69.1922662510789
315.051128042642;69.304365587493
315.07275681731;69.4412690326696
315.094385591978;69.5917460053143
315.116014366645;69.7456046882542
315.137643141313;69.8948154111353
315.159271915981;70.0272176357505
315.180900690649;70.1375557223935
315.202529465316;70.2338341664731
315.224158239984;70.3287035299103
315.245787014652;70.4232452132623
315.267415789319;70.5131439754911
315.289044563987;70.5977160637858
315.310673338655;70.6711924109049
315.332302113323;70.7383923765172
315.35393088799;70.8031069728239
315.375559662658;70.8625755233447
315.397188437326;70.9110686637414
315.418817211993;70.9478575758174
315.440445986661;70.9750518566189
315.462074761329;70.9857633937074
315.483703535996;70.9722658262614
315.505332310664;70.9376341312929
315.526961085332;70.8885939015078
315.54858986;70.8220736808118
315.570218634667;70.7413162895219
315.591847409335;70.6491268856809
315.613476184003;70.5465227537956
315.635104958671;70.4378259028947
315.656733733338;70.3241468213519
315.678362508006;70.2050278723217
315.699991282674;70.0888254027182
315.721620057341;69.9868664913787
315.743248832009;69.9089704504809
315.764877606677;69.8580689468436
315.786506381345;69.82386951835
315.808135156012;69.8015575501723
315.82976393068;69.7956814574933
315.851392705348;69.8098491256329
315.873021480015;69.8383887571126
315.894650254683;69.8689680313578
315.916279029351;69.8889555005181
315.937907804018;69.8838625076146
315.959536578686;69.8442401847286
315.981165353354;69.784465134567
316.002794128022;69.7060535187303
316.024422902689;69.5991767783707
316.046051677357;69.4564287894253
316.067680452025;69.2845751781921
316.089309226693;69.1066249504034
316.11093800136;68.9482930931769
316.132566776028;68.8182306750522
316.154195550696;68.7077272119961
316.175824325363;68.60646350128
316.197453100031;68.5144691606323
316.219081874699;68.4439278235793
316.240710649367;68.3966622741587
316.262339424034;68.3642602239867
316.283968198702;68.3345802170785
316.30559697337;68.2983424370718
316.327225748037;68.2561117526663
316.348854522705;68.2112609837481
316.370483297373;68.1642192693996
316.392112072041;68.1102445478471
316.413740846708;68.052634161551
316.435369621376;68.0036720417859
316.456998396044;67.9751613240955
316.478627170711;67.9797039471406
316.500255945379;68.017582272278
316.521884720047;68.0829971313381
316.543513494715;68.1773608516871
316.565142269382;68.3092711178846
316.58677104405;68.4856214054034
316.608399818718;68.7051555301253
316.630028593385;68.9550135369883
316.651657368053;69.2116635190522
316.673286142721;69.4642882150414
316.694914917389;69.7027135028361
316.716543692056;69.9155538416021
316.738172466724;70.096746384195
316.759801241392;70.2447485706868
316.781430016059;70.3613981031498
316.803058790727;70.4435896882556
316.824687565395;70.4721887543102
316.846316340063;70.4296053469702
316.86794511473;70.3186172406805
316.889573889398;70.1607190257415
316.911202664066;69.9747003968143
316.932831438733;69.7665317724441
316.954460213401;69.5308060135235
316.976088988069;69.2684866268838
316.997717762737;68.9959640549574
317.019346537404;68.7184199498003
317.040975312072;68.4236694054534
317.06260408674;68.0999388264721
317.084232861407;67.7670414883826
317.105861636075;67.4460375797982
317.127490410743;67.1347216043033
317.149119185411;66.8377874612453
317.170747960078;66.5449498360019
317.192376734746;66.2380768493761
317.214005509414;65.935896125026
317.235634284081;65.6620453753402
317.257263058749;65.4297430261233
317.278891833417;65.2343670181519
317.300520608085;65.0658185622803
317.322149382752;64.9103805949979
317.34377815742;64.7459257254382
317.365406932088;64.5658914339813
317.387035706755;64.3830858438371
317.408664481423;64.1935352430829
317.430293256091;63.9729181850041
317.451922030759;63.711730421755
317.473550805426;63.4093536409555
317.495179580094;63.0682803347457
317.516808354762;62.7061221918071
317.538437129429;62.3437625111687
317.560065904097;61.9774052748159
317.581694678765;61.5986133174073
317.603323453433;61.219910532294
317.6249522281;60.8745635820793
317.646581002768;60.5835898745941
317.668209777436;60.3477059562547
317.689838552103;60.1628630389929
317.711467326771;60.0279288691118
317.733096101439;59.9419770203521
317.754724876107;59.9047245245629
317.776353650774;59.9210246672906
317.797982425442;60.0011016638869
317.81961120011;60.1424191758555
317.841239974777;60.3391663908741
317.862868749445;60.5883056757155
317.884497524113;60.8899359521554
317.906126298781;61.2379340745632
317.927755073448;61.6116824142531
317.949383848116;61.9957603835838
317.971012622784;62.3939402081864
317.992641397451;62.793409220445
318.014270172119;63.1682231592852
318.035898946787;63.5056109175509
318.057527721455;63.8062529836238
318.079156496122;64.0799902983686
318.10078527079;64.3216087513502
318.122414045458;64.4989214533652
318.144042820125;64.609281592121
318.165671594793;64.6786051133814
318.187300369461;64.7196955782334
318.208929144129;64.7434049566917
318.230557918796;64.7627344538045
318.252186693464;64.7863126391513
318.273815468132;64.8200284564246
318.295444242799;64.869256980309
318.317073017467;64.9385085810825
318.338701792135;65.028732660658
318.360330566803;65.12770837591
318.38195934147;65.2175121700662
318.403588116138;65.2884346251855
318.425216890806;65.3312534236936
318.446845665473;65.3298348163687
318.468474440141;65.2719520125253
318.490103214809;65.1563066108753
318.511731989477;64.9737395710201
318.533360764144;64.7163711845823
318.554989538812;64.3922255505965
318.57661831348;64.012821679596
318.598247088147;63.5955820722422
318.619875862815;63.148314396089
318.641504637483;62.6630432356342
318.663133412151;62.1332228895866
318.684762186818;61.5676076574813
318.706390961486;60.9819916770887
318.728019736154;60.3962144580857
318.749648510821;59.8254925227645
318.771277285489;59.2886278447394
318.792906060157;58.7911479979341
318.814534834825;58.3199788215603
318.836163609492;57.8627528411116
318.85779238416;57.4279196117456
318.879421158828;57.0382450757583
318.901049933495;56.7009341644055
318.922678708163;56.4076360451236
318.944307482831;56.1380080407059
318.965936257499;55.8862098407588
318.987565032166;55.6553650134178
319.009193806834;55.4522017373894
319.030822581502;55.2760715880738
319.05245135617;55.1195152841369
319.074080130837;54.9793280542932
319.095708905505;54.8685578252563
319.117337680173;54.7956960888843
319.13896645484;54.7495487604196
319.160595229508;54.7172516568104
319.182224004176;54.695688215659
319.203852778844;54.6877606253215
319.225481553511;54.6834347262398
319.247110328179;54.6684727345999
319.268739102847;54.6336549112915
319.290367877514;54.5782983326347
319.311996652182;54.4952747779042
319.33362542685;54.3710033563473
319.355254201517;54.1901787899365
319.376882976185;53.9635841034782
319.398511750853;53.7196772631761
319.420140525521;53.4761390083617
319.441769300188;53.2464850310376
319.463398074856;53.0347199696448
319.485026849524;52.8416661623747
319.506655624192;52.6843914012818
319.528284398859;52.5843201062986
319.549913173527;52.5505750929698
319.571541948195;52.5867530966266
319.593170722862;52.7049110532972
319.61479949753;52.9107641435826
319.636428272198;53.19707005826
319.658057046866;53.5655591564831
319.679685821533;54.0082018818997
319.701314596201;54.5130568894891
319.722943370869;55.064205096918
319.744572145536;55.6313644956873
319.766200920204;56.1913096453195
319.787829694872;56.7426767054091
319.809458469539;57.2912957576155
319.831087244207;57.8177803868713
319.852716018875;58.2932038127944
319.874344793543;58.7050739746039
319.89597356821;59.0448613196673
319.917602342878;59.3031358124322
319.939231117546;59.4802086696471
319.960859892214;59.5754692218294
319.982488666881;59.59500995528
320.004117441549;59.5466077974637
320.025746216217;59.4477358747306
320.047374990884;59.305553994945
320.069003765552;59.1297943485429
320.09063254022;58.9416291389182
320.112261314888;58.7543626498839
320.133890089555;58.565689863854
320.155518864223;58.3795101314714
320.177147638891;58.2081634409358
320.198776413558;58.0576419757633
320.220405188226;57.9278980495419
320.242033962894;57.8086966580797
320.263662737562;57.6876197243638
320.285291512229;57.5737797124114
320.306920286897;57.4680946829761
320.328549061565;57.3607343675641
320.350177836232;57.2427253860808
320.3718066109;57.1152923019513
320.393435385568;56.9865122359415
320.415064160236;56.8542287173976
320.436692934903;56.698936519804
320.458321709571;56.5058321335413
320.479950484239;56.2834346407799
320.501579258906;56.0606660174089
320.523208033574;55.8421361250362
320.544836808242;55.620114603425
320.56646558291;55.3888170427685
320.588094357577;55.1453812017385
320.609723132245;54.8956354819749
320.631351906913;54.6565354173175
320.65298068158;54.4427824124707
320.674609456248;54.2587698284355
320.696238230916;54.114752524786
320.717867005584;54.0133797461707
320.739495780251;53.9535480320922
320.761124554919;53.9363286478226
320.782753329587;53.9610465675038
320.804382104254;54.0192416212826
320.826010878922;54.1040794027468
320.84763965359;54.213304281726
320.869268428258;54.3457363007015
320.890897202925;54.4997233319802
320.912525977593;54.6717517922138
320.934154752261;54.8533745554269
320.955783526928;55.0374159216879
320.977412301596;55.2261357442643
320.999041076264;55.4296026457832
321.020669850932;55.6553432372026
321.042298625599;55.8930264951965
321.063927400267;56.1259299542126
321.085556174935;56.3483423935201
321.107184949602;56.5644240613971
321.12881372427;56.7753516949919
321.150442498938;56.9623721798702
321.172071273606;57.097327450071
321.193700048273;57.1689156688673
321.215328822941;57.1742922778654
321.236957597609;57.1111962969247
321.258586372276;56.9773537387875
321.280215146944;56.7730231677702
321.301843921612;56.5029917707502
321.32347269628;56.1730056988863
321.345101470947;55.7885435241215
321.366730245615;55.3518139764795
321.388359020283;54.8647876385574
321.40998779495;54.3372114137704
321.431616569618;53.7910193322004
321.453245344286;53.2448191623146
321.474874118954;52.7092161685338
321.496502893621;52.193504367722
321.518131668289;51.7004015698775
321.539760442957;51.2275410280935
321.561389217624;50.7618767334913
321.583017992292;50.2874885853767
321.60464676696;49.8095836030616
321.626275541628;49.3310156178457
321.647904316295;48.8476594915998
321.669533090963;48.3585205768026
321.691161865631;47.8769272900347
321.712790640298;47.4129394912127
321.734419414966;46.9584962421489
321.756048189634;46.5163589997114
321.777676964302;46.0943336249498
321.799305738969;45.6822361239072
321.820934513637;45.2706761488673
321.842563288305;44.8648473287611
321.864192062972;44.4746943879445
321.88582083764;44.0987668247237
321.907449612308;43.7317389453019
321.929078386976;43.3675597745881
321.950707161643;43.0035632893279
321.972335936311;42.6457472039998
321.993964710979;42.3004646976167
322.015593485646;41.9819500631559
322.037222260314;41.6889032863178
322.058851034982;41.4123707247946
322.08047980965;41.1583601153904
322.102108584317;40.9393333429824
322.123737358985;40.7550482477458
322.145366133653;40.5971331430249
322.16699490832;40.4618948629085
322.188623682988;40.3410952459713
322.210252457656;40.2308861930278
322.231881232324;40.1379403770037
322.253510006991;40.0633922602313
322.275138781659;39.9976769156648
322.296767556327;39.9310741743607
322.318396330994;39.8672660600577
322.340025105662;39.8248006524369
322.36165388033;39.8046243947557
322.383282654998;39.7833490352458
322.404911429665;39.7602121658327
322.426540204333;39.7383852096398
322.448168979001;39.712574217859
322.469797753668;39.6972132716696
322.491426528336;39.7059894762215
322.513055303004;39.7240256422699
322.534684077672;39.7451555302383
322.556312852339;39.7740859548683
322.577941627007;39.8128776404756
322.599570401675;39.861079987511
322.621199176342;39.9150006295985
322.64282795101;39.9787469806512
322.664456725678;40.0393063125425
322.686085500346;40.0590368268663
322.707714275013;40.0427174200525
322.729343049681;40.0204292714224
322.750971824349;39.9918341256456
322.772600599016;39.944149299895
322.794229373684;39.8730606412159
322.815858148352;39.7912194607126
322.83748692302;39.7038902621092
322.859115697687;39.6043100203735
322.880744472355;39.4926466350059
322.902373247023;39.3832526501347
322.924002021691;39.3007216122357
322.945630796358;39.2473036029811
322.967259571026;39.2231391349686
322.988888345694;39.2359053229535
323.010517120361;39.2989811253376
323.032145895029;39.4191489426144
323.053774669697;39.5853132690415
323.075403444365;39.7938115643782
323.097032219032;40.0410155479114
323.1186609937;40.315755396042
323.140289768368;40.6141562269496
323.161918543035;40.9348836363196
323.183547317703;41.2505744677953
323.205176092371;41.5496469068082
323.226804867038;41.8357797272794
323.248433641706;42.0985935776436
323.270062416374;42.3269534312418
323.291691191042;42.5180551012738
323.313319965709;42.6820198771792
323.334948740377;42.8163709805462
323.356577515045;42.8989123687712
323.378206289713;42.9281393886993
323.39983506438;42.9132147402382
323.421463839048;42.8536149914331
323.443092613716;42.7402731216138
323.464721388383;42.5759433462719
323.486350163051;42.3629428266024
323.507978937719;42.0983235275918
323.529607712387;41.7733518858068
323.551236487054;41.3886485629048
323.572865261722;40.9661787778873
323.59449403639;40.5212021728081
323.616122811057;40.0566112384451
323.637751585725;39.5658830953125
323.659380360393;39.0517436846514
323.68100913506;38.5147636025772
323.702637909728;37.9689220124041
323.724266684396;37.4559350449147
323.745895459064;36.9925641834288
323.767524233731;36.5713978022651
323.789153008399;36.1996549975203
323.810781783067;35.8912924732891
323.832410557735;35.6526098950771
323.854039332402;35.4732149557455
323.87566810707;35.3469224772432
323.897296881738;35.2696417947982
323.918925656405;35.2342834119175
323.940554431073;35.2300196976051
323.962183205741;35.2498287272373
323.983811980409;35.2935380003216
324.005440755076;35.3613264502577
324.027069529744;35.4512236218333
324.048698304412;35.5507523849216
324.070327079079;35.6518754040819
324.091955853747;35.7482251300596
324.113584628415;35.8364360174595
324.135213403083;35.9242260846582
324.15684217775;36.0154358313567
324.178470952418;36.1085283257097
324.200099727086;36.20148572905
324.221728501753;36.2946365932584
324.243357276421;36.3858848397649
324.264986051089;36.4608409441373
324.286614825757;36.515758347709
324.308243600424;36.552324511627
324.329872375092;36.5741382201069
324.35150114976;36.5734370813514
324.373129924427;36.5473213363581
324.394758699095;36.4955530325616
324.416387473763;36.4106684603618
324.438016248431;36.286602808988
324.459645023098;36.138039410954
324.481273797766;35.9669060150001
324.502902572434;35.7670125255263
324.524531347101;35.5306956611476
324.546160121769;35.2559654994682
324.567788896437;34.9460805206201
324.589417671105;34.6155240081176
324.611046445772;34.2792885179352
324.63267522044;33.946510313206
324.654303995108;33.629428148326
324.675932769775;33.3360703642625
324.697561544443;33.0629367649437
324.719190319111;32.8054917038622
324.740819093779;32.569574201341
324.762447868446;32.3652304181889
