Name;ESR_BC_1_3600s_X_gon_120dg_result

Recipe
Accumulations;5;Number of accumulations
RetryCount;0;Number of retries on error
AbortOnError;True;Abort on error
EnableQFactorMeasurement;False;Enable/Disable q-Factor measurement
Bfrom;313;B from
Bto;363;B to
SweepTime;60;Sweep time
Modulation;0.2;Modulation
ModulationFreq;100;Modulation
BHoldEnabled;False;B hold enabled
BHold;0;B hold
MicrowavePower;2;Microwave power
MarkerEnabled;False;
MarkerStartField;0;
MarkerEndField;0;
Mode;;
KineticGFact;0;
KineticTotalTransientTime;0;
KineticTimeResolution;0;
TempFrom;5;
TempUseSlope;False;
TempTo;5;
TempdT;1;
TempSetupTime;0;
GonFrom;0;
GonTo;180;
GonSteps;20;
XRayEnabled;False;
XRayTime;3;
XRayVoltage;40;
XRayCurrent;0.5;
UVEnabled;False;
UVIntensity;0;
UVTime;0;
UVLeadTime;0;
UVWavelength;0;
PowSweepFrom;1;
PowSweepTo;5;
PowSweepSteps;5;
AmpModSweepFrom;0;
AmpModSweepTo;1;
AmpModSweepSteps;10;
ExtTriggerEnabled;False;
ExtTrigLeadTime;0;
ExtTrigOnTime;5;

Meas
BField [mT];MW_Absorption []
313.027646942139;544.032568796894
313.049271522357;543.088399799222
313.070896102575;542.188358018862
313.092520682793;541.370748930147
313.114145263011;540.686740930119
313.13576984323;540.087507547764
313.157394423448;539.534725784867
313.179019003666;539.024897908836
313.200643583884;538.563303280843
313.222268164102;538.143080154706
313.24389274432;537.761016164603
313.265517324538;537.396801414612
313.287141904757;537.028418358031
313.308766484975;536.649916196735
313.330391065193;536.257154780448
313.352015645411;535.832114909398
313.373640225629;535.35788449273
313.395264805847;534.82129462639
313.416889386066;534.217256293289
313.438513966284;533.561938261684
313.460138546502;532.869065861922
313.48176312672;532.15657122205
313.503387706938;531.422868150463
313.525012287156;530.683734565769
313.546636867375;529.938741449645
313.568261447593;529.149863642648
313.589886027811;528.305693393971
313.611510608029;527.447950063984
313.633135188247;526.608934735547
313.654759768465;525.79840825876
313.676384348684;525.005637381321
313.698008928902;524.205220862205
313.71963350912;523.407829850636
313.741258089338;522.634393232725
313.762882669556;521.886279870679
313.784507249774;521.159534234466
313.806131829993;520.445620524788
313.827756410211;519.741729855192
313.849380990429;519.053691099609
313.871005570647;518.372462507233
313.892630150865;517.669749905064
313.914254731083;516.92513762158
313.935879311302;516.150204861858
313.95750389152;515.353101477369
313.979128471738;514.527267913902
314.000753051956;513.617796887949
314.022377632174;512.589824444567
314.044002212392;511.48931041413
314.06562679261;510.388611063575
314.087251372829;509.299053965922
314.108875953047;508.187346061724
314.130500533265;507.071577400137
314.152125113483;505.993974214797
314.173749693701;504.96006696373
314.195374273919;503.959340553984
314.216998854138;502.991242839307
314.238623434356;502.07132951027
314.260248014574;501.219565241056
314.281872594792;500.458133367057
314.30349717501;499.763772556918
314.325121755228;499.101914232312
314.346746335447;498.474983406992
314.368370915665;497.892799685396
314.389995495883;497.343296851626
314.411620076101;496.803414757548
314.433244656319;496.268049957374
314.454869236537;495.739886155677
314.476493816756;495.226853774623
314.498118396974;494.734723152985
314.519742977192;494.25881359642
314.54136755741;493.80560749729
314.562992137628;493.381701382286
314.584616717846;492.971404891727
314.606241298065;492.550949830606
314.627865878283;492.111399036908
314.649490458501;491.660154197119
314.671115038719;491.203184179167
314.692739618937;490.735527503303
314.714364199155;490.240584337353
314.735988779373;489.712047749935
314.757613359592;489.166480057436
314.77923793981;488.611780790174
314.800862520028;488.036235136339
314.822487100246;487.438086829159
314.844111680464;486.828819147062
314.865736260682;486.19775518463
314.887360840901;485.511221069019
314.908985421119;484.754849970198
314.930610001337;483.961802390412
314.952234581555;483.179271813165
314.973859161773;482.418443202515
314.995483741991;481.655759354152
315.01710832221;480.878867145201
315.038732902428;480.113730713431
315.060357482646;479.402960720036
315.081982062864;478.731812320117
315.103606643082;478.072211227259
315.1252312233;477.421182904149
315.146855803519;476.800361181665
315.168480383737;476.212166394294
315.190104963955;475.632440520375
315.211729544173;475.060290578998
315.233354124391;474.513347323245
315.254978704609;473.970788344271
315.276603284828;473.4070467186
315.298227865046;472.834453326644
315.319852445264;472.264507663943
315.341477025482;471.695921678522
315.3631016057;471.125552925333
315.384726185918;470.565878540343
315.406350766137;470.005414389777
315.427975346355;469.421148842923
315.449599926573;468.791487782345
315.471224506791;468.119359847912
315.492849087009;467.432252029829
315.514473667227;466.728223960572
315.536098247446;465.973663091359
315.557722827664;465.149574677667
315.579347407882;464.308642310938
315.6009719881;463.470521540614
315.622596568318;462.578254773375
315.644221148536;461.628188832391
315.665845728755;460.644327366461
315.687470308973;459.620847095525
315.709094889191;458.548130133093
315.730719469409;457.464147673484
315.752344049627;456.408073004378
315.773968629845;455.383854514739
315.795593210063;454.394769790664
315.817217790282;453.438384374426
315.8388423705;452.517181772484
315.860466950718;451.652609767078
315.882091530936;450.860172334815
315.903716111154;450.140047872098
315.925340691372;449.476749769446
315.946965271591;448.859773940653
315.968589851809;448.276745879911
315.990214432027;447.702640794601
316.011839012245;447.121427935805
316.033463592463;446.53080651702
316.055088172681;445.945994071959
316.0767127529;445.380366755963
316.098337333118;444.811061875935
316.119961913336;444.205107088162
316.141586493554;443.566664942966
316.163211073772;442.960232104168
316.18483565399;442.397314983474
316.206460234209;441.858545888629
316.228084814427;441.333512028368
316.249709394645;440.831446759982
316.271333974863;440.379669052732
316.292958555081;439.97940719714
316.314583135299;439.606729065527
316.336207715518;439.245006712291
316.357832295736;438.906927520733
316.379456875954;438.5899445499
316.401081456172;438.263051467006
316.42270603639;437.905167778717
316.444330616608;437.492616690465
316.465955196826;437.007334981174
316.487579777045;436.452150379353
316.509204357263;435.839360577556
316.530828937481;435.168878090248
316.552453517699;434.430430768718
316.574078097917;433.596381360224
316.595702678135;432.652469420857
316.617327258354;431.660587003094
316.638951838572;430.642154126659
316.66057641879;429.580602026806
316.682200999008;428.463234605379
316.703825579226;427.315436065716
316.725450159444;426.170718711619
316.747074739663;425.029968806448
316.768699319881;423.907961815873
316.790323900099;422.828989298858
316.811948480317;421.776953955189
316.833573060535;420.713045668895
316.855197640753;419.654214338057
316.876822220972;418.628263672944
316.89844680119;417.638113488988
316.920071381408;416.647981046996
316.941695961626;415.648011175269
316.963320541844;414.654106600628
316.984945122062;413.674055416908
317.006569702281;412.709873250343
317.028194282499;411.753345056173
317.049818862717;410.795095466666
317.071443442935;409.825816506343
317.093068023153;408.851986836457
317.114692603371;407.892743086755
317.13631718359;406.987722494657
317.157941763808;406.125240759931
317.179566344026;405.279635423906
317.201190924244;404.447946761944
317.222815504462;403.662794109496
317.24444008468;402.961119779689
317.266064664899;402.359442093277
317.287689245117;401.857388797928
317.309313825335;401.447249659585
317.330938405553;401.115300475294
317.352562985771;400.848261990936
317.374187565989;400.640342378359
317.395812146208;400.487841113701
317.417436726426;400.377029187242
317.439061306644;400.289750963469
317.460685886862;400.20786743239
317.48231046708;400.112652898248
317.503935047298;399.985835218466
317.525559627516;399.811978358885
317.547184207735;399.577418251225
317.568808787953;399.271335440249
317.590433368171;398.8892836999
317.612057948389;398.428476222552
317.633682528607;397.885646602123
317.655307108825;397.262231314126
317.676931689044;396.553203237807
317.698556269262;395.759570252628
317.72018084948;394.923352419498
317.741805429698;394.074309113267
317.763430009916;393.218255828431
317.785054590134;392.357083550516
317.806679170353;391.489781268735
317.828303750571;390.623059333707
317.849928330789;389.770649215096
317.871552911007;388.965445789716
317.893177491225;388.229418749856
317.914802071443;387.537605470823
317.936426651662;386.870256497872
317.95805123188;386.240269562769
317.979675812098;385.642250534747
318.001300392316;385.057108173081
318.022924972534;384.493277879637
318.044549552752;383.959605689907
318.066174132971;383.434636561207
318.087798713189;382.921734962244
318.109423293407;382.425271357429
318.131047873625;381.930001679853
318.152672453843;381.42768800524
318.174297034061;380.928791415463
318.195921614279;380.440318303206
318.217546194498;379.939604300001
318.239170774716;379.418754102637
318.260795354934;378.892252740718
318.282419935152;378.367401688787
318.30404451537;377.842814135287
318.325669095588;377.317300780051
318.347293675807;376.809229490338
318.368918256025;376.340183893642
318.390542836243;375.912384932518
318.412167416461;375.515344912956
318.433791996679;375.154959307435
318.455416576897;374.852451034628
318.477041157116;374.603823764165
318.498665737334;374.405205738326
318.520290317552;374.249553049334
318.54191489777;374.119230182837
318.563539477988;373.99410246019
318.585164058206;373.857443911628
318.606788638425;373.698829107581
318.628413218643;373.505242837803
318.650037798861;373.264973988763
318.671662379079;372.968326443774
318.693286959297;372.602361133038
318.714911539515;372.153352102643
318.736536119734;371.628935310357
318.758160699952;371.05811352412
318.77978528017;370.446662896874
318.801409860388;369.780495520854
318.823034440606;369.060825982384
318.844659020824;368.300211197449
318.866283601043;367.509680970958
318.887908181261;366.703667835224
318.909532761479;365.911538857666
318.931157341697;365.142840120466
318.952781921915;364.387919120655
318.974406502133;363.665530655654
318.996031082352;362.998117528903
319.01765566257;362.375480753812
319.039280242788;361.798209120282
319.060904823006;361.283650970965
319.082529403224;360.823430506186
319.104153983442;360.399372782293
319.12577856366;360.00089531541
319.147403143879;359.620698440256
319.169027724097;359.246226024336
319.190652304315;358.867017821982
319.212276884533;358.480838816782
319.233901464751;358.087761487668
319.255526044969;357.677179824223
319.277150625188;357.232099570634
319.298775205406;356.753811246353
319.320399785624;356.251328276362
319.342024365842;355.739727123451
319.36364894606;355.231079094239
319.385273526278;354.731433194959
319.406898106497;354.251629138195
319.428522686715;353.812962450242
319.450147266933;353.432522832294
319.471771847151;353.107036955562
319.493396427369;352.839392413944
319.515021007587;352.642480379237
319.536645587806;352.511375195977
319.558270168024;352.430222271666
319.579894748242;352.394012569392
319.60151932846;352.402069256805
319.623143908678;352.449519635267
319.644768488896;352.531469361003
319.666393069115;352.635603566792
319.688017649333;352.73547791805
319.709642229551;352.819206044852
319.731266809769;352.891032993214
319.752891389987;352.949673125005
319.774515970205;352.987615500383
319.796140550424;353.010362609807
319.817765130642;353.022957992481
319.83938971086;353.020641080312
319.861014291078;352.996995467019
319.882638871296;352.951697339092
319.904263451514;352.888544457174
319.925888031732;352.808398022505
319.947512611951;352.717031260268
319.969137192169;352.62681506452
319.990761772387;352.542839331054
320.012386352605;352.46740036966
320.034010932823;352.408992189203
320.055635513041;352.373363048538
320.07726009326;352.358238566022
320.098884673478;352.36415708609
320.120509253696;352.39385126517
320.142133833914;352.446015336521
320.163758414132;352.518506709971
320.18538299435;352.610250364857
320.207007574569;352.711576180478
320.228632154787;352.803949134518
320.250256735005;352.87129397741
320.271881315223;352.905157402198
320.293505895441;352.896209080244
320.315130475659;352.829266702293
320.336755055878;352.680999050955
320.358379636096;352.436382664561
320.380004216314;352.099909773019
320.401628796532;351.664610725014
320.42325337675;351.116508733989
320.444877956968;350.449440115082
320.466502537187;349.676421563795
320.488127117405;348.794619750898
320.509751697623;347.798766296812
320.531376277841;346.702175356902
320.553000858059;345.519335032111
320.574625438277;344.260172742961
320.596250018495;342.941189216134
320.617874598714;341.577685765285
320.639499178932;340.176720313802
320.66112375915;338.769574405282
320.682748339368;337.386571603023
320.704372919586;336.052366986831
320.725997499804;334.782013082526
320.747622080023;333.563152326137
320.769246660241;332.377108580127
320.790871240459;331.233866650915
320.812495820677;330.133524272546
320.834120400895;329.070267911037
320.855744981113;328.053748753453
320.877369561332;327.081919282931
320.89899414155;326.131143412649
320.920618721768;325.176472685008
320.942243301986;324.204401760221
320.963867882204;323.236050815428
320.985492462422;322.287836820358
321.007117042641;321.319146756599
321.028741622859;320.268230674116
321.050366203077;319.100983735074
321.071990783295;317.880339459936
321.093615363513;316.672537763792
321.115239943731;315.486038024104
321.13686452395;314.335161053533
321.158489104168;313.216714026249
321.180113684386;312.108126892695
321.201738264604;311.003355653782
321.223362844822;309.946596777388
321.24498742504;308.988867687118
321.266612005259;308.139573590787
321.288236585477;307.386254812637
321.309861165695;306.744786150268
321.331485745913;306.26201178103
321.353110326131;305.932586462044
321.374734906349;305.741083092074
321.396359486568;305.655608962836
321.417984066786;305.650855191187
321.439608647004;305.710401414427
321.461233227222;305.812405127349
321.48285780744;305.93261041566
321.504482387658;306.0607716005
321.526106967877;306.199803456513
321.547731548095;306.347637998982
321.569356128313;306.485712746126
321.590980708531;306.603283357172
321.612605288749;306.71102802404
321.634229868967;306.824228591772
321.655854449185;306.940194327749
321.677479029404;307.045890651452
321.699103609622;307.151682615054
321.72072818984;307.272699271706
321.742352770058;307.409406949757
321.763977350276;307.564059497849
321.785601930494;307.71715566859
321.807226510713;307.844156705008
321.828851090931;307.953718330893
321.850475671149;308.057811675459
321.872100251367;308.14873517993
321.893724831585;308.214453088997
321.915349411803;308.249069740164
321.936973992022;308.253466375351
321.95859857224;308.236505525794
321.980223152458;308.200692868581
322.001847732676;308.141075378833
322.023472312894;308.051811694425
322.045096893112;307.93626447053
322.066721473331;307.792293932739
322.088346053549;307.616457743102
322.109970633767;307.395203172979
322.131595213985;307.107655082553
322.153219794203;306.746259195746
322.174844374421;306.318946219133
322.19646895464;305.819282863872
322.218093534858;305.238478954433
322.239718115076;304.545766209457
322.261342695294;303.728613640978
322.282967275512;302.832869068779
322.30459185573;301.906304347971
322.326216435948;300.94912666983
322.347841016167;299.963351728474
322.369465596385;298.959042397832
322.391090176603;297.965957287827
322.412714756821;297.020816705731
322.434339337039;296.134336184611
322.455963917257;295.300898380846
322.477588497476;294.535817412387
322.499213077694;293.834108073799
322.520837657912;293.179556639393
322.54246223813;292.576085240692
322.564086818348;292.030050020256
322.585711398566;291.531599986408
322.607335978785;291.064944387198
322.628960559003;290.632441732001
322.650585139221;290.249869676274
322.672209719439;289.913711286379
322.693834299657;289.615801573975
322.715458879875;289.347620473144
322.737083460094;289.086668264988
322.758708040312;288.83172962648
322.78033262053;288.597805186937
322.801957200748;288.381529678009
322.823581780966;288.1657955486
322.845206361184;287.948954824634
322.866830941403;287.739993648021
322.888455521621;287.540784081218
322.910080101839;287.348883954107
322.931704682057;287.161435713804
322.953329262275;286.97443103574
322.974953842493;286.781848994044
322.996578422712;286.585045244152
323.01820300293;286.395465495529
323.039827583148;286.219537767973
323.061452163366;286.061349471976
323.083076743584;285.920466702949
323.104701323802;285.79178513736
323.126325904021;285.673792328863
323.147950484239;285.566210546262
323.169575064457;285.473539872762
323.191199644675;285.398940338852
323.212824224893;285.343634432627
323.234448805111;285.307766446708
323.25607338533;285.276123787927
323.277697965548;285.235491985871
323.299322545766;285.182542308088
323.320947125984;285.112829207557
323.342571706202;285.018229297229
323.36419628642;284.888921062761
323.385820866638;284.707013971653
323.407445446857;284.437571603389
323.429070027075;284.063842693821
323.450694607293;283.584448547864
323.472319187511;283.051973641445
323.493943767729;282.457878376767
323.515568347947;281.791231839743
323.537192928166;281.074821937965
323.558817508384;280.340354609899
323.580442088602;279.603233227877
323.60206666882;278.863530012377
323.623691249038;278.114677217005
323.645315829256;277.375550825662
323.666940409475;276.681340706873
323.688564989693;276.052594158336
323.710189569911;275.502124437245
323.731814150129;275.035692246921
323.753438730347;274.638555668256
323.775063310565;274.290172004255
323.796687890784;273.977256840125
323.818312471002;273.692447558646
323.83993705122;273.425915036501
323.861561631438;273.163532309145
323.883186211656;272.891495915973
323.904810791874;272.607091505579
323.926435372093;272.312068882417
323.948059952311;272.004429074813
323.969684532529;271.668322746913
323.991309112747;271.294292225486
324.012933692965;270.889804147915
324.034558273183;270.464028790468
324.056182853401;270.015668952515
324.07780743362;269.552379418357
324.099432013838;269.081513221812
324.121056594056;268.58970576874
324.142681174274;268.058781584718
324.164305754492;267.492863441558
324.18593033471;266.913970818603
324.207554914929;266.325540642363
324.229179495147;265.693380428789
324.250804075365;264.99455609086
324.272428655583;264.268777573835
324.294053235801;263.534039642854
324.315677816019;262.773491247301
324.337302396238;261.978692461225
324.358926976456;261.159406107373
324.380551556674;260.32158904466
324.402176136892;259.450561717439
324.42380071711;258.543539114254
324.445425297328;257.57361734194
324.467049877547;256.485400620382
324.488674457765;255.318025176015
324.510299037983;254.112782870004
324.531923618201;252.873711233666
324.553548198419;251.610182712832
324.575172778637;250.339598011199
324.596797358856;249.062612116373
324.618421939074;247.746291777464
324.640046519292;246.327520429433
324.66167109951;244.811187921712
324.683295679728;243.270294256932
324.704920259946;241.746596896634
324.726544840165;240.253478052571
324.748169420383;238.780650489033
324.769794000601;237.327203381979
