Name;ESR_BC_1_29min_X_gon_100dg_result

Recipe
Accumulations;5;Number of accumulations
RetryCount;0;Number of retries on error
AbortOnError;True;Abort on error
EnableQFactorMeasurement;False;Enable/Disable q-Factor measurement
Bfrom;313;B from
Bto;363;B to
SweepTime;60;Sweep time
Modulation;0.2;Modulation
ModulationFreq;100;Modulation
BHoldEnabled;False;B hold enabled
BHold;0;B hold
MicrowavePower;2;Microwave power
MarkerEnabled;False;
MarkerStartField;0;
MarkerEndField;0;
Mode;;
KineticGFact;0;
KineticTotalTransientTime;0;
KineticTimeResolution;0;
TempFrom;5;
TempUseSlope;False;
TempTo;5;
TempdT;1;
TempSetupTime;0;
GonFrom;0;
GonTo;180;
GonSteps;20;
XRayEnabled;False;
XRayTime;3;
XRayVoltage;40;
XRayCurrent;0.5;
UVEnabled;False;
UVIntensity;0;
UVTime;0;
UVLeadTime;0;
UVWavelength;0;
PowSweepFrom;1;
PowSweepTo;5;
PowSweepSteps;5;
AmpModSweepFrom;0;
AmpModSweepTo;1;
AmpModSweepSteps;10;
ExtTriggerEnabled;False;
ExtTrigLeadTime;0;
ExtTrigOnTime;5;

Meas
BField [mT];MW_Absorption []
313.019152145386;547.770359603047
313.040776247991;547.49357870191
313.062400350595;547.266130047412
313.0840244532;547.090561738248
313.105648555805;546.969383732545
313.12727265841;546.888620567555
313.148896761015;546.834579487085
313.17052086362;546.810614781557
313.192144966225;546.826085254776
313.213769068829;546.879575513946
313.235393171434;546.961798514479
313.257017274039;547.057970934733
313.278641376644;547.147577694854
313.300265479249;547.222480358887
313.321889581854;547.283334600776
313.343513684459;547.33193909221
313.365137787063;547.338715871593
313.386761889668;547.278954240344
313.408385992273;547.158116437201
313.430010094878;546.971631285725
313.451634197483;546.692944938216
313.473258300088;546.299626153792
313.494882402693;545.797235188216
313.516506505297;545.186077453654
313.538130607902;544.485681746317
313.559754710507;543.715175862048
313.581378813112;542.859174556325
313.603002915717;541.89402988546
313.624627018322;540.815279416252
313.646251120927;539.683663127908
313.667875223531;538.554532492104
313.689499326136;537.437690441366
313.711123428741;536.353274790835
313.732747531346;535.310473654202
313.754371633951;534.294492342075
313.775995736556;533.309509993262
313.797619839161;532.360020904155
313.819243941765;531.449119342902
313.84086804437;530.590984041592
313.862492146975;529.799510860236
313.88411624958;529.092101540225
313.905740352185;528.447322223735
313.92736445479;527.838691098736
313.948988557394;527.281533197661
313.970612659999;526.77880811178
313.992236762604;526.304512280848
314.013860865209;525.84510596081
314.035484967814;525.378836921196
314.057109070419;524.874498694507
314.078733173024;524.316566354667
314.100357275628;523.737958174827
314.121981378233;523.152348688983
314.143605480838;522.540473921925
314.165229583443;521.908130193332
314.186853686048;521.277342882527
314.208477788653;520.651163332859
314.230101891258;520.00820242849
314.251725993862;519.348206479182
314.273350096467;518.70698031025
314.294974199072;518.102641474437
314.316598301677;517.511113292523
314.338222404282;516.934116948629
314.359846506887;516.400336991418
314.381470609492;515.920946527586
314.403094712096;515.492059779336
314.424718814701;515.115687611109
314.446342917306;514.792797143576
314.467967019911;514.510780626513
314.489591122516;514.265113837539
314.511215225121;514.054228240367
314.532839327726;513.866890580244
314.55446343033;513.686917423646
314.576087532935;513.500502716462
314.59771163554;513.302536713325
314.619335738145;513.091358647532
314.64095984075;512.860364043637
314.662583943355;512.596314459985
314.68420804596;512.29884812498
314.705832148564;511.974381345926
314.727456251169;511.620167103869
314.749080353774;511.246771615011
314.770704456379;510.868557035192
314.792328558984;510.494270675144
314.813952661589;510.125201774854
314.835576764193;509.751931934399
314.857200866798;509.370901351501
314.878824969403;509.006199096944
314.900449072008;508.673620114332
314.922073174613;508.362388727886
314.943697277218;508.04924482907
314.965321379823;507.711315016424
314.986945482427;507.358055790259
315.008569585032;507.002742291065
315.030193687637;506.650571480015
315.051817790242;506.295045432946
315.073441892847;505.929982128336
315.095065995452;505.55417118873
315.116690098057;505.176458170302
315.138314200661;504.804422718385
315.159938303266;504.430028408029
315.181562405871;504.048410625227
315.203186508476;503.667110444192
315.224810611081;503.296889262112
315.246434713686;502.935903997234
315.268058816291;502.569953083394
315.289682918895;502.200097277838
315.3113070215;501.838331721501
315.332931124105;501.487279426561
315.35455522671;501.14280520158
315.376179329315;500.811306569888
315.39780343192;500.501979920226
315.419427534525;500.225625519793
315.441051637129;499.990134797814
315.462675739734;499.792039553958
315.484299842339;499.62294668585
315.505923944944;499.467756934857
315.527548047549;499.310538783638
315.549172150154;499.13225874344
315.570796252759;498.905983050485
315.592420355363;498.606132852623
315.614044457968;498.238967916764
315.635668560573;497.816586951763
315.657292663178;497.338974244129
315.678916765783;496.799273222087
315.700540868388;496.186710006531
315.722164970992;495.496485305081
315.743789073597;494.733873750682
315.765413176202;493.91031862485
315.787037278807;493.073082489505
315.808661381412;492.260584399079
315.830285484017;491.492013383456
315.851909586622;490.769064307086
315.873533689226;490.081529536371
315.895157791831;489.418088123689
315.916781894436;488.777725711141
315.938405997041;488.145976813919
315.960030099646;487.552371223659
315.981654202251;486.999318244773
316.003278304856;486.492835072572
316.02490240746;486.02853480675
316.046526510065;485.592225127429
316.06815061267;485.176523971854
316.089774715275;484.783211541041
316.11139881788;484.421768504578
316.133022920485;484.091253259149
316.15464702309;483.787758985361
316.176271125694;483.506774729322
316.197895228299;483.237374472738
316.219519330904;482.97011929555
316.241143433509;482.705070034813
316.262767536114;482.439238511526
316.284391638719;482.16259467715
316.306015741324;481.865171651492
316.327639843928;481.542739588264
316.349263946533;481.191836367135
316.370888049138;480.804535731616
316.392512151743;480.384875485694
316.414136254348;479.949032513137
316.435760356953;479.48959905349
316.457384459557;478.987221382349
316.479008562162;478.444385627252
316.500632664767;477.873201885105
316.522256767372;477.281410997146
316.543880869977;476.673445038114
316.565504972582;476.049068615675
316.587129075187;475.39139732274
316.608753177791;474.686516369475
316.630377280396;473.96013778459
316.652001383001;473.268608132795
316.673625485606;472.638659265078
316.695249588211;472.055187844904
316.716873690816;471.505816341605
316.738497793421;470.992890819875
316.760121896025;470.525646033126
316.78174599863;470.108246932471
316.803370101235;469.743860576016
316.82499420384;469.438670514811
316.846618306445;469.19400063613
316.86824240905;468.999210909097
316.889866511655;468.837813818358
316.911490614259;468.700720692295
316.933114716864;468.587700880499
316.954738819469;468.490020756603
316.976362922074;468.391523741772
316.997987024679;468.274556897435
317.019611127284;468.122265509821
317.041235229889;467.922480493017
317.062859332493;467.663795515064
317.084483435098;467.34289805619
317.106107537703;466.961497199946
317.127731640308;466.522812146264
317.149355742913;466.025491242289
317.170979845518;465.461743530997
317.192603948123;464.838352183932
317.214228050727;464.227294840131
317.235852153332;463.64677488004
317.257476255937;463.086958962044
317.279100358542;462.555052527795
317.300724461147;462.062926198074
317.322348563752;461.624483116885
317.343972666356;461.251333062549
317.365596768961;460.945594779965
317.387220871566;460.706649337419
317.408844974171;460.524150494693
317.430469076776;460.389048726741
317.452093179381;460.302032401307
317.473717281986;460.249968575126
317.49534138459;460.214426890432
317.516965487195;460.177007846348
317.5385895898;460.122783436527
317.560213692405;460.04055414098
317.58183779501;459.926085289776
317.603461897615;459.76878279814
317.62508600022;459.54597524053
317.646710102824;459.237510159974
317.668334205429;458.845376676949
317.689958308034;458.379495912192
317.711582410639;457.836086148358
317.733206513244;457.226848109799
317.754830615849;456.561301136545
317.776454718454;455.818469302463
317.798078821058;454.976811158763
317.819702923663;454.075638705391
317.841327026268;453.138860104935
317.862951128873;452.161865851902
317.884575231478;451.135640478195
317.906199334083;450.089315063132
317.927823436688;449.072666747986
317.949447539292;448.106945528463
317.971071641897;447.185722403217
317.992695744502;446.304065580833
318.014319847107;445.475198454302
318.035943949712;444.685586619073
318.057568052317;443.917429439849
318.079192154921;443.170594245527
318.100816257526;442.455170145453
318.122440360131;441.772113891618
318.144064462736;441.116636525372
318.165688565341;440.472694858279
318.187312667946;439.841237866862
318.208936770551;439.241193482958
318.230560873155;438.671684813042
318.25218497576;438.116873727605
318.273809078365;437.566189141928
318.29543318097;437.024717227302
318.317057283575;436.503325643987
318.33868138618;436.012117616995
318.360305488785;435.551596447797
318.381929591389;435.123193488006
318.403553693994;434.739885864378
318.425177796599;434.390209259534
318.446801899204;434.060189081959
318.468426001809;433.758145050397
318.490050104414;433.493536916827
318.511674207019;433.258428938837
318.533298309623;433.046284593018
318.554922412228;432.851764411622
318.576546514833;432.6627841743
318.598170617438;432.46621803091
318.619794720043;432.252539371315
318.641418822648;432.016994803378
318.663042925253;431.761348950297
318.684667027857;431.48610371889
318.706291130462;431.189277570573
318.727915233067;430.867937778172
318.749539335672;430.518740817244
318.771163438277;430.14069628314
318.792787540882;429.738898241195
318.814411643487;429.322968722548
318.836035746091;428.892673316679
318.857659848696;428.445288783212
318.879283951301;427.993282822815
318.900908053906;427.552355754722
318.922532156511;427.126179767818
318.944156259116;426.711975019274
318.965780361721;426.300352875656
318.987404464325;425.876829651504
319.00902856693;425.431956012754
319.030652669535;424.980536908403
319.05227677214;424.533503478451
319.073900874745;424.07671168227
319.09552497735;423.591943794031
319.117149079955;423.080915165847
319.138773182559;422.555620815757
319.160397285164;422.003375572732
319.182021387769;421.40238754747
319.203645490374;420.754447560515
319.225269592979;420.065292301964
319.246893695584;419.3312147353
319.268517798188;418.566674762094
319.290141900793;417.78998953435
319.311766003398;417.01042940339
319.333390106003;416.226303294767
319.355014208608;415.437042291276
319.376638311213;414.652782715852
319.398262413818;413.889204516359
319.419886516422;413.174283580361
319.441510619027;412.499458033987
319.463134721632;411.848856431008
319.484758824237;411.248197796303
319.506382926842;410.731008844287
319.528007029447;410.291191987337
319.549631132052;409.903950780351
319.571255234656;409.55572727803
319.592879337261;409.241244171735
319.614503439866;408.962843313649
319.636127542471;408.720524484454
319.657751645076;408.501314824868
319.679375747681;408.290736664959
319.700999850286;408.09022053489
319.72262395289;407.882998337547
319.744248055495;407.638516708453
319.7658721581;407.338450499123
319.787496260705;407.009955434674
319.80912036331;406.666847912585
319.830744465915;406.304573516624
319.85236856852;405.92238520587
319.873992671124;405.530934906884
319.895616773729;405.154523064463
319.917240876334;404.807718602484
319.938864978939;404.497957532568
319.960489081544;404.232114283548
319.982113184149;404.01482995858
320.003737286754;403.847177724805
320.025361389358;403.726285747355
320.046985491963;403.651537616628
320.068609594568;403.62637881579
320.090233697173;403.657040198492
320.111857799778;403.760510406127
320.133481902383;403.947813232099
320.155106004987;404.201165089637
320.176730107592;404.498260299352
320.198354210197;404.837500094557
320.219978312802;405.228500696681
320.241602415407;405.679020013901
320.263226518012;406.158910908956
320.284850620617;406.624344996764
320.306474723221;407.053782339619
320.328098825826;407.428605063044
320.349722928431;407.706527903761
320.371347031036;407.840493987378
320.392971133641;407.80319422313
320.414595236246;407.568777654386
320.436219338851;407.104581196613
320.457843441455;406.412505601629
320.47946754406;405.531068910985
320.501091646665;404.468286944721
320.52271574927;403.211791418227
320.544339851875;401.787757258267
320.56596395448;400.21988560663
320.587588057085;398.51929366914
320.609212159689;396.72714726012
320.630836262294;394.94509123392
320.652460364899;393.272895604438
320.674084467504;391.748612164417
320.695708570109;390.398325121234
320.717332672714;389.220965602058
320.738956775319;388.193006908788
320.760580877923;387.286886148961
320.782204980528;386.482466069345
320.803829083133;385.770409610609
320.825453185738;385.136937479925
320.847077288343;384.5563627011
320.868701390948;383.995787898468
320.890325493553;383.411622414611
320.911949596157;382.76388599853
320.933573698762;382.038140493939
320.955197801367;381.241681766542
320.976821903972;380.367400107489
320.998446006577;379.390637454759
321.020070109182;378.308046863168
321.041694211786;377.118865424691
321.063318314391;375.817936042136
321.084942416996;374.405621935942
321.106566519601;372.875212947049
321.128190622206;371.246447851263
321.149814724811;369.565451197314
321.171438827416;367.869351308626
321.19306293002;366.168973745671
321.214687032625;364.441849125235
321.23631113523;362.666181224409
321.257935237835;360.849070356258
321.27955934044;359.052422692018
321.301183443045;357.338793920647
321.32280754565;355.736311448383
321.344431648254;354.254093036222
321.366055750859;352.901823604041
321.387679853464;351.697544078373
321.409303956069;350.648539194102
321.430928058674;349.730937243478
321.452552161279;348.923004252745
321.474176263884;348.241400450385
321.495800366488;347.72047323106
321.517424469093;347.352205257391
321.539048571698;347.109378985943
321.560672674303;346.97259046207
321.582296776908;346.921791333659
321.603920879513;346.940157322308
321.625544982118;347.018160939609
321.647169084722;347.136085121384
321.668793187327;347.265995082644
321.690417289932;347.386821266065
321.712041392537;347.482122182248
321.733665495142;347.539301196183
321.755289597747;347.546059401527
321.776913700351;347.502030864943
321.798537802956;347.412881898968
321.820161905561;347.275306491177
321.841786008166;347.088509593684
321.863410110771;346.861824440242
321.885034213376;346.598142736198
321.906658315981;346.300815666615
321.928282418585;345.978962526593
321.94990652119;345.63938987549
321.971530623795;345.281282103153
321.9931547264;344.895422830131
322.014778829005;344.462502376646
322.03640293161;343.95499725495
322.058027034215;343.34799913065
322.079651136819;342.63641016921
322.101275239424;341.846133246063
322.122899342029;340.997690488571
322.144523444634;340.097127924715
322.166147547239;339.146942071011
322.187771649844;338.148643083044
322.209395752449;337.104345805963
322.231019855053;336.046424442046
322.252643957658;334.996571637859
322.274268060263;333.966277869537
322.295892162868;332.971675568486
322.317516265473;332.019552369516
322.339140368078;331.111577046138
322.360764470683;330.232176177624
322.382388573287;329.379756327028
322.404012675892;328.569067199078
322.425636778497;327.790848693037
322.447260881102;327.029753201515
322.468884983707;326.287017658079
322.490509086312;325.563889328
322.512133188916;324.861988862618
322.533757291521;324.177110159544
322.555381394126;323.495802400978
322.577005496731;322.815323832511
322.598629599336;322.144862189794
322.620253701941;321.486464019908
322.641877804546;320.831702356513
322.66350190715;320.184464268768
322.685126009755;319.560807790003
322.70675011236;318.950680821715
322.728374214965;318.325588633038
322.74999831757;317.657545727257
322.771622420175;316.96157202535
322.79324652278;316.248152703193
322.814870625384;315.506370632348
322.836494727989;314.717751453624
322.858118830594;313.880120591926
322.879742933199;313.009821528087
322.901367035804;312.128608217783
322.922991138409;311.253607724104
322.944615241014;310.395867919495
322.966239343618;309.529909709569
322.987863446223;308.624254124214
323.009487548828;307.692690551973
323.031111651433;306.759129148812
323.052735754038;305.843119965531
323.074359856643;304.935008876632
323.095983959248;304.00086116021
323.117608061852;303.019088283609
323.139232164457;302.003877837675
323.160856267062;300.998245524409
323.182480369667;300.018638796775
323.204104472272;299.038189247086
323.225728574877;298.04371697076
323.247352677482;297.074787398416
323.268976780086;296.155320666906
323.290600882691;295.260909763028
323.312224985296;294.38656273192
323.333849087901;293.552319594117
323.355473190506;292.760709412026
323.377097293111;292.028818541374
323.398721395715;291.387449306234
323.42034549832;290.82538606874
323.441969600925;290.315529133358
323.46359370353;289.868582540657
323.485217806135;289.502008106063
323.50684190874;289.196326871566
323.528466011345;288.924770840151
323.550090113949;288.669322268192
323.571714216554;288.438485135562
323.593338319159;288.238436226522
323.614962421764;288.057644097192
323.636586524369;287.877396401362
323.658210626974;287.685890671965
323.679834729579;287.480264805996
323.701458832183;287.248201595642
323.723082934788;286.973823544726
323.744707037393;286.655148406386
323.766331139998;286.331498111943
323.787955242603;286.010436904749
323.809579345208;285.652364839137
323.831203447813;285.23446864066
323.852827550417;284.759133404378
323.874451653022;284.236076154747
323.896075755627;283.654500490355
323.917699858232;282.996091532331
323.939323960837;282.246964038693
323.960948063442;281.442724889317
323.982572166047;280.578858296022
324.004196268651;279.655348775229
324.025820371256;278.699235836439
324.047444473861;277.717506650222
324.069068576466;276.682580151656
324.090692679071;275.576488219578
324.112316781676;274.417217535604
324.133940884281;273.241682501629
324.155564986885;272.074537831527
324.17718908949;270.940694265935
324.198813192095;269.829386881118
324.2204372947;268.687396952831
324.242061397305;267.485026096047
324.26368549991;266.266956277103
324.285309602515;265.077718057001
324.306933705119;263.896899285426
324.328557807724;262.670074087754
324.350181910329;261.401646651369
324.371806012934;260.157664163266
324.393430115539;258.947535519158
324.415054218144;257.716315177919
324.436678320748;256.407441214215
324.458302423353;255.062207533407
324.479926525958;253.74260705213
324.501550628563;252.454385245511
324.523174731168;251.174589359501
324.544798833773;249.911172525401
324.566422936378;248.695342514451
324.588047038982;247.533271440966
324.609671141587;246.400628052502
324.631295244192;245.281978998777
324.652919346797;244.204206384228
324.674543449402;243.158693945013
324.696167552007;242.127391962238
324.717791654612;241.118029452509
324.739415757216;240.117209451462
324.761039859821;239.114928946142
324.782663962426;238.108444842177
