Name;ESR_BC_1_7200s_X_gon_60dg_result

Recipe
Accumulations;5;Number of accumulations
RetryCount;0;Number of retries on error
AbortOnError;True;Abort on error
EnableQFactorMeasurement;False;Enable/Disable q-Factor measurement
Bfrom;313;B from
Bto;363;B to
SweepTime;60;Sweep time
Modulation;0.2;Modulation
ModulationFreq;100;Modulation
BHoldEnabled;False;B hold enabled
BHold;0;B hold
MicrowavePower;2;Microwave power
MarkerEnabled;False;
MarkerStartField;0;
MarkerEndField;0;
Mode;;
KineticGFact;0;
KineticTotalTransientTime;0;
KineticTimeResolution;0;
TempFrom;5;
TempUseSlope;False;
TempTo;5;
TempdT;1;
TempSetupTime;0;
GonFrom;0;
GonTo;180;
GonSteps;20;
XRayEnabled;False;
XRayTime;3;
XRayVoltage;40;
XRayCurrent;0.5;
UVEnabled;False;
UVIntensity;0;
UVTime;0;
UVLeadTime;0;
UVWavelength;0;
PowSweepFrom;1;
PowSweepTo;5;
PowSweepSteps;5;
AmpModSweepFrom;0;
AmpModSweepTo;1;
AmpModSweepSteps;10;
ExtTriggerEnabled;False;
ExtTrigLeadTime;0;
ExtTrigOnTime;5;

Meas
BField [mT];MW_Absorption []
313.018158493042;739.114906437294
313.039781201647;738.756892249542
313.061403910253;738.381676915874
313.083026618858;737.993713804452
313.104649327464;737.606744168094
313.126272036069;737.223075800153
313.147894744675;736.837934146056
313.16951745328;736.473920303294
313.191140161886;736.133741397748
313.212762870491;735.795133497451
313.234385579097;735.450519997356
313.256008287702;735.113924658727
313.277630996308;734.789622623513
313.299253704913;734.477158153221
313.320876413519;734.172259205873
313.342499122124;733.861923509819
313.36412183073;733.528184627818
313.385744539335;733.152514169664
313.407367247941;732.724703059722
313.428989956546;732.25199565134
313.450612665152;731.736125212446
313.472235373757;731.169620804642
313.493858082363;730.534855368542
313.515480790968;729.81300484164
313.537103499574;728.993566373461
313.558726208179;728.09261719553
313.580348916784;727.139753366509
313.60197162539;726.176165395757
313.623594333995;725.217230347758
313.645217042601;724.258063640482
313.666839751206;723.312691048892
313.688462459812;722.37195158498
313.710085168417;721.426072001454
313.731707877023;720.443067135654
313.753330585628;719.435515770168
313.774953294234;718.498522057855
313.796576002839;717.663243825102
313.818198711445;716.908033120184
313.83982142005;716.213926987887
313.861444128656;715.56678928373
313.883066837261;714.946993939168
313.904689545867;714.339815276563
313.926312254472;713.707970134227
313.947934963078;713.085502062276
313.969557671683;712.536612419537
313.991180380289;712.017786015591
314.012803088894;711.488403336432
314.0344257975;710.950638746845
314.056048506105;710.444306303757
314.077671214711;709.981372424447
314.099293923316;709.552126286523
314.120916631922;709.151035191423
314.142539340527;708.773905446921
314.164162049133;708.411270229264
314.185784757738;708.052500055339
314.207407466343;707.697401206066
314.229030174949;707.347565592341
314.250652883554;707.001555418647
314.27227559216;706.651207470036
314.293898300765;706.292825532445
314.315521009371;705.942746234347
314.337143717976;705.59444034794
314.358766426582;705.231352130658
314.380389135187;704.854787670475
314.402011843793;704.479730336544
314.423634552398;704.103567993922
314.445257261004;703.719979788663
314.466879969609;703.335502565171
314.488502678215;702.955027319877
314.51012538682;702.584435586449
314.531748095426;702.228459375725
314.553370804031;701.873246753658
314.574993512637;701.507672345117
314.596616221242;701.134972307036
314.618238929848;700.756558777372
314.639861638453;700.35866444951
314.661484347059;699.925698131427
314.683107055664;699.468679906657
314.70472976427;698.994477833341
314.726352472875;698.496077062574
314.747975181481;697.963526510467
314.769597890086;697.381895279762
314.791220598692;696.743660335879
314.812843307297;696.079453479355
314.834466015902;695.413598343181
314.856088724508;694.7303102003
314.877711433113;693.997048229479
314.899334141719;693.231806968707
314.920956850324;692.498559300453
314.94257955893;691.824136819471
314.964202267535;691.197827803182
314.985824976141;690.593057059897
315.007447684746;690.011038183988
315.029070393352;689.505745758663
315.050693101957;689.091386614756
315.072315810563;688.745049869521
315.093938519168;688.44232824056
315.115561227774;688.16591862252
315.137183936379;687.903585555095
315.158806644985;687.679549238419
315.18042935359;687.493734549486
315.202052062196;687.305913967217
315.223674770801;687.082709647041
315.245297479407;686.8155598023
315.266920188012;686.506167572025
315.288542896618;686.15262687874
315.310165605223;685.744783335067
315.331788313829;685.271208487048
315.353411022434;684.724818340635
315.375033731039;684.116523654152
315.396656439645;683.462532917828
315.41827914825;682.784723411473
315.439901856856;682.075818945495
315.461524565461;681.325079009546
315.483147274067;680.531128737065
315.504769982672;679.693141098956
315.526392691278;678.812601024723
315.548015399883;677.890800528803
315.569638108489;676.910804984448
315.591260817094;675.882887951758
315.6128835257;674.828006667591
315.634506234305;673.745674166383
315.656128942911;672.641398692591
315.677751651516;671.492243721744
315.699374360122;670.256625745728
315.720997068727;668.950268608017
315.742619777333;667.60599254686
315.764242485938;666.257832261984
315.785865194544;664.933086449874
315.807487903149;663.637750616557
315.829110611755;662.379738038695
315.85073332036;661.180203550812
315.872356028966;660.0324690421
315.893978737571;658.917049851559
315.915601446176;657.82620389794
315.937224154782;656.774262575876
315.958846863387;655.785160287045
315.980469571993;654.832796448596
316.002092280598;653.884796693126
316.023714989204;652.930037092325
316.045337697809;651.96811790424
316.066960406415;651.014902384064
316.08858311502;650.107828387204
316.110205823626;649.274833716212
316.131828532231;648.496683104883
316.153451240837;647.739382763036
316.175073949442;647.014309948455
316.196696658048;646.344841026447
316.218319366653;645.727254655035
316.239942075259;645.146190507035
316.261564783864;644.615350869789
316.28318749247;644.153131220006
316.304810201075;643.745921041415
316.326432909681;643.368685031821
316.348055618286;642.9967339974
316.369678326892;642.621106045801
316.391301035497;642.252998982658
316.412923744103;641.892544454499
316.434546452708;641.5249784853
316.456169161314;641.131982740327
316.477791869919;640.719210944904
316.499414578525;640.308491169678
316.52103728713;639.901290508989
316.542659995735;639.496245941089
316.564282704341;639.095777245487
316.585905412946;638.694205404856
316.607528121552;638.281171560355
316.629150830157;637.84900241725
316.650773538763;637.397301054764
316.672396247368;636.926975763953
316.694018955974;636.446178236998
316.715641664579;635.97420445705
316.737264373185;635.506262837113
316.75888708179;635.029735011943
316.780509790396;634.539876318669
316.802132499001;634.051775910934
316.823755207607;633.576343734223
316.845377916212;633.099930993931
316.867000624818;632.608951090505
316.888623333423;632.11138646197
316.910246042029;631.607080068222
316.931868750634;631.089782899288
316.95349145924;630.563053574082
316.975114167845;630.037010455541
316.996736876451;629.507990787762
317.018359585056;628.959654723994
317.039982293662;628.382797932596
317.061605002267;627.776722042816
317.083227710873;627.131922297271
317.104850419478;626.443268945153
317.126473128083;625.736642654075
317.148095836689;625.019744585994
317.169718545294;624.285991045576
317.1913412539;623.523711574858
317.212963962505;622.724375327239
317.234586671111;621.901795438086
317.256209379716;621.079392764959
317.277832088322;620.275764140678
317.299454796927;619.494730740986
317.321077505533;618.731419159033
317.342700214138;617.970909520886
317.364322922744;617.242389274049
317.385945631349;616.561523947879
317.407568339955;615.926046133846
317.42919104856;615.33659720385
317.450813757166;614.776792122928
317.472436465771;614.238207222125
317.494059174377;613.719614480093
317.515681882982;613.207137598017
317.537304591588;612.677577044816
317.558927300193;612.115889050151
317.580550008799;611.526546879417
317.602172717404;610.913232909292
317.62379542601;610.267371534047
317.645418134615;609.584246842153
317.66704084322;608.858711677037
317.688663551826;608.076399051856
317.710286260431;607.219767300741
317.731908969037;606.280107656524
317.753531677642;605.263062226915
317.775154386248;604.198675376745
317.796777094853;603.111321916344
317.818399803459;602.001128032209
317.840022512064;600.899770015271
317.86164522067;599.869556914244
317.883267929275;598.904479440487
317.904890637881;597.98542219572
317.926513346486;597.136442593649
317.948136055092;596.38783034894
317.969758763697;595.72317101916
317.991381472303;595.107463571197
318.013004180908;594.51806307085
318.034626889514;593.952563190486
318.056249598119;593.405199398244
318.077872306725;592.859783182592
318.09949501533;592.306479288958
318.121117723936;591.738731119293
318.142740432541;591.159549073123
318.164363141147;590.582390900739
318.185985849752;589.987486206879
318.207608558358;589.339878631483
318.229231266963;588.637149000675
318.250853975568;587.899076550538
318.272476684174;587.143015720419
318.294099392779;586.37613337677
318.315722101385;585.597500914548
318.33734480999;584.788138543755
318.358967518596;583.925310038151
318.380590227201;583.033512911858
318.402212935807;582.158087390674
318.423835644412;581.327535364702
318.445458353018;580.550920066334
318.467081061623;579.821775914258
318.488703770229;579.139381035882
318.510326478834;578.513875092383
318.53194918744;577.943072717748
318.553571896045;577.427851319556
318.575194604651;576.974864797752
318.596817313256;576.586146987907
318.618440021862;576.257441467604
318.640062730467;575.977745905466
318.661685439073;575.739981899637
318.683308147678;575.542129261632
318.704930856284;575.380404571292
318.726553564889;575.257918198082
318.748176273495;575.171213245197
318.7697989821;575.094567293975
318.791421690706;575.00250912232
318.813044399311;574.887971723245
318.834667107917;574.735792127577
318.856289816522;574.527363801655
318.877912525127;574.24898455379
318.899535233733;573.886798415393
318.921157942338;573.4287951589
318.942780650944;572.864382155216
318.964403359549;572.185049078245
318.986026068155;571.398082152532
319.00764877676;570.52283663379
319.029271485366;569.579410820837
319.050894193971;568.576471468666
319.072516902577;567.479631321411
319.094139611182;566.299166471344
319.115762319788;565.086987044433
319.137385028393;563.845270844525
319.159007736999;562.549543640019
319.180630445604;561.206779897381
319.20225315421;559.855916578595
319.223875862815;558.511358925629
319.245498571421;557.191464369806
319.267121280026;555.900815176786
319.288743988632;554.636917964556
319.310366697237;553.408260616213
319.331989405843;552.243724338688
319.353612114448;551.155424057861
319.375234823054;550.145114645015
319.396857531659;549.218587534706
319.418480240265;548.35736141259
319.44010294887;547.527426798456
319.461725657475;546.720400692126
319.483348366081;545.993077034757
319.504971074686;545.34496476798
319.526593783292;544.739525167351
319.548216491897;544.161942611182
319.569839200503;543.613370858649
319.591461909108;543.094741072379
319.613084617714;542.600562704534
319.634707326319;542.114305475555
319.656330034925;541.644535089058
319.67795274353;541.206332797018
319.699575452136;540.790528903198
319.721198160741;540.39805389776
319.742820869347;540.031252822737
319.764443577952;539.690653935814
319.786066286558;539.371540960932
319.807688995163;539.071084174369
319.829311703769;538.769569560183
319.850934412374;538.445426144307
319.87255712098;538.092017073801
319.894179829585;537.734642412569
319.915802538191;537.397190745299
319.937425246796;537.074096706369
319.959047955402;536.757430999617
319.980670664007;536.446560566893
320.002293372612;536.142844089628
320.023916081218;535.84131993638
320.045538789823;535.544742789682
320.067161498429;535.27723629241
320.088784207034;535.057626799419
320.11040691564;534.883416770583
320.132029624245;534.74965366227
320.153652332851;534.655999201564
320.175275041456;534.602312188859
320.196897750062;534.581720658408
320.218520458667;534.585011990663
320.240143167273;534.608256468961
320.261765875878;534.641805170539
320.283388584484;534.662566609211
320.305011293089;534.64084859762
320.326634001695;534.553526603775
320.3482567103;534.379506630448
320.369879418906;534.084444763499
320.391502127511;533.650813088526
320.413124836117;533.079359108054
320.434747544722;532.349750287364
320.456370253328;531.420389404492
320.477992961933;530.289036862127
320.499615670539;528.959382848211
320.521238379144;527.445214876111
320.54286108775;525.777138011142
320.564483796355;523.994397610024
320.58610650496;522.120849904096
320.607729213566;520.152891788205
320.629351922171;518.116748201074
320.650974630777;516.174465256004
320.672597339382;514.341625469246
320.694220047988;512.559427570191
320.715842756593;510.833247242118
320.737465465199;509.265413668096
320.759088173804;507.896637438571
320.78071088241;506.700106117294
320.802333591015;505.643154091156
320.823956299621;504.710107402712
320.845579008226;503.872522325472
320.867201716832;503.087712734168
320.888824425437;502.289269096695
320.910447134043;501.473357781789
320.932069842648;500.659004230596
320.953692551254;499.828952490956
320.975315259859;498.945366646108
320.996937968465;497.964899217749
321.01856067707;496.87424447683
321.040183385676;495.713935062698
321.061806094281;494.530749335547
321.083428802887;493.309852138663
321.105051511492;492.034935895418
321.126674220098;490.693665006764
321.148296928703;489.281618894755
321.169919637309;487.822275467126
321.191542345914;486.373077124526
321.213165054519;484.954791835942
321.234787763125;483.55519808066
321.25641047173;482.189600273916
321.278033180336;480.9011018656
321.299655888941;479.720854001807
321.321278597547;478.659841371618
321.342901306152;477.717939622733
321.364524014758;476.91519978671
321.386146723363;476.260528868864
321.407769431969;475.740005839687
321.429392140574;475.337659981976
321.45101484918;475.041152521512
321.472637557785;474.832417863585
321.494260266391;474.693327822
321.515882974996;474.61127070893
321.537505683602;474.575989321916
321.559128392207;474.568890265117
321.580751100813;474.559719008907
321.602373809418;474.521828936832
321.623996518024;474.449479930364
321.645619226629;474.345444805491
321.667241935235;474.206689520846
321.68886464384;474.033134433096
321.710487352446;473.826714529967
321.732110061051;473.584495178575
321.753732769656;473.305238984944
321.775355478262;472.99763329018
321.796978186867;472.670059404144
321.818600895473;472.324110394997
321.840223604078;471.958292385285
321.861846312684;471.568584728462
321.883469021289;471.156401825855
321.905091729895;470.72647760003
321.9267144385;470.274920708205
321.948337147106;469.801319028556
321.969959855711;469.305745516321
321.991582564317;468.775709300183
322.013205272922;468.207611436927
322.034827981528;467.603427473308
322.056450690133;466.959478586674
322.078073398739;466.27975844828
322.099696107344;465.570969919797
322.12131881595;464.832616441539
322.142941524555;464.067092976569
322.164564233161;463.267667546648
322.186186941766;462.427724089123
322.207809650372;461.555994292493
322.229432358977;460.67402431829
322.251055067583;459.789048447989
322.272677776188;458.903387021176
322.294300484794;458.033849106216
322.315923193399;457.210291176895
322.337545902004;456.416896666152
322.35916861061;455.6086523614
322.380791319215;454.779975675952
322.402414027821;453.970236154062
322.424036736426;453.197704196007
322.445659445032;452.428589334839
322.467282153637;451.65203046454
322.488904862243;450.900360175421
322.510527570848;450.190259117182
322.532150279454;449.496158873074
322.553772988059;448.791482815858
322.575395696665;448.049392844147
322.59701840527;447.275927672829
322.618641113876;446.494159634201
322.640263822481;445.719172430225
322.661886531087;444.960376224352
322.683509239692;444.190054382136
322.705131948298;443.386037357913
322.726754656903;442.543405672093
322.748377365509;441.682446351612
322.770000074114;440.828607869153
322.79162278272;439.960041133295
322.813245491325;439.053100502137
322.834868199931;438.113683945498
322.856490908536;437.176032943309
322.878113617142;436.268192370808
322.899736325747;435.399958875279
322.921359034352;434.544815518717
322.942981742958;433.697672451886
322.964604451563;432.877287465141
322.986227160169;432.074611798312
323.007849868774;431.274352602537
323.02947257738;430.448611636592
323.051095285985;429.622016732449
323.072717994591;428.815959811519
323.094340703196;428.033177311075
323.115963411802;427.283527948426
323.137586120407;426.571127977407
323.159208829013;425.879344037262
323.180831537618;425.184237929932
323.202454246224;424.471392976452
323.224076954829;423.72281667111
323.245699663435;422.961298785868
323.26732237204;422.209053089103
323.288945080646;421.458664567146
323.310567789251;420.690150646732
323.332190497857;419.916118730763
323.353813206462;419.16714953744
323.375435915068;418.446592682685
323.397058623673;417.708565174352
323.418681332279;416.938698576632
323.440304040884;416.165636061802
323.46192674949;415.394295744888
323.483549458095;414.607462536916
323.505172166701;413.80051483106
323.526794875306;412.982171163133
323.548417583911;412.165659982231
323.570040292517;411.363096146031
323.591663001122;410.571839188709
323.613285709728;409.789129475003
323.634908418333;409.030846428537
323.656531126939;408.305397605587
323.678153835544;407.599758665269
323.69977654415;406.901367812051
323.721399252755;406.241494786146
323.743021961361;405.641489688557
323.764644669966;405.090622966378
323.786267378572;404.582468989938
323.807890087177;404.095156454077
323.829512795783;403.603080663909
323.851135504388;403.094027372779
323.872758212994;402.567799136461
323.894380921599;402.022637375821
323.916003630205;401.457163838585
323.93762633881;400.879461652098
323.959249047416;400.282292596027
323.980871756021;399.644165870249
324.002494464627;398.94340290868
324.024117173232;398.181076194961
324.045739881838;397.39470764389
324.067362590443;396.638684445261
324.088985299048;395.906466805929
324.110608007654;395.170944100929
324.132230716259;394.424307990989
324.153853424865;393.680281139521
324.17547613347;392.943378422039
324.197098842076;392.210964665016
324.218721550681;391.486514727345
324.240344259287;390.784412340087
324.261966967892;390.095993995048
324.283589676498;389.412922187467
324.305212385103;388.731855985809
324.326835093709;388.038763769058
324.348457802314;387.310174721394
324.37008051092;386.536232187319
324.391703219525;385.728979346042
324.413325928131;384.885181028153
324.434948636736;383.960320058783
324.456571345342;382.927924491477
324.478194053947;381.851950021434
324.499816762553;380.75630450795
324.521439471158;379.621476939503
324.543062179764;378.418929301462
324.564684888369;377.110044780859
324.586307596975;375.68617534724
324.60793030558;374.196546589031
324.629553014186;372.675681870793
324.651175722791;371.103221116557
324.672798431396;369.436397976376
324.694421140002;367.623544793545
324.716043848607;365.685143846893
324.737666557213;363.695800764532
324.759289265818;361.68550219973
324.780911974424;359.606353664582
