Name;ESR_BC_1_3600s_Y_gon_100dg_result

Recipe
Accumulations;5;Number of accumulations
RetryCount;0;Number of retries on error
AbortOnError;True;Abort on error
EnableQFactorMeasurement;False;Enable/Disable q-Factor measurement
Bfrom;313;B from
Bto;363;B to
SweepTime;60;Sweep time
Modulation;0.2;Modulation
ModulationFreq;100;Modulation
BHoldEnabled;False;B hold enabled
BHold;0;B hold
MicrowavePower;2;Microwave power
MarkerEnabled;False;
MarkerStartField;0;
MarkerEndField;0;
Mode;;
KineticGFact;0;
KineticTotalTransientTime;0;
KineticTimeResolution;0;
TempFrom;5;
TempUseSlope;False;
TempTo;5;
TempdT;1;
TempSetupTime;0;
GonFrom;0;
GonTo;180;
GonSteps;20;
XRayEnabled;False;
XRayTime;3;
XRayVoltage;40;
XRayCurrent;0.5;
UVEnabled;False;
UVIntensity;0;
UVTime;0;
UVLeadTime;0;
UVWavelength;0;
PowSweepFrom;1;
PowSweepTo;5;
PowSweepSteps;5;
AmpModSweepFrom;0;
AmpModSweepTo;1;
AmpModSweepSteps;10;
ExtTriggerEnabled;False;
ExtTrigLeadTime;0;
ExtTrigOnTime;5;

Meas
BField [mT];MW_Absorption []
313.014367141724;173.259064400658
313.035988827041;172.501820701816
313.057610512358;171.670797229615
313.079232197674;170.796183045682
313.100853882991;169.899444581999
313.122475568308;168.981097641034
313.144097253625;168.034292161076
313.165718938942;167.084386445331
313.187340624259;166.16577654424
313.208962309576;165.289481882496
313.230583994893;164.434281533687
313.25220568021;163.646414514824
313.273827365527;162.957592453336
313.295449050844;162.354938770209
313.317070736161;161.853281468825
313.338692421478;161.493480400093
313.360314106795;161.277087024122
313.381935792112;161.171247855087
313.403557477429;161.150265799269
313.425179162746;161.201700861047
313.446800848063;161.314651966015
313.468422533379;161.476860374349
313.490044218696;161.678853962044
313.511665904013;161.907772417794
313.53328758933;162.131658527939
313.554909274647;162.328179665639
313.576530959964;162.492220863509
313.598152645281;162.62480120127
313.619774330598;162.7272900511
313.641396015915;162.795084339602
313.663017701232;162.833639205268
313.684639386549;162.85442616307
313.706261071866;162.863079234456
313.727882757183;162.86391442736
313.7495044425;162.867662607435
313.771126127817;162.887710699459
313.792747813134;162.927453386623
313.814369498451;162.989667188412
313.835991183767;163.077246561185
313.857612869084;163.184061334959
313.879234554401;163.291148405425
313.900856239718;163.393507697402
313.922477925035;163.501158112023
313.944099610352;163.611781415178
313.965721295669;163.71344438463
313.987342980986;163.791699540419
314.008964666303;163.83478886157
314.03058635162;163.84057276164
314.052208036937;163.821319323832
314.073829722254;163.782477374024
314.095451407571;163.723682783062
314.117073092888;163.641941175269
314.138694778205;163.522927226486
314.160316463522;163.366727964172
314.181938148839;163.19269144589
314.203559834156;163.009131494294
314.225181519472;162.816622558353
314.246803204789;162.608873672001
314.268424890106;162.388214828546
314.290046575423;162.168980553514
314.31166826074;161.950066769235
314.333289946057;161.724004893387
314.354911631374;161.492963824276
314.376533316691;161.263344413337
314.398155002008;161.038697670142
314.419776687325;160.821236577068
314.441398372642;160.621123984553
314.463020057959;160.444157869746
314.484641743276;160.289506780926
314.506263428593;160.152924561357
314.52788511391;160.030809104616
314.549506799227;159.914182803091
314.571128484544;159.781992562932
314.59275016986;159.628135614314
314.614371855177;159.465223997354
314.635993540494;159.295220929909
314.657615225811;159.115294559756
314.679236911128;158.919513225551
314.700858596445;158.708767088127
314.722480281762;158.485735726227
314.744101967079;158.250620054374
314.765723652396;158.005096694893
314.787345337713;157.746335410982
314.80896702303;157.462450524428
314.830588708347;157.135755524308
314.852210393664;156.766438897626
314.873832078981;156.378649223847
314.895453764298;155.98232307115
314.917075449615;155.579480750437
314.938697134932;155.183938487119
314.960318820249;154.816163340925
314.981940505565;154.479927062771
315.003562190882;154.175928009158
315.025183876199;153.908376397997
315.046805561516;153.679655253475
315.068427246833;153.490040154528
315.09004893215;153.352160152798
315.111670617467;153.276175536515
315.133292302784;153.255031871788
315.154913988101;153.286709950548
315.176535673418;153.370482762039
315.198157358735;153.503701179502
315.219779044052;153.668499542524
315.241400729369;153.849000429581
315.263022414686;154.03919033665
315.284644100003;154.229570485872
315.30626578532;154.402357340015
315.327887470637;154.54587031664
315.349509155954;154.646504893675
315.37113084127;154.692088164022
315.392752526587;154.688860921608
315.414374211904;154.640458958831
315.435995897221;154.537921797766
315.457617582538;154.380316125725
315.479239267855;154.170983420587
315.500860953172;153.91956107278
315.522482638489;153.652617938592
315.544104323806;153.378052123765
315.565726009123;153.086832841427
315.58734769444;152.775419341986
315.608969379757;152.478069628186
315.630591065074;152.208832344658
315.652212750391;151.953246012073
315.673834435708;151.698980324628
315.695456121025;151.451836756161
315.717077806342;151.224018088041
315.738699491659;151.007155496433
315.760321176975;150.786221215224
315.781942862292;150.548385719921
315.803564547609;150.283639699655
315.825186232926;149.982915153119
315.846807918243;149.658470105073
315.86842960356;149.316390471926
315.890051288877;148.955393693661
315.911672974194;148.571638873073
315.933294659511;148.154789543795
315.954916344828;147.709116255659
315.976538030145;147.283550420732
315.998159715462;146.910358389147
316.019781400779;146.578269783242
316.041403086096;146.272419312036
316.063024771413;145.99285247384
316.08464645673;145.751839096417
316.106268142047;145.560064171537
316.127889827364;145.429666475935
316.14951151268;145.359418490281
316.171133197997;145.333508066518
316.192754883314;145.340931932268
316.214376568631;145.371106694444
316.235998253948;145.409441810826
316.257619939265;145.448718079814
316.279241624582;145.489931339392
316.300863309899;145.522869606619
316.322484995216;145.532536761631
316.344106680533;145.515101707373
316.36572836585;145.463860254333
316.387350051167;145.365871326405
316.408971736484;145.21865741294
316.430593421801;145.038173854265
316.452215107118;144.837528098648
316.473836792435;144.608262818668
316.495458477752;144.351140455453
316.517080163069;144.058525463171
316.538701848385;143.721484025404
316.560323533702;143.345098713259
316.581945219019;142.937116338832
316.603566904336;142.492598686008
316.625188589653;142.016630443657
316.64681027497;141.533590267026
316.668431960287;141.074264977133
316.690053645604;140.6539189679
316.711675330921;140.271983672326
316.733297016238;139.922624456913
316.754918701555;139.602255914418
316.776540386872;139.319074749552
316.798162072189;139.093213163742
316.819783757506;138.933215495605
316.841405442823;138.842700521528
316.86302712814;138.816133593616
316.884648813457;138.829739188546
316.906270498773;138.867409158927
316.92789218409;138.937902075109
316.949513869407;139.046792766034
316.971135554724;139.186125566183
316.992757240041;139.342157515165
317.014378925358;139.506603702423
317.036000610675;139.675000235848
317.057622295992;139.83785513859
317.079243981309;139.984142998271
317.100865666626;140.115225451111
317.122487351943;140.232609016789
317.14410903726;140.323722533032
317.165730722577;140.376356019334
317.187352407894;140.396733231741
317.208974093211;140.397358052455
317.230595778528;140.385865130575
317.252217463845;140.363931426432
317.273839149161;140.328863501715
317.295460834478;140.280182250609
317.317082519795;140.219263408159
317.338704205112;140.157776178627
317.360325890429;140.098974605277
317.381947575746;140.040789180562
317.403569261063;139.981356899919
317.42519094638;139.914760069316
317.446812631697;139.836335370572
317.468434317014;139.745822547083
317.490056002331;139.642092207299
317.511677687648;139.522120581435
317.533299372965;139.388457622043
317.554921058282;139.24415792937
317.576542743599;139.081348825681
317.598164428916;138.894087086098
317.619786114233;138.687305681013
317.64140779955;138.473122345629
317.663029484866;138.246509826812
317.684651170183;138.007233630215
317.7062728555;137.792653299843
317.727894540817;137.625003817965
317.749516226134;137.500859132807
317.771137911451;137.424461907475
317.792759596768;137.403783935306
317.814381282085;137.440185712616
317.836002967402;137.533563685575
317.857624652719;137.681925909245
317.879246338036;137.875083486468
317.900868023353;138.099908394134
317.92248970867;138.346491592833
317.944111393987;138.599587314304
317.965733079304;138.845290671598
317.987354764621;139.077363822485
318.008976449938;139.292892754601
318.030598135254;139.485943298182
318.052219820571;139.649035258675
318.073841505888;139.779099240401
318.095463191205;139.878043464425
318.117084876522;139.953783593949
318.138706561839;140.012286205952
318.160328247156;140.053832726994
318.181949932473;140.07808745411
318.20357161779;140.089892842363
318.225193303107;140.089363665381
318.246814988424;140.074432149354
318.268436673741;140.046553493733
318.290058359058;140.005204707981
318.311680044375;139.947518758296
318.333301729692;139.869610989727
318.354923415009;139.768305662573
318.376545100326;139.637041949058
318.398166785643;139.468769111896
318.419788470959;139.267984414035
318.441410156276;139.045055567385
318.463031841593;138.795815305347
318.48465352691;138.502769632565
318.506275212227;138.16297782548
318.527896897544;137.806674261933
318.549518582861;137.452483145353
318.571140268178;137.090784186105
318.592761953495;136.710672081438
318.614383638812;136.31526612111
318.636005324129;135.917814258172
318.657627009446;135.523212935177
318.679248694763;135.124835475861
318.70087038008;134.718865736706
318.722492065397;134.311041686578
318.744113750714;133.899692128047
318.765735436031;133.481497617964
318.787357121348;133.067845953563
318.808978806664;132.670462733872
318.830600491981;132.297786628503
318.852222177298;131.967943206819
318.873843862615;131.686464814588
318.895465547932;131.444162116679
318.917087233249;131.239312904014
318.938708918566;131.077781199966
318.960330603883;130.962201277273
318.9819522892;130.878004789461
319.003573974517;130.815240657159
319.025195659834;130.76282960079
319.046817345151;130.706510589075
319.068439030468;130.648418365494
319.090060715785;130.587537116783
319.111682401102;130.512711336789
319.133304086419;130.415671555729
319.154925771736;130.284105645802
319.176547457052;130.113749041132
319.198169142369;129.929604774006
319.219790827686;129.749270303738
319.241412513003;129.559802600828
319.26303419832;129.35365550805
319.284655883637;129.133819131424
319.306277568954;128.909123621315
319.327899254271;128.696396977773
319.349520939588;128.501252831205
319.371142624905;128.315152165379
319.392764310222;128.130533522325
319.414385995539;127.955702924459
319.436007680856;127.79959272507
319.457629366173;127.658696309182
319.47925105149;127.526429965756
319.500872736807;127.40597400874
319.522494422124;127.301390866987
319.544116107441;127.209921740729
319.565737792757;127.123950051122
319.587359478074;127.038464788114
319.608981163391;126.951470977104
319.630602848708;126.860140227384
319.652224534025;126.759477892605
319.673846219342;126.643077474194
319.695467904659;126.505716815572
319.717089589976;126.332155761293
319.738711275293;126.112683791872
319.76033296061;125.856815651178
319.781954645927;125.576965661766
319.803576331244;125.28024127953
319.825198016561;124.973051848303
319.846819701878;124.654766359893
319.868441387195;124.315247674923
319.890063072512;123.968542873388
319.911684757829;123.63835431881
319.933306443146;123.323849661771
319.954928128462;123.027782635294
319.976549813779;122.760398571204
319.998171499096;122.531724764115
320.019793184413;122.340904043841
320.04141486973;122.179405585768
320.063036555047;122.041581271414
320.084658240364;121.925484647514
320.106279925681;121.825104523685
320.127901610998;121.734876098123
320.149523296315;121.635973311021
320.171144981632;121.510955210973
320.192766666949;121.361858722862
320.214388352266;121.202806744051
320.236010037583;121.042854293105
320.2576317229;120.883917527613
320.279253408217;120.727631827036
320.300875093534;120.577560686774
320.322496778851;120.44095071976
320.344118464167;120.327601598893
320.365740149484;120.244860733433
320.387361834801;120.200494903042
320.408983520118;120.19772220865
320.430605205435;120.225125443796
320.452226890752;120.276140745313
320.473848576069;120.350839386143
320.495470261386;120.446098511357
320.517091946703;120.557153685842
320.53871363202;120.676685743253
320.560335317337;120.793343409813
320.581957002654;120.906643601986
320.603578687971;121.025159882561
320.625200373288;121.147469840886
320.646822058605;121.274122417006
320.668443743922;121.404366832718
320.690065429239;121.533293245411
320.711687114556;121.655489847997
320.733308799872;121.767553287694
320.754930485189;121.862832660981
320.776552170506;121.929129811735
320.798173855823;121.96423315054
320.81979554114;121.96854399771
320.841417226457;121.945196580798
320.863038911774;121.897389329154
320.884660597091;121.832584518029
320.906282282408;121.759816252365
320.927903967725;121.685120349699
320.949525653042;121.611815934472
320.971147338359;121.546402232083
320.992769023676;121.495979926535
321.014390708993;121.458424352227
321.03601239431;121.423460865477
321.057634079627;121.381703967452
321.079255764944;121.331793921604
321.10087745026;121.28305578632
321.122499135577;121.239428328232
321.144120820894;121.190995603954
321.165742506211;121.121706952786
321.187364191528;121.023572753996
321.208985876845;120.90125123161
321.230607562162;120.764911287069
321.252229247479;120.617467770087
321.273850932796;120.458417252358
321.295472618113;120.286115232337
321.31709430343;120.099023127173
321.338715988747;119.90787847618
321.360337674064;119.728451479897
321.381959359381;119.559280180466
321.403581044698;119.393139695977
321.425202730015;119.224319830239
321.446824415332;119.052159452308
321.468446100649;118.872008253649
321.490067785965;118.675612251719
321.511689471282;118.450681804155
321.533311156599;118.187787363202
321.554932841916;117.898003174351
321.576554527233;117.595583746004
321.59817621255;117.279863528514
321.619797897867;116.952967667948
321.641419583184;116.637070718895
321.663041268501;116.340555824233
321.684662953818;116.05910286461
321.706284639135;115.786126268552
321.727906324452;115.518179703366
321.749528009769;115.257604831031
321.771149695086;115.016911843885
321.792771380403;114.795001023179
321.81439306572;114.572304801698
321.836014751037;114.332456455465
321.857636436353;114.071690335528
321.87925812167;113.785644838127
321.900879806987;113.463590936201
321.922501492304;113.09776501595
321.944123177621;112.690793990846
321.965744862938;112.253809143625
321.987366548255;111.796584264729
322.008988233572;111.323956385969
322.030609918889;110.840179004231
322.052231604206;110.335821039339
322.073853289523;109.816243856962
322.09547497484;109.329884108469
322.117096660157;108.894766630862
322.138718345474;108.50471766468
322.160340030791;108.145464110474
322.181961716108;107.810215491398
322.203583401425;107.49730840904
322.225205086741;107.213481498969
322.246826772058;106.948845483606
322.268448457375;106.705087145058
322.290070142692;106.512350470235
322.311691828009;106.367974332865
322.333313513326;106.253459921452
322.354935198643;106.161837732359
322.37655688396;106.092903360399
322.398178569277;106.046783514764
322.419800254594;106.026640709348
322.441421939911;106.033220502586
322.463043625228;106.048792360285
322.484665310545;106.066067997143
322.506286995862;106.084197706064
322.527908681179;106.098133466753
322.549530366496;106.099413244667
322.571152051813;106.071221732368
322.59277373713;106.000207429573
322.614395422446;105.881291283723
322.636017107763;105.708348323731
322.65763879308;105.479619002456
322.679260478397;105.207159491809
322.700882163714;104.90684032761
322.722503849031;104.591988746644
322.744125534348;104.268582377088
322.765747219665;103.935374569482
322.787368904982;103.595218323012
322.808990590299;103.276731749304
322.830612275616;103.011940572978
322.852233960933;102.809582103214
322.87385564625;102.669359751156
322.895477331567;102.59641424273
322.917099016884;102.596046920577
322.938720702201;102.660748375103
322.960342387518;102.786932962534
322.981964072835;102.977788300706
323.003585758151;103.219186651634
323.025207443468;103.474796669267
323.046829128785;103.731268994649
323.068450814102;103.986559637487
323.090072499419;104.228984730491
323.111694184736;104.440109901938
323.133315870053;104.614753481013
323.15493755537;104.741255798353
323.176559240687;104.808500505201
323.198180926004;104.817376684311
323.219802611321;104.77325460258
323.241424296638;104.674862851629
323.263045981955;104.51377188602
323.284667667272;104.288180722513
323.306289352589;104.015758161445
323.327911037906;103.7212982628
323.349532723223;103.411230440059
323.37115440854;103.075874560372
323.392776093856;102.695893968277
323.414397779173;102.267749421563
323.43601946449;101.826765469222
323.457641149807;101.39728131061
323.479262835124;100.989550607246
323.500884520441;100.613240621122
323.522506205758;100.274092492786
323.544127891075;99.9743180721272
323.565749576392;99.7260616285756
323.587371261709;99.5365239438092
323.608992947026;99.39609302834
323.630614632343;99.28823310399
323.65223631766;99.2008858539194
323.673858002977;99.1278898222516
323.695479688294;99.0715247086258
323.717101373611;99.0231303395686
323.738723058928;98.9646143383565
323.760344744244;98.8855827912541
323.781966429561;98.7925234297668
323.803588114878;98.6905218475833
323.825209800195;98.5674570715731
323.846831485512;98.4241142395818
323.868453170829;98.2704134966462
323.890074856146;98.1221282631372
323.911696541463;97.9950391699808
323.93331822678;97.8893681803121
323.954939912097;97.7989523360889
323.976561597414;97.7230928495332
323.998183282731;97.6627043173843
324.019804968048;97.6112225048809
324.041426653365;97.545466414183
324.063048338682;97.4567492502045
324.084670023999;97.3495129912132
324.106291709316;97.2170099010819
324.127913394633;97.042754496218
324.149535079949;96.8155106240514
324.171156765266;96.5345658287094
324.192778450583;96.2109901746396
324.2144001359;95.8535196726316
324.236021821217;95.4653724419438
324.257643506534;95.0543242479534
324.279265191851;94.6234844190209
324.300886877168;94.1883585172754
324.322508562485;93.7849393283913
324.344130247802;93.4205808800777
324.365751933119;93.0957587690781
324.387373618436;92.8303246205625
324.408995303753;92.6239520167531
324.43061698907;92.4645465888402
324.452238674387;92.3415422447773
324.473860359704;92.2444740098019
324.495482045021;92.1591832801266
324.517103730338;92.0743424687919
324.538725415654;91.9869378270141
324.560347100971;91.8900611233775
324.581968786288;91.7727623035368
324.603590471605;91.6263313942332
324.625212156922;91.4535435086328
324.646833842239;91.2593343466505
324.668455527556;91.0429826111943
324.690077212873;90.8035661354984
324.71169889819;90.5460430143648
324.733320583507;90.2831272814399
324.754942268824;90.0239080038253
