Name;ESR_BC_1_14400s_X_gon_180dg_result

Recipe
Accumulations;5;Number of accumulations
RetryCount;0;Number of retries on error
AbortOnError;True;Abort on error
EnableQFactorMeasurement;False;Enable/Disable q-Factor measurement
Bfrom;313;B from
Bto;363;B to
SweepTime;60;Sweep time
Modulation;0.2;Modulation
ModulationFreq;100;Modulation
BHoldEnabled;False;B hold enabled
BHold;0;B hold
MicrowavePower;2;Microwave power
MarkerEnabled;False;
MarkerStartField;0;
MarkerEndField;0;
Mode;;
KineticGFact;0;
KineticTotalTransientTime;0;
KineticTimeResolution;0;
TempFrom;5;
TempUseSlope;False;
TempTo;5;
TempdT;1;
TempSetupTime;0;
GonFrom;0;
GonTo;180;
GonSteps;20;
XRayEnabled;False;
XRayTime;3;
XRayVoltage;40;
XRayCurrent;0.5;
UVEnabled;False;
UVIntensity;0;
UVTime;0;
UVLeadTime;0;
UVWavelength;0;
PowSweepFrom;1;
PowSweepTo;5;
PowSweepSteps;5;
AmpModSweepFrom;0;
AmpModSweepTo;1;
AmpModSweepSteps;10;
ExtTriggerEnabled;False;
ExtTrigLeadTime;0;
ExtTrigOnTime;5;

Meas
BField [mT];MW_Absorption []
313.02150970459;554.874292069108
313.043124241583;554.531316798681
313.064738778577;554.130138312007
313.08635331557;553.666459487378
313.107967852564;553.152110434958
313.129582389558;552.608715707343
313.151196926551;552.03449908806
313.172811463545;551.420154927592
313.194426000538;550.764765227668
313.216040537532;550.096119684971
313.237655074525;549.410152286993
313.259269611519;548.692286184515
313.280884148512;547.934461759214
313.302498685506;547.139977455191
313.324113222499;546.318400632252
313.345727759493;545.485785209275
313.367342296486;544.659689873271
313.38895683348;543.836608208776
313.410571370474;542.987582849092
313.432185907467;542.099440196653
313.453800444461;541.186677733296
313.475414981454;540.296509095553
313.497029518448;539.448390513725
313.518644055441;538.636538502623
313.540258592435;537.864944331556
313.561873129428;537.126950607512
313.583487666422;536.419986067738
313.605102203415;535.74280220917
313.626716740409;535.102972155207
313.648331277402;534.477889375651
313.669945814396;533.854778060821
313.69156035139;533.24208558098
313.713174888383;532.641287556443
313.734789425377;532.063724272695
313.75640396237;531.512557767339
313.778018499364;530.959549109041
313.799633036357;530.378884319553
313.821247573351;529.761920467234
313.842862110344;529.131332864429
313.864476647338;528.514958676216
313.886091184331;527.937621824727
313.907705721325;527.402740085198
313.929320258318;526.894110385249
313.950934795312;526.403396871802
313.972549332306;525.935264150593
313.994163869299;525.483195073553
314.015778406293;525.026492702622
314.037392943286;524.558122322438
314.05900748028;524.082449392933
314.080622017273;523.590349376511
314.102236554267;523.065086682616
314.12385109126;522.512236402333
314.145465628254;521.931277787417
314.167080165247;521.314654005422
314.188694702241;520.673330352044
314.210309239234;520.026357084562
314.231923776228;519.379845306193
314.253538313222;518.742785281595
314.275152850215;518.116616840875
314.296767387209;517.506152053428
314.318381924202;516.922080708022
314.339996461196;516.357173219118
314.361610998189;515.806509858186
314.383225535183;515.285992522647
314.404840072176;514.802806262892
314.42645460917;514.332754409617
314.448069146163;513.85359605572
314.469683683157;513.369526711193
314.49129822015;512.874158584498
314.512912757144;512.350854065068
314.534527294137;511.816061691631
314.556141831131;511.30336899729
314.577756368125;510.806668207651
314.599370905118;510.31461085992
314.620985442112;509.808810193129
314.642599979105;509.257636855653
314.664214516099;508.68685735715
314.685829053092;508.131815761326
314.707443590086;507.591661669993
314.729058127079;507.058104403815
314.750672664073;506.505188484791
314.772287201066;505.90574293961
314.79390173806;505.255353075816
314.815516275053;504.560993730143
314.837130812047;503.831007196358
314.858745349041;503.048775330296
314.880359886034;502.194536971027
314.901974423028;501.294810043212
314.923588960021;500.387516461824
314.945203497015;499.482052080176
314.966818034008;498.567137229337
314.988432571002;497.632378721533
315.010047107995;496.7029405904
315.031661644989;495.828924154704
315.053276181982;495.052842124625
315.074890718976;494.39913165941
315.096505255969;493.857980466209
315.118119792963;493.408183326968
315.139734329957;493.03733389228
315.16134886695;492.742427577759
315.182963403944;492.524746315381
315.204577940937;492.37352521324
315.226192477931;492.271102796556
315.247807014924;492.203463133599
315.269421551918;492.153579364432
315.291036088911;492.098979778458
315.312650625905;492.023602251483
315.334265162898;491.924698814501
315.355879699892;491.805663549321
315.377494236885;491.657969377941
315.399108773879;491.471130031042
315.420723310873;491.231465897711
315.442337847866;490.919742919995
315.46395238486;490.532241598322
315.485566921853;490.070313632984
315.507181458847;489.535882381274
315.52879599584;488.922493978875
315.550410532834;488.201150099962
315.572025069827;487.362225152904
315.593639606821;486.423321756216
315.615254143814;485.399470982717
315.636868680808;484.301770734222
315.658483217801;483.149195125677
315.680097754795;481.947246249199
315.701712291789;480.731705451978
315.723326828782;479.534181554197
315.744941365776;478.388575762709
315.766555902769;477.325564015171
315.788170439763;476.359132805997
315.809784976756;475.497609089733
315.83139951375;474.757842352796
315.853014050743;474.149331704649
315.874628587737;473.644878342762
315.89624312473;473.222451171853
315.917857661724;472.876253912288
315.939472198717;472.599321969167
315.961086735711;472.377976887454
315.982701272705;472.191772841292
316.004315809698;472.015814688299
316.025930346692;471.831056905775
316.047544883685;471.632528882135
316.069159420679;471.4205117765
316.090773957672;471.192319108935
316.112388494666;470.936564445443
316.134003031659;470.650040532773
316.155617568653;470.348959661974
316.177232105646;470.050279715856
316.19884664264;469.748304762453
316.220461179633;469.42719905056
316.242075716627;469.077359964664
316.263690253621;468.715755850125
316.285304790614;468.361262104678
316.306919327608;468.005196918838
316.328533864601;467.6342341142
316.350148401595;467.260245034957
316.371762938588;466.898363301493
316.393377475582;466.551165242401
316.414992012575;466.214403179472
316.436606549569;465.885767593775
316.458221086562;465.563086446145
316.479835623556;465.251718967389
316.501450160549;464.953929793752
316.523064697543;464.663569593747
316.544679234536;464.376295260389
316.56629377153;464.088894853614
316.587908308524;463.79013057753
316.609522845517;463.462040826363
316.631137382511;463.095591092111
316.652751919504;462.689049447249
316.674366456498;462.236848784379
316.695980993491;461.744241567934
316.717595530485;461.214428593774
316.739210067478;460.648647234825
316.760824604472;460.059389378634
316.782439141465;459.450344879403
316.804053678459;458.815836658778
316.825668215452;458.167611989513
316.847282752446;457.512710277076
316.86889728944;456.848801243984
316.890511826433;456.169104796972
316.912126363427;455.468737449189
316.93374090042;454.747524052497
316.955355437414;454.026795824584
316.976969974407;453.328281497404
316.998584511401;452.642008115861
317.020199048394;451.980743426835
317.041813585388;451.37630688122
317.063428122381;450.818128330225
317.085042659375;450.286351498569
317.106657196368;449.786813091777
317.128271733362;449.351669018475
317.149886270356;448.990764544736
317.171500807349;448.700536330488
317.193115344343;448.488777898939
317.214729881336;448.354793054753
317.23634441833;448.293079587767
317.257958955323;448.285017448806
317.279573492317;448.308269637754
317.30118802931;448.352097950248
317.322802566304;448.396735713352
317.344417103297;448.42806582249
317.366031640291;448.440574521535
317.387646177284;448.415191298863
317.409260714278;448.320199560284
317.430875251272;448.137384089441
317.452489788265;447.868700376906
317.474104325259;447.504431276855
317.495718862252;447.046357942695
317.517333399246;446.509134233538
317.538947936239;445.907898624414
317.560562473233;445.247506462975
317.582177010226;444.53971877753
317.60379154722;443.807092158429
317.625406084213;443.037584002784
317.647020621207;442.217130811072
317.6686351582;441.388986604873
317.690249695194;440.585830639628
317.711864232188;439.792863168864
317.733478769181;439.011392127845
317.755093306175;438.239598344091
317.776707843168;437.473527068835
317.798322380162;436.706261777484
317.819936917155;435.934291163685
317.841551454149;435.186464619264
317.863165991142;434.483940089039
317.884780528136;433.830345273582
317.906395065129;433.222210249295
317.928009602123;432.652496647966
317.949624139116;432.123824845694
317.97123867611;431.648501454799
317.992853213104;431.225784882839
318.014467750097;430.844837310687
318.036082287091;430.496900343205
318.057696824084;430.185533468601
318.079311361078;429.924242974561
318.100925898071;429.719356417883
318.122540435065;429.567997157634
318.144154972058;429.456283232698
318.165769509052;429.37564299747
318.187384046045;429.332242716171
318.208998583039;429.327898490375
318.230613120032;429.34957962286
318.252227657026;429.383678275001
318.273842194019;429.419232798687
318.295456731013;429.442957051861
318.317071268007;429.438663045825
318.338685805;429.387474654338
318.360300341994;429.276143514696
318.381914878987;429.097217918431
318.403529415981;428.832474624736
318.425143952974;428.482186568889
318.446758489968;428.051868363078
318.468373026961;427.541585864813
318.489987563955;426.954480992183
318.511602100948;426.30072726904
318.533216637942;425.587335484423
318.554831174935;424.811527916673
318.576445711929;423.974792268185
318.598060248923;423.095036689535
318.619674785916;422.200727871317
318.64128932291;421.317426726994
318.662903859903;420.439977133987
318.684518396897;419.550297320857
318.70613293389;418.649720533263
318.727747470884;417.74545876354
318.749362007877;416.863519348226
318.770976544871;416.004298886023
318.792591081864;415.148631505774
318.814205618858;414.32983730485
318.835820155851;413.567646516247
318.857434692845;412.853203685883
318.879049229839;412.187757668304
318.900663766832;411.568729455435
318.922278303826;410.994103967482
318.943892840819;410.459996017699
318.965507377813;409.958665286033
318.987121914806;409.483575084514
319.0087364518;409.027912003651
319.030350988793;408.577698817518
319.051965525787;408.128713532715
319.07358006278;407.661710829289
319.095194599774;407.155460562267
319.116809136767;406.594633510017
319.138423673761;405.965386865438
319.160038210755;405.284400899743
319.181652747748;404.586758147902
319.203267284742;403.876520951153
319.224881821735;403.153641736854
319.246496358729;402.405303323683
319.268110895722;401.638081726541
319.289725432716;400.89852694253
319.311339969709;400.206870860078
319.332954506703;399.55271028164
319.354569043696;398.932719021437
319.37618358069;398.370017815398
319.397798117683;397.881533165353
319.419412654677;397.444768779701
319.441027191671;397.050612932465
319.462641728664;396.69242864561
319.484256265658;396.355409532866
319.505870802651;396.029805600103
319.527485339645;395.715665532654
319.549099876638;395.41208967147
319.570714413632;395.110195468291
319.592328950625;394.789675677082
319.613943487619;394.442009441001
319.635558024612;394.076226579449
319.657172561606;393.704925984414
319.678787098599;393.332669624504
319.700401635593;392.970908873374
319.722016172587;392.6310615777
319.74363070958;392.307403260071
319.765245246574;391.986006642585
319.786859783567;391.670198661458
319.808474320561;391.386402829233
319.830088857554;391.149029111046
319.851703394548;390.950647809522
319.873317931541;390.788806703141
319.894932468535;390.672063658733
319.916547005528;390.606686959318
319.938161542522;390.589139853249
319.959776079515;390.61170335187
319.981390616509;390.667586241245
320.003005153503;390.749938041661
320.024619690496;390.851905182643
320.04623422749;390.970101109609
320.067848764483;391.110469854967
320.089463301477;391.283465022953
320.11107783847;391.479181908069
320.132692375464;391.68002184109
320.154306912457;391.876606479229
320.175921449451;392.079472101866
320.197535986444;392.293933950138
320.219150523438;392.516615757085
320.240765060431;392.747705188504
320.262379597425;392.979457113306
320.283994134418;393.190776617526
320.305608671412;393.373820351306
320.327223208406;393.524453542055
320.348837745399;393.627416550115
320.370452282393;393.658167395651
320.392066819386;393.594501735531
320.41368135638;393.416293319012
320.435295893373;393.109782606927
320.456910430367;392.670885844279
320.47852496736;392.067299329912
320.500139504354;391.26469804954
320.521754041347;390.25529654208
320.543368578341;389.082764433966
320.564983115334;387.803840327647
320.586597652328;386.448871352672
320.608212189322;385.044096055565
320.629826726315;383.598989068836
320.651441263309;382.107979954415
320.673055800302;380.593118172153
320.694670337296;379.12386271281
320.716284874289;377.764950492961
320.737899411283;376.53361391453
320.759513948276;375.409230792316
320.78112848527;374.350520321665
320.802743022263;373.331692971707
320.824357559257;372.353431313337
320.84597209625;371.421940960371
320.867586633244;370.513652342796
320.889201170238;369.587437341476
320.910815707231;368.619247049996
320.932430244225;367.594660177172
320.954044781218;366.491343525275
320.975659318212;365.26999408101
320.997273855205;363.910768198569
321.018888392199;362.453469422891
321.040502929192;360.955421510004
321.062117466186;359.427953754244
321.083732003179;357.853583498306
321.105346540173;356.210408649821
321.126961077166;354.481363351603
321.14857561416;352.67708964785
321.170190151154;350.845621104153
321.191804688147;349.033913504339
321.213419225141;347.260033547636
321.235033762134;345.54010022861
321.256648299128;343.902374059212
321.278262836121;342.391677335621
321.299877373115;341.050220429986
321.321491910108;339.891362944963
321.343106447102;338.919454496417
321.364720984095;338.150328412411
321.386335521089;337.579029320144
321.407950058082;337.178502539621
321.429564595076;336.937795024147
321.45117913207;336.861135550069
321.472793669063;336.923952471415
321.494408206057;337.083258466266
321.51602274305;337.308524189689
321.537637280044;337.574788793357
321.559251817037;337.848790602188
321.580866354031;338.084858095803
321.602480891024;338.257072111469
321.624095428018;338.363631299918
321.645709965011;338.399692633968
321.667324502005;338.355868993538
321.688939038998;338.223047935894
321.710553575992;338.001351496055
321.732168112986;337.702390028456
321.753782649979;337.328221704143
321.775397186973;336.887723342454
321.797011723966;336.394472034217
321.81862626096;335.850308487049
321.840240797953;335.274264563342
321.861855334947;334.686951840358
321.88346987194;334.089098431291
321.905084408934;333.49378184787
321.926698945927;332.92455091917
321.948313482921;332.383627765955
321.969928019914;331.880857600957
321.991542556908;331.429999927977
322.013157093902;331.041377309051
322.034771630895;330.695080813338
322.056386167889;330.38128410605
322.078000704882;330.100231437025
322.099615241876;329.846039786773
322.121229778869;329.597020596909
322.142844315863;329.335154780337
322.164458852856;329.051778514001
322.18607338985;328.728141071108
322.207687926843;328.352946591394
322.229302463837;327.909598788194
322.25091700083;327.38507446747
322.272531537824;326.789897863165
322.294146074817;326.144610784473
322.315760611811;325.447541713645
322.337375148805;324.701314645284
322.358989685798;323.93393778164
322.380604222792;323.163645516336
322.402218759785;322.393510347501
322.423833296779;321.634219458629
322.445447833772;320.897769067145
322.467062370766;320.19279966912
322.488676907759;319.509958793425
322.510291444753;318.82457033881
322.531905981746;318.152741001392
322.55352051874;317.547882190432
322.575135055733;317.017903037204
322.596749592727;316.534221250855
322.618364129721;316.079482241301
322.639978666714;315.645344412262
322.661593203708;315.224867121891
322.683207740701;314.817145932652
322.704822277695;314.431422822381
322.726436814688;314.065460972657
322.748051351682;313.699182998381
322.769665888675;313.309446249595
322.791280425669;312.871414262984
322.812894962662;312.368915151958
322.834509499656;311.794471444964
322.856124036649;311.150183761129
322.877738573643;310.463653313307
322.899353110637;309.737063136572
322.92096764763;308.963167676554
322.942582184624;308.122361296594
322.964196721617;307.207756115105
322.985811258611;306.263427055418
323.007425795604;305.334534664729
323.029040332598;304.445721579874
323.050654869591;303.628130455172
323.072269406585;302.880452941308
323.093883943578;302.202796075503
323.115498480572;301.593632904209
323.137113017565;301.06356067858
323.158727554559;300.62769145105
323.180342091553;300.272219995849
323.201956628546;299.980233277685
323.22357116554;299.733943686875
323.245185702533;299.531622789089
323.266800239527;299.374482787646
323.28841477652;299.258142978825
323.310029313514;299.166353641484
323.331643850507;299.091739055606
323.353258387501;299.026376298999
323.374872924494;298.972833673178
323.396487461488;298.935063599494
323.418101998481;298.89951529184
323.439716535475;298.855247073326
323.461331072469;298.800404526553
323.482945609462;298.730773710876
323.504560146456;298.64139443735
323.526174683449;298.528722442218
323.547789220443;298.391888493332
323.569403757436;298.223009496681
323.59101829443;298.016460137237
323.612632831423;297.783096845903
323.634247368417;297.5370306775
323.65586190541;297.283177554707
323.677476442404;297.01872324844
323.699090979397;296.747863462699
323.720705516391;296.477182102373
323.742320053385;296.211903447558
323.763934590378;295.950114487955
323.785549127372;295.675834200469
323.807163664365;295.375229805063
323.828778201359;295.045098358665
323.850392738352;294.682377178957
323.872007275346;294.286862168629
323.893621812339;293.867840437664
323.915236349333;293.424402499685
323.936850886326;292.942054769843
323.95846542332;292.418954622463
323.980079960313;291.856023283852
324.001694497307;291.244869327872
324.023309034301;290.58194317833
324.044923571294;289.877270526558
324.066538108288;289.130340117444
324.088152645281;288.354308151303
324.109767182275;287.555574045992
324.131381719268;286.721114014174
324.152996256262;285.821259831131
324.174610793255;284.867506975652
324.196225330249;283.912989631128
324.217839867242;282.971578013563
324.239454404236;282.04023209459
324.261068941229;281.108231877591
324.282683478223;280.170569731236
324.304298015216;279.237552626318
324.32591255221;278.330785946507
324.347527089204;277.465780104969
324.369141626197;276.620278566982
324.390756163191;275.773318612789
324.412370700184;274.930639900202
324.433985237178;274.121366752256
324.455599774171;273.338856340464
324.477214311165;272.528571435113
324.498828848158;271.650658051125
324.520443385152;270.696095561918
324.542057922145;269.679620837061
324.563672459139;268.608458984737
324.585286996132;267.476072754342
324.606901533126;266.253950580615
324.62851607012;264.926429386484
324.650130607113;263.49966704442
324.671745144107;262.002105262864
324.6933596811;260.465366835118
324.714974218094;258.929246404302
324.736588755087;257.420647147756
324.758203292081;255.961431882161
