Name;ESR_BC_1_359s_Z_gon_160dg_result

Recipe
Accumulations;5;Number of accumulations
RetryCount;0;Number of retries on error
AbortOnError;True;Abort on error
EnableQFactorMeasurement;False;Enable/Disable q-Factor measurement
Bfrom;313;B from
Bto;363;B to
SweepTime;60;Sweep time
Modulation;0.2;Modulation
ModulationFreq;100;Modulation
BHoldEnabled;False;B hold enabled
BHold;0;B hold
MicrowavePower;2;Microwave power
MarkerEnabled;False;
MarkerStartField;0;
MarkerEndField;0;
Mode;;
KineticGFact;0;
KineticTotalTransientTime;0;
KineticTimeResolution;0;
TempFrom;5;
TempUseSlope;False;
TempTo;5;
TempdT;1;
TempSetupTime;0;
GonFrom;0;
GonTo;180;
GonSteps;20;
XRayEnabled;False;
XRayTime;3;
XRayVoltage;40;
XRayCurrent;0.5;
UVEnabled;False;
UVIntensity;0;
UVTime;0;
UVLeadTime;0;
UVWavelength;0;
PowSweepFrom;1;
PowSweepTo;5;
PowSweepSteps;5;
AmpModSweepFrom;0;
AmpModSweepTo;1;
AmpModSweepSteps;10;
ExtTriggerEnabled;False;
ExtTrigLeadTime;0;
ExtTrigOnTime;5;

Meas
BField [mT];MW_Absorption []
313.01309425354;93.0783176354707
313.034713868554;92.6228016175883
313.056333483568;92.2881391189978
313.077953098583;92.0597611123098
313.099572713597;91.9456861008093
313.121192328611;91.9488960258207
313.142811943625;92.0565011351609
313.16443155864;92.2590436053929
313.186051173654;92.5588723221734
313.207670788668;92.9452830110137
313.229290403682;93.3823178344835
313.250910018696;93.851888629352
313.272529633711;94.3538893467164
313.294149248725;94.8734270774746
313.315768863739;95.3848758166978
313.337388478753;95.8814741552413
313.359008093768;96.3626410266207
313.380627708782;96.7972667918771
313.402247323796;97.1584137454023
313.42386693881;97.4616031408883
313.445486553824;97.7175726912996
313.467106168839;97.9162891922806
313.488725783853;98.0482974386169
313.510345398867;98.1083316782233
313.531965013881;98.0886343429382
313.553584628895;97.9854913174823
313.57520424391;97.8061027712544
313.596823858924;97.5572840203076
313.618443473938;97.253305358844
313.640063088952;96.899978492277
313.661682703967;96.4783763161204
313.683302318981;95.9733015685378
313.704921933995;95.4102692074781
313.726541549009;94.8325211703706
313.748161164023;94.2551802969881
313.769780779038;93.6768343858249
313.791400394052;93.0799066917372
313.813020009066;92.4661817826755
313.83463962408;91.8373851065325
313.856259239094;91.2105510290393
313.877878854109;90.6227498145422
313.899498469123;90.0947818891299
313.921118084137;89.6162041307184
313.942737699151;89.1717677665518
313.964357314166;88.7491946370712
313.98597692918;88.3454734730916
314.007596544194;87.9820316623145
314.029216159208;87.6710064248562
314.050835774222;87.3965999175915
314.072455389237;87.1442389594647
314.094075004251;86.9191515991113
314.115694619265;86.7215293721003
314.137314234279;86.5400261739509
314.158933849293;86.3717722705717
314.180553464308;86.2205529964794
314.202173079322;86.0937742375489
314.223792694336;86.001722793774
314.24541230935;85.9510912042178
314.267031924365;85.9481496404982
314.288651539379;85.9877086343351
314.310271154393;86.0668419255649
314.331890769407;86.190378497034
314.353510384421;86.3695988914574
314.375129999436;86.6054445888884
314.39674961445;86.8806149912307
314.418369229464;87.1620172857325
314.439988844478;87.4274359744126
314.461608459492;87.6693892892479
314.483228074507;87.8850903666621
314.504847689521;88.0630280076156
314.526467304535;88.1923307230596
314.548086919549;88.2688157626333
314.569706534564;88.290917371098
314.591326149578;88.2733056156226
314.612945764592;88.2235538077422
314.634565379606;88.1352960899911
314.65618499462;88.0064227645099
314.677804609635;87.8559560998768
314.699424224649;87.7161159587092
314.721043839663;87.6065752179508
314.742663454677;87.5299735589749
314.764283069691;87.4788127619464
314.785902684706;87.447603652392
314.80752229972;87.4374336183835
314.829141914734;87.4446602829779
314.850761529748;87.4550688373545
314.872381144763;87.4600330571519
314.894000759777;87.4598766775821
314.915620374791;87.4486589797164
314.937239989805;87.4244498378994
314.958859604819;87.3919673969985
314.980479219834;87.354936700249
315.002098834848;87.3099656172289
315.023718449862;87.2504240202572
315.045338064876;87.1700261737648
315.06695767989;87.0668770672537
315.088577294905;86.9484331060419
315.110196909919;86.8202819232749
315.131816524933;86.6769409896439
315.153436139947;86.5026648832657
315.175055754962;86.2809721340328
315.196675369976;85.9968475307494
315.21829498499;85.64508750882
315.239914600004;85.2340732214743
315.261534215018;84.7674569411355
315.283153830033;84.2304990424541
315.304773445047;83.6295513008261
315.326393060061;83.0282155651791
315.348012675075;82.4678109684591
315.36963229009;81.9445127586978
315.391251905104;81.4478822861338
315.412871520118;80.9857025547668
315.434491135132;80.5848429701964
315.456110750146;80.27551047167
315.477730365161;80.0596204321966
315.499349980175;79.9350566537552
315.520969595189;79.8928008650705
315.542589210203;79.9166724470689
315.564208825217;79.9867654939392
315.585828440232;80.0903347172245
315.607448055246;80.2188351917509
315.62906767026;80.3587351554677
315.650687285274;80.5239873984294
315.672306900289;80.721057802816
315.693926515303;80.9476119168589
315.715546130317;81.2057291374465
315.737165745331;81.4972067313836
315.758785360345;81.7993558446173
315.78040497536;82.1124992140653
315.802024590374;82.445431476106
315.823644205388;82.8153840652122
315.845263820402;83.2405252888064
315.866883435416;83.7070898091077
315.888503050431;84.1961458816419
315.910122665445;84.7070819345436
315.931742280459;85.2258259582842
315.953361895473;85.7246294898232
315.974981510488;86.1852627981262
315.996601125502;86.6088779220602
316.018220740516;86.9930400463915
316.03984035553;87.3373260496666
316.061459970544;87.6470993828928
316.083079585559;87.9287381754521
316.104699200573;88.1812473154875
316.126318815587;88.3887162919681
316.147938430601;88.5429487567197
316.169558045615;88.6327844220557
316.19117766063;88.6383968779837
316.212797275644;88.5530025351441
316.234416890658;88.3822958047045
316.256036505672;88.122787670542
316.277656120687;87.7640270961712
316.299275735701;87.2857241362041
316.320895350715;86.66810276719
316.342514965729;85.9299696447425
316.364134580743;85.1117494730942
316.385754195758;84.2202831651405
316.407373810772;83.2786813392828
316.428993425786;82.316617262415
316.4506130408;81.3832608128083
316.472232655814;80.5011754122704
316.493852270829;79.6652049841801
316.515471885843;78.8768501404217
316.537091500857;78.1763287554432
316.558711115871;77.6007128040818
316.580330730886;77.1471429706931
316.6019503459;76.793056873731
316.623569960914;76.5317881319418
316.645189575928;76.3564958163554
316.666809190942;76.2466260040442
316.688428805957;76.1836865071995
316.710048420971;76.1545158208806
316.731668035985;76.1502338958669
316.753287650999;76.1578401247651
316.774907266013;76.1633862177504
316.796526881028;76.1543948730097
316.818146496042;76.1301955809722
316.839766111056;76.0954892920629
316.86138572607;76.0511347567324
316.883005341085;75.9977176354138
316.904624956099;75.9322292354713
316.926244571113;75.8583365264492
316.947864186127;75.7872732162274
316.969483801141;75.7242588049424
316.991103416156;75.6714862589627
317.01272303117;75.6314180851286
317.034342646184;75.6081152479357
317.055962261198;75.6076299606944
317.077581876212;75.6282804809482
317.099201491227;75.6661419292363
317.120821106241;75.7250494805828
317.142440721255;75.8086146004523
317.164060336269;75.9074731326268
317.185679951284;76.0108867667782
317.207299566298;76.1187945206261
317.228919181312;76.2298600563442
317.250538796326;76.3470020747187
317.27215841134;76.4754445479981
317.293778026355;76.6129932302397
317.315397641369;76.7494667779113
317.337017256383;76.8774460659609
317.358636871397;76.9996401623646
317.380256486412;77.1193513123564
317.401876101426;77.2339850798427
317.42349571644;77.3371296268485
317.445115331454;77.4213977006739
317.466734946468;77.4833289280766
317.488354561483;77.5200047277362
317.509974176497;77.526625311067
317.531593791511;77.499202797691
317.553213406525;77.4315366923429
317.574833021539;77.3175190427614
317.596452636554;77.1529377619412
317.618072251568;76.9346195935516
317.639691866582;76.6765073497591
317.661311481596;76.3909583022274
317.682931096611;76.0591730147672
317.704550711625;75.6652093411444
317.726170326639;75.2353783020456
317.747789941653;74.7991954813753
317.769409556667;74.3602610314793
317.791029171682;73.9160532878325
317.812648786696;73.4782316747774
317.83426840171;73.0539597538304
317.855888016724;72.642871783858
317.877507631738;72.2518529226272
317.899127246753;71.8947126606462
317.920746861767;71.5670664413422
317.942366476781;71.2640736612975
317.963986091795;70.9859068880882
317.98560570681;70.7361681641864
318.007225321824;70.518895740482
318.028844936838;70.3338429005421
318.050464551852;70.1725421570175
318.072084166866;70.0256449981973
318.093703781881;69.8877614419949
318.115323396895;69.7578087694103
318.136943011909;69.643157082053
318.158562626923;69.5487347499412
318.180182241937;69.4688375678963
318.201801856952;69.3951282610741
318.223421471966;69.3304705973356
318.24504108698;69.2793253000022
318.266660701994;69.2435133242689
318.288280317009;69.2314579289423
318.309899932023;69.2551537144547
318.331519547037;69.3119194874664
318.353139162051;69.3922802670482
318.374758777065;69.4944360330484
318.39637839208;69.6341859871215
318.417998007094;69.8265251519059
318.439617622108;70.0556416507833
318.461237237122;70.299893014232
318.482856852136;70.560962312679
318.504476467151;70.855787445193
318.526096082165;71.1810430463032
318.547715697179;71.5163749287811
318.569335312193;71.8576475128075
318.590954927208;72.2162106105308
318.612574542222;72.5863189781075
318.634194157236;72.9557951474726
318.65581377225;73.3218748373836
318.677433387264;73.6852697695762
318.699053002279;74.0225704844923
318.720672617293;74.3243789013826
318.742292232307;74.5853872769613
318.763911847321;74.7998979263335
318.785531462336;74.9687416872925
318.80715107735;75.0812528950268
318.828770692364;75.1336456162935
318.850390307378;75.13868259613
318.872009922392;75.0918843393543
318.893629537407;74.9826078971052
318.915249152421;74.8217295968004
318.936868767435;74.6273861667464
318.958488382449;74.403064391981
318.980107997463;74.1474960560335
319.001727612478;73.8625449934254
319.023347227492;73.5516375991811
319.044966842506;73.2172033053133
319.06658645752;72.8645733192549
319.088206072535;72.508828528143
319.109825687549;72.1714746753979
319.131445302563;71.8569248725593
319.153064917577;71.5645374693672
319.174684532591;71.2905303721405
319.196304147606;71.0338255884896
319.21792376262;70.8002507637722
319.239543377634;70.5943592432891
319.261162992648;70.4140232861568
319.282782607662;70.2517168693007
319.304402222677;70.0986417534827
319.326021837691;69.9493593645114
319.347641452705;69.808505844512
319.369261067719;69.6810676031293
319.390880682734;69.5593118150133
319.412500297748;69.4369057923785
319.434119912762;69.3268328787454
319.455739527776;69.2486939903696
319.47735914279;69.2025944437262
319.498978757805;69.1827667455864
319.520598372819;69.1889171896439
319.542217987833;69.2250903523095
319.563837602847;69.2878619510582
319.585457217861;69.3723358484587
319.607076832876;69.4770711538656
319.62869644789;69.5997337861913
319.650316062904;69.7332832038809
319.671935677918;69.8707156694398
319.693555292933;70.0075972976792
319.715174907947;70.1382531447078
319.736794522961;70.2502336455021
319.758414137975;70.3247846115595
319.780033752989;70.3522740580828
319.801653368004;70.3328033188175
319.823272983018;70.2692236257838
319.844892598032;70.160113809946
319.866512213046;69.9972461068291
319.888131828061;69.772926675797
319.909751443075;69.4942421049196
319.931371058089;69.1670888967789
319.952990673103;68.7846859029106
319.974610288117;68.3461695673131
319.996229903132;67.8612264248971
320.017849518146;67.3484684579285
320.03946913316;66.8188792190908
320.061088748174;66.2817251786502
320.082708363188;65.7539471051461
320.104327978203;65.2459717181934
320.125947593217;64.75947795185
320.147567208231;64.2984035092324
320.169186823245;63.8726420330676
320.19080643826;63.497434468199
320.212426053274;63.189888197739
320.234045668288;62.9615603890199
320.255665283302;62.8044903943316
320.277284898316;62.7078929836904
320.298904513331;62.6648351986331
320.320524128345;62.6680006353536
320.342143743359;62.7072824473262
320.363763358373;62.7787768278587
320.385382973387;62.8800298490987
320.407002588402;62.99666310778
320.428622203416;63.1104421871609
320.45024181843;63.218858805273
320.471861433444;63.3274500211399
320.493481048459;63.4425583229609
320.515100663473;63.5715868902582
320.536720278487;63.7163656145831
320.558339893501;63.8710702711345
320.579959508515;64.0325331872228
320.60157912353;64.205002539111
320.623198738544;64.3936782296741
320.644818353558;64.5898319355712
320.666437968572;64.7847514104314
320.688057583586;64.9795034730275
320.709677198601;65.1726220884842
320.731296813615;65.3582433446433
320.752916428629;65.5328154581274
320.774536043643;65.6827669941109
320.796155658658;65.7986254030199
320.817775273672;65.8892457715233
320.839394888686;65.9706763166955
320.8610145037;66.0598092222617
320.882634118714;66.1634185310631
320.904253733729;66.2854032317747
320.925873348743;66.435116812015
320.947492963757;66.6206784049241
320.969112578771;66.8323415842557
320.990732193786;67.0571284068849
321.0123518088;67.2945068335048
321.033971423814;67.5334408575085
321.055591038828;67.749329149662
321.077210653842;67.9269255943518
321.098830268857;68.0517279178464
321.120449883871;68.118434250796
321.142069498885;68.1248210473233
321.163689113899;68.0706727177093
321.185308728913;67.9439032717743
321.206928343928;67.7376464437975
321.228547958942;67.4743464712394
321.250167573956;67.1712509988532
321.27178718897;66.8396417222728
321.293406803985;66.4963816779829
321.315026418999;66.1564134883928
321.336646034013;65.8263920327981
321.358265649027;65.5124062896876
321.379885264041;65.2271292633561
321.401504879056;64.984716569249
321.42312449407;64.7857003313188
321.444744109084;64.6256257670351
321.466363724098;64.4965610086959
321.487983339112;64.375944491638
321.509602954127;64.2420981368342
321.531222569141;64.0757234757262
321.552842184155;63.8675476223667
321.574461799169;63.6128963258476
321.596081414184;63.3030143018553
321.617701029198;62.9165820886273
321.639320644212;62.4430082965812
321.660940259226;61.906602042537
321.68255987424;61.3261298233096
321.704179489255;60.7140643626865
321.725799104269;60.0697450141829
321.747418719283;59.4108437148188
321.769038334297;58.774093762133
321.790657949311;58.1895214141367
321.812277564326;57.6674115270015
321.83389717934;57.2020497069699
321.855516794354;56.7973560907266
321.877136409368;56.4415491672019
321.898756024383;56.1273239598505
321.920375639397;55.8473900964971
321.941995254411;55.5918389090877
321.963614869425;55.364917399626
321.985234484439;55.1638848149294
322.006854099454;54.9829119671694
322.028473714468;54.8123626765476
322.050093329482;54.6543701823605
322.071712944496;54.5131521610815
322.09333255951;54.4041292854025
322.114952174525;54.3477767740859
322.136571789539;54.3435689343586
322.158191404553;54.3948799220407
322.179811019567;54.5122051605549
322.201430634582;54.6897341515171
322.223050249596;54.919230789994
322.24466986461;55.2026705621887
322.266289479624;55.5450298026412
322.287909094638;55.9304225389652
322.309528709653;56.3381818958005
322.331148324667;56.762618817137
322.352767939681;57.1916350269824
322.374387554695;57.5957141061519
322.396007169709;57.9632987120081
322.417626784724;58.2878732984597
322.439246399738;58.565733689048
322.460866014752;58.7938233796702
322.482485629766;58.9650900471539
322.504105244781;59.0896061946936
322.525724859795;59.1783152670249
322.547344474809;59.2380840044041
322.568964089823;59.2585312158237
322.590583704837;59.2231985482472
322.612203319852;59.1323229854278
322.633822934866;58.9965982668255
322.65544254988;58.8180162819221
322.677062164894;58.5875558031989
322.698681779909;58.2929534160811
322.720301394923;57.9427050178099
322.741921009937;57.5549331544339
322.763540624951;57.1275467302142
322.785160239965;56.6586335363325
322.80677985498;56.1603453393358
322.828399469994;55.6482348587067
322.850019085008;55.1380240349722
322.871638700022;54.6451634713712
322.893258315036;54.1788317385357
322.914877930051;53.7330302749483
322.936497545065;53.3097077123313
322.958117160079;52.9253353354977
322.979736775093;52.6137688658824
323.001356390108;52.376814189253
323.022976005122;52.2148561451437
323.044595620136;52.1085765391593
323.06621523515;52.0487466589275
323.087834850164;52.0475081750524
323.109454465179;52.1004484314797
323.131074080193;52.1890906325664
323.152693695207;52.2931299726217
323.174313310221;52.3920366556681
323.195932925235;52.4754948605799
323.21755254025;52.5416554913773
323.239172155264;52.5829627614855
323.260791770278;52.5886016492606
323.282411385292;52.5646314089602
323.304031000307;52.5401422048534
323.325650615321;52.524983622634
323.347270230335;52.5132262773421
323.368889845349;52.5039451315295
323.390509460363;52.5045164320638
323.412129075378;52.5253152130489
323.433748690392;52.5690201115432
323.455368305406;52.629272771241
323.47698792042;52.7028550892279
323.498607535434;52.7927342885981
323.520227150449;52.8983140741572
323.541846765463;53.0112027542708
323.563466380477;53.1187740204288
323.585085995491;53.2094286771794
323.606705610506;53.2755864970071
323.62832522552;53.3092519436089
323.649944840534;53.3026019220532
323.671564455548;53.2569835791198
323.693184070562;53.1703605998357
323.714803685577;53.0302222048859
323.736423300591;52.8330949704861
323.758042915605;52.5964256906428
323.779662530619;52.3291048429143
323.801282145633;52.0223912626056
323.822901760648;51.6837557377422
323.844521375662;51.3400314459346
323.866140990676;51.0035440371381
323.88776060569;50.6657489909745
323.909380220705;50.3122739937105
323.930999835719;49.9440978458546
323.952619450733;49.5653184157844
323.974239065747;49.1753808098176
323.995858680761;48.7723453366689
324.017478295776;48.3561910442537
324.03909791079;47.9240976535077
324.060717525804;47.4682591567041
324.082337140818;46.9767094165965
324.103956755832;46.4408420595182
324.125576370847;45.8661871546315
324.147195985861;45.268175634222
324.168815600875;44.6632159402385
324.190435215889;44.0463349557762
324.212054830904;43.3938850858396
324.233674445918;42.6984589197352
324.255294060932;42.0045663338794
324.276913675946;41.3606524275536
324.29853329096;40.7782741209004
324.320152905975;40.2558062850385
324.341772520989;39.7946581239095
324.363392136003;39.4029768275052
324.385011751017;39.0918902035012
324.406631366031;38.8818527565495
324.428250981046;38.7993452078795
324.44987059606;38.8510062512669
324.471490211074;39.0257653729738
324.493109826088;39.3194995250725
324.514729441103;39.7172024876923
324.536349056117;40.1916567400456
324.557968671131;40.7284078589092
324.579588286145;41.3145498993327
324.601207901159;41.9274583461065
324.622827516174;42.5417790562499
324.644447131188;43.1354122425513
324.666066746202;43.6822048893037
324.687686361216;44.1505996318543
324.709305976231;44.5289410899649
324.730925591245;44.8144041912636
324.752545206259;45.0016780268684
