Name;ESR_BC_1_89s_Y_gon_80dg_result

Recipe
Accumulations;5;Number of accumulations
RetryCount;0;Number of retries on error
AbortOnError;True;Abort on error
EnableQFactorMeasurement;False;Enable/Disable q-Factor measurement
Bfrom;313;B from
Bto;363;B to
SweepTime;60;Sweep time
Modulation;0.2;Modulation
ModulationFreq;100;Modulation
BHoldEnabled;False;B hold enabled
BHold;0;B hold
MicrowavePower;2;Microwave power
MarkerEnabled;False;
MarkerStartField;0;
MarkerEndField;0;
Mode;;
KineticGFact;0;
KineticTotalTransientTime;0;
KineticTimeResolution;0;
TempFrom;5;
TempUseSlope;False;
TempTo;5;
TempdT;1;
TempSetupTime;0;
GonFrom;0;
GonTo;180;
GonSteps;20;
XRayEnabled;False;
XRayTime;3;
XRayVoltage;40;
XRayCurrent;0.5;
UVEnabled;False;
UVIntensity;0;
UVTime;0;
UVLeadTime;0;
UVWavelength;0;
PowSweepFrom;1;
PowSweepTo;5;
PowSweepSteps;5;
AmpModSweepFrom;0;
AmpModSweepTo;1;
AmpModSweepSteps;10;
ExtTriggerEnabled;False;
ExtTrigLeadTime;0;
ExtTrigOnTime;5;

Meas
BField [mT];MW_Absorption []
313.023853988647;138.473809700695
313.045479798189;137.827365095127
313.067105607731;137.158617340437
313.088731417272;136.487000619623
313.110357226814;135.854355505048
313.131983036355;135.267752857172
313.153608845897;134.7266657422
313.175234655438;134.235778661474
313.19686046498;133.801338738459
313.218486274521;133.430960374729
313.240112084063;133.16041739692
313.261737893604;132.983547496263
313.283363703146;132.908604395205
313.304989512687;132.935946366573
313.326615322229;133.053766057355
313.34824113177;133.250226600149
313.369866941312;133.508694697487
313.391492750853;133.819423254146
313.413118560395;134.174343605529
313.434744369936;134.564960348882
313.456370179478;134.974935550992
313.477995989019;135.376616739894
313.499621798561;135.741413839787
313.521247608102;136.046316905956
313.542873417644;136.280050443843
313.564499227185;136.435510514903
313.586125036727;136.508506994988
313.607750846268;136.500216460968
313.62937665581;136.417778429774
313.651002465351;136.266418353305
313.672628274893;136.051135674987
313.694254084434;135.78736760685
313.715879893976;135.503534580746
313.737505703517;135.216918161161
313.759131513059;134.938008680776
313.7807573226;134.680503594159
313.802383132142;134.459410271746
313.824008941683;134.286005336441
313.845634751225;134.159362695916
313.867260560766;134.08085710809
313.888886370308;134.058101941497
313.910512179849;134.083991305084
313.932137989391;134.13487761895
313.953763798933;134.200375734294
313.975389608474;134.262719104097
313.997015418016;134.304255796811
314.018641227557;134.304484198574
314.040267037099;134.255787113954
314.06189284664;134.155924510599
314.083518656182;133.998973929348
314.105144465723;133.777384185038
314.126770275265;133.485785992239
314.148396084806;133.135246025131
314.170021894348;132.750486422219
314.191647703889;132.354776255181
314.213273513431;131.959241621745
314.234899322972;131.565851153402
314.256525132514;131.179510546
314.278150942055;130.806426504442
314.299776751597;130.455160478602
314.321402561138;130.142759490681
314.34302837068;129.877303051763
314.364654180221;129.64917496933
314.386279989763;129.444329997012
314.407905799304;129.248099505966
314.429531608846;129.050646364572
314.451157418387;128.851883097982
314.472783227929;128.651922387713
314.49440903747;128.456984556301
314.516034847012;128.284394021139
314.537660656553;128.134307120215
314.559286466095;128.00871844758
314.580912275636;127.912547130708
314.602538085178;127.844338033033
314.624163894719;127.807122136267
314.645789704261;127.803183918118
314.667415513802;127.827438501242
314.689041323344;127.863721144313
314.710667132885;127.902210984368
314.732292942427;127.941564314741
314.753918751968;127.969718837908
314.77554456151;127.967725720431
314.797170371051;127.934493553627
314.818796180593;127.867665834683
314.840421990135;127.756962991799
314.862047799676;127.598055473362
314.883673609218;127.402951533143
314.905299418759;127.193991452886
314.926925228301;126.981870695656
314.948551037842;126.760195450639
314.970176847384;126.521240947291
314.991802656925;126.274910185972
315.013428466467;126.044111209465
315.035054276008;125.837172425674
315.05668008555;125.644411968081
315.078305895091;125.470680472209
315.099931704633;125.32575571518
315.121557514174;125.201071935106
315.143183323716;125.091962037775
315.164809133257;125.001977183122
315.186434942799;124.930134932911
315.20806075234;124.873543745541
315.229686561882;124.831899826769
315.251312371423;124.801808241558
315.272938180965;124.775754131827
315.294563990506;124.752786748533
315.316189800048;124.739935622224
315.337815609589;124.736693608167
315.359441419131;124.727342859056
315.381067228672;124.701812449413
315.402693038214;124.658689944743
315.424318847755;124.602961512318
315.445944657297;124.53317299297
315.467570466838;124.442663129813
315.48919627638;124.327709892612
315.510822085921;124.189621494764
315.532447895463;124.033762080467
315.554073705004;123.85747917496
315.575699514546;123.659007366204
315.597325324087;123.448331628772
315.618951133629;123.224248417402
315.64057694317;122.986342553169
315.662202752712;122.746399382953
315.683828562254;122.503862256746
315.705454371795;122.250705613588
315.727080181337;121.996338582956
315.748705990878;121.774361547889
315.77033180042;121.598565008096
315.791957609961;121.462662763909
315.813583419503;121.358046156566
315.835209229044;121.281894431744
315.856835038586;121.230263873359
315.878460848127;121.19702394957
315.900086657669;121.180139772488
315.92171246721;121.178573531785
315.943338276752;121.181665807848
315.964964086293;121.172330820331
315.986589895835;121.139292863722
316.008215705376;121.086003863389
316.029841514918;121.011141450956
316.051467324459;120.907964306684
316.073093134001;120.77732059842
316.094718943542;120.630680736415
316.116344753084;120.480723670306
316.137970562625;120.334774939637
316.159596372167;120.19679814585
316.181222181708;120.078806193715
316.20284799125;119.989657567703
316.224473800791;119.930268635104
316.246099610333;119.895788744188
316.267725419874;119.879758251545
316.289351229416;119.872404648411
316.310977038957;119.86635954856
316.332602848499;119.850304395402
316.35422865804;119.815551876212
316.375854467582;119.749795726317
316.397480277123;119.641196173285
316.419106086665;119.482476292243
316.440731896206;119.269249337939
316.462357705748;118.996971770951
316.483983515289;118.661845420035
316.505609324831;118.266974065924
316.527235134372;117.830318500962
316.548860943914;117.36007351916
316.570486753456;116.861114227784
316.592112562997;116.354236524523
316.613738372539;115.864257718876
316.63536418208;115.403970387285
316.656989991622;114.976613590941
316.678615801163;114.588255191511
316.700241610705;114.248597223007
316.721867420246;113.960510411167
316.743493229788;113.719213080283
316.765119039329;113.536151708785
316.786744848871;113.430924296882
316.808370658412;113.413910499428
316.829996467954;113.475393571455
316.851622277495;113.594346232579
316.873248087037;113.759489106625
316.894873896578;113.978477439949
316.91649970612;114.262114976123
316.938125515661;114.608457298498
316.959751325203;115.00665582227
316.981377134744;115.430746117007
317.003002944286;115.84896212415
317.024628753827;116.24608714543
317.046254563369;116.602186308772
317.06788037291;116.904075916603
317.089506182452;117.153963624942
317.111131991993;117.347190391705
317.132757801535;117.478374889357
317.154383611076;117.555288648776
317.176009420618;117.574019991854
317.197635230159;117.53936494915
317.219261039701;117.453555370961
317.240886849242;117.326231672805
317.262512658784;117.173618745975
317.284138468325;117.01035071663
317.305764277867;116.842899599788
317.327390087408;116.674525091455
317.34901589695;116.52109210559
317.370641706491;116.394835484554
317.392267516033;116.300850910331
317.413893325575;116.238511090178
317.435519135116;116.201633145952
317.457144944658;116.188835245389
317.478770754199;116.197022600806
317.500396563741;116.218163858354
317.522022373282;116.240807622147
317.543648182824;116.254337574072
317.565273992365;116.258844246933
317.586899801907;116.257754325212
317.608525611448;116.25266032032
317.63015142099;116.24769676364
317.651777230531;116.24486806228
317.673403040073;116.246838126512
317.695028849614;116.264895435843
317.716654659156;116.303125057345
317.738280468697;116.353960416585
317.759906278239;116.407891558953
317.78153208778;116.45345411656
317.803157897322;116.478141625556
317.824783706863;116.473337576406
317.846409516405;116.430520946771
317.868035325946;116.344131842377
317.889661135488;116.215508393342
317.911286945029;116.049835001528
317.932912754571;115.852967067642
317.954538564112;115.635481733584
317.976164373654;115.416658942443
317.997790183195;115.212235397329
318.019415992737;115.034589856208
318.041041802278;114.900038785109
318.06266761182;114.818169793172
318.084293421361;114.788500528194
318.105919230903;114.809235666401
318.127545040444;114.875712274012
318.149170849986;114.974279252481
318.170796659527;115.092495159099
318.192422469069;115.224901055649
318.21404827861;115.354945314838
318.235674088152;115.46541764927
318.257299897693;115.553853145847
318.278925707235;115.619096308886
318.300551516777;115.655811637946
318.322177326318;115.663477082286
318.34380313586;115.651315154241
318.365428945401;115.624051202632
318.387054754943;115.5833362105
318.408680564484;115.536839373547
318.430306374026;115.504633113437
318.451932183567;115.490195788124
318.473557993109;115.494811256666
318.49518380265;115.517968388322
318.516809612192;115.555620509039
318.538435421733;115.601231984421
318.560061231275;115.651654219832
318.581687040816;115.701309917913
318.603312850358;115.739166258069
318.624938659899;115.761420746843
318.646564469441;115.769292386395
318.668190278982;115.761548086832
318.689816088524;115.736733419571
318.711441898065;115.690720677193
318.733067707607;115.601444222302
318.754693517148;115.466482147492
318.77631932669;115.286866616295
318.797945136231;115.070475326254
318.819570945773;114.82986723359
318.841196755314;114.57707525988
318.862822564856;114.320411517494
318.884448374397;114.06255920367
318.906074183939;113.814423224624
318.92769999348;113.592400066158
318.949325803022;113.404220171833
318.970951612563;113.260855214962
318.992577422105;113.170259630639
319.014203231646;113.121515181342
319.035829041188;113.096189442446
319.057454850729;113.078013093353
319.079080660271;113.058764646623
319.100706469812;113.052648765623
319.122332279354;113.062393551798
319.143958088895;113.073798144712
319.165583898437;113.078019274253
319.187209707979;113.080207556879
319.20883551752;113.084266426272
319.230461327062;113.102942925141
319.252087136603;113.158190986235
319.273712946145;113.259218751153
319.295338755686;113.398987337434
319.316964565228;113.584847047083
319.338590374769;113.813768941324
319.360216184311;114.074007053823
319.381841993852;114.35302687604
319.403467803394;114.635116455597
319.425093612935;114.914282487522
319.446719422477;115.183432125
319.468345232018;115.419396678642
319.48997104156;115.595727784893
319.511596851101;115.704373618852
319.533222660643;115.745092085331
319.554848470184;115.723204403144
319.576474279726;115.646615923213
319.598100089267;115.503493829182
319.619725898809;115.315295976409
319.64135170835;115.10546645396
319.662977517892;114.892421422628
319.684603327433;114.695231657431
319.706229136975;114.520376522248
319.727854946516;114.367287010705
319.749480756058;114.23586745629
319.771106565599;114.135527648737
319.792732375141;114.069080620395
319.814358184682;114.040705787274
319.835983994224;114.054798314662
319.857609803765;114.090815541977
319.879235613307;114.139896211963
319.900861422848;114.201616653722
319.92248723239;114.271868893736
319.944113041931;114.338969458968
319.965738851473;114.398382627993
319.987364661014;114.44934914697
320.008990470556;114.48750259623
320.030616280097;114.508168095468
320.052242089639;114.504392593888
320.073867899181;114.467932559134
320.095493708722;114.396696447764
320.117119518264;114.296045830479
320.138745327805;114.161951624695
320.160371137347;113.994826876462
320.181996946888;113.801937351835
320.20362275643;113.587688391891
320.225248565971;113.348920281561
320.246874375513;113.086415248118
320.268500185054;112.80968230722
320.290125994596;112.529494598431
320.311751804137;112.253320863812
320.333377613679;111.989630807331
320.35500342322;111.75190595937
320.376629232762;111.549540496492
320.398255042303;111.383438618099
320.419880851845;111.254403789589
320.441506661386;111.172922697377
320.463132470928;111.137819157851
320.484758280469;111.137750492361
320.506384090011;111.168762355027
320.528009899552;111.237705028521
320.549635709094;111.345697299954
320.571261518635;111.489456628076
320.592887328177;111.672981697969
320.614513137718;111.895955589664
320.63613894726;112.135992726277
320.657764756801;112.370311994771
320.679390566343;112.595725728629
320.701016375884;112.808244150826
320.722642185426;113.008422000623
320.744267994967;113.203220321018
320.765893804509;113.394913441641
320.78751961405;113.573428832872
320.809145423592;113.71985585502
320.830771233133;113.828785365088
320.852397042675;113.901040249513
320.874022852216;113.939599982141
320.895648661758;113.951565182759
320.917274471299;113.944651529966
320.938900280841;113.919833639182
320.960526090383;113.875558665288
320.982151899924;113.823065758052
321.003777709466;113.779708520391
321.025403519007;113.759882543502
321.047029328549;113.776775971535
321.06865513809;113.836328970327
321.090280947632;113.934708191657
321.111906757173;114.065766010468
321.133532566715;114.227556757441
321.155158376256;114.422251406745
321.176784185798;114.653658018481
321.198409995339;114.924033462837
321.220035804881;115.219179744682
321.241661614422;115.508196488399
321.263287423964;115.776860606173
321.284913233505;116.033322180501
321.306539043047;116.284016253965
321.328164852588;116.513144867257
321.34979066213;116.704438987649
321.371416471671;116.847007624604
321.393042281213;116.935506486406
321.414668090754;116.972595172299
321.436293900296;116.962585915993
321.457919709837;116.902193535344
321.479545519379;116.785640163566
321.50117132892;116.632463239264
321.522797138462;116.47339359283
321.544422948003;116.316696757759
321.566048757545;116.155852786652
321.587674567086;115.979459606957
321.609300376628;115.804275732934
321.630926186169;115.664427882621
321.652551995711;115.569898273887
321.674177805252;115.523665050593
321.695803614794;115.526207072877
321.717429424335;115.573337444327
321.739055233877;115.674243087995
321.760681043418;115.825569608689
321.78230685296;115.99568263499
321.803932662502;116.15656346278
321.825558472043;116.291565495273
321.847184281585;116.390624530498
321.868810091126;116.442050325602
321.890435900668;116.428489003997
321.912061710209;116.322473599507
321.933687519751;116.104091090141
321.955313329292;115.774322577746
321.976939138834;115.342783553621
321.998564948375;114.828965544158
322.020190757917;114.237144267789
322.041816567458;113.572433587446
322.063442377;112.888338773767
322.085068186541;112.238127118956
322.106693996083;111.639045738655
322.128319805624;111.095002549838
322.149945615166;110.612958363429
322.171571424707;110.190661359461
322.193197234249;109.822037071754
322.21482304379;109.506337491153
322.236448853332;109.260335462952
322.258074662873;109.104327854071
322.279700472415;109.040427505529
322.301326281956;109.051140932447
322.322952091498;109.117453363958
322.344577901039;109.228549517456
322.366203710581;109.374378206486
322.387829520122;109.548775340836
322.409455329664;109.739814810994
322.431081139205;109.94173559715
322.452706948747;110.149463225083
322.474332758288;110.352293167562
322.49595856783;110.532469592812
322.517584377371;110.67455578568
322.539210186913;110.776582507042
322.560835996454;110.84347885212
322.582461805996;110.877635414121
322.604087615537;110.88384422286
322.625713425079;110.874695340504
322.64733923462;110.858560397477
322.668965044162;110.840426749508
322.690590853704;110.822242292361
322.712216663245;110.809927591179
322.733842472787;110.811569790622
322.755468282328;110.834727181792
322.77709409187;110.892303674208
322.798719901411;110.982310935021
322.820345710953;111.093728392851
322.841971520494;111.228944143773
322.863597330036;111.378047897692
322.885223139577;111.529600003591
322.906848949119;111.681397605424
322.92847475866;111.830337598081
322.950100568202;111.9727661597
322.971726377743;112.098934240448
322.993352187285;112.201982393357
323.014977996826;112.277609711518
323.036603806368;112.326622414165
323.058229615909;112.348037309468
323.079855425451;112.343751959287
323.101481234992;112.311856646354
323.123107044534;112.243212322743
323.144732854075;112.137097154157
323.166358663617;112.000756575729
323.187984473158;111.837778432235
323.2096102827;111.655002921765
323.231236092241;111.463409073741
323.252861901783;111.26703596082
323.274487711324;111.069045176077
323.296113520866;110.877007826688
323.317739330407;110.703767358675
323.339365139949;110.560934448578
323.36099094949;110.459064868585
323.382616759032;110.407636776175
323.404242568573;110.406311489784
323.425868378115;110.450898676661
323.447494187656;110.532671875496
323.469119997198;110.636959738689
323.490745806739;110.748653635967
323.512371616281;110.85293651562
323.533997425822;110.941977287544
323.555623235364;111.00264305773
323.577249044906;111.031857712695
323.598874854447;111.029279610484
323.620500663989;110.99372969934
323.64212647353;110.925260980643
323.663752283072;110.826930056281
323.685378092613;110.700600408945
323.707003902155;110.548912010417
323.728629711696;110.389142387855
323.750255521238;110.236752604741
323.771881330779;110.093825711751
323.793507140321;109.943739329391
323.815132949862;109.774752207531
323.836758759404;109.598625346731
323.858384568945;109.435495443596
323.880010378487;109.296179237833
323.901636188028;109.174038782162
323.92326199757;109.058289673372
323.944887807111;108.936391739557
323.966513616653;108.80425038043
323.988139426194;108.66048512278
324.009765235736;108.505153452391
324.031391045277;108.34658901377
324.053016854819;108.18427497597
324.07464266436;108.016100514455
324.096268473902;107.841587356777
324.117894283443;107.662187149612
324.139520092985;107.471011299404
324.161145902526;107.265461827178
324.182771712068;107.056496193894
324.204397521609;106.850791816424
324.226023331151;106.652490745623
324.247649140692;106.463770920689
324.269274950234;106.279243664259
324.290900759775;106.096069731565
324.312526569317;105.914338737666
324.334152378858;105.733152524044
324.3557781884;105.545620560981
324.377403997941;105.336899693928
324.399029807483;105.102856915404
324.420655617024;104.848200808806
324.442281426566;104.579094782587
324.463907236108;104.30538278343
324.485533045649;104.022356249711
324.507158855191;103.73161487341
324.528784664732;103.440050449043
324.550410474274;103.15663537962
324.572036283815;102.884337866647
324.593662093357;102.624351364828
324.615287902898;102.381120410487
324.63691371244;102.169371994214
324.658539521981;102.005030467044
324.680165331523;101.882020817167
324.701791141064;101.788252389569
324.723416950606;101.713541937943
324.745042760147;101.651144749919
324.766668569689;101.593191891494
324.78829437923;101.533262632895
