Name;ESR_BC_1_359s_Y_gon_120dg_result

Recipe
Accumulations;5;Number of accumulations
RetryCount;0;Number of retries on error
AbortOnError;True;Abort on error
EnableQFactorMeasurement;False;Enable/Disable q-Factor measurement
Bfrom;313;B from
Bto;363;B to
SweepTime;60;Sweep time
Modulation;0.2;Modulation
ModulationFreq;100;Modulation
BHoldEnabled;False;B hold enabled
BHold;0;B hold
MicrowavePower;2;Microwave power
MarkerEnabled;False;
MarkerStartField;0;
MarkerEndField;0;
Mode;;
KineticGFact;0;
KineticTotalTransientTime;0;
KineticTimeResolution;0;
TempFrom;5;
TempUseSlope;False;
TempTo;5;
TempdT;1;
TempSetupTime;0;
GonFrom;0;
GonTo;180;
GonSteps;20;
XRayEnabled;False;
XRayTime;3;
XRayVoltage;40;
XRayCurrent;0.5;
UVEnabled;False;
UVIntensity;0;
UVTime;0;
UVLeadTime;0;
UVWavelength;0;
PowSweepFrom;1;
PowSweepTo;5;
PowSweepSteps;5;
AmpModSweepFrom;0;
AmpModSweepTo;1;
AmpModSweepSteps;10;
ExtTriggerEnabled;False;
ExtTrigLeadTime;0;
ExtTrigOnTime;5;

Meas
BField [mT];MW_Absorption []
313.016960067749;161.040446634359
313.038580331113;160.218008033402
313.060200594477;159.268355504695
313.081820857842;158.19215984367
313.103441121206;156.995737073596
313.12506138457;155.776809202935
313.146681647934;154.637627574848
313.168301911298;153.590518998832
313.189922174663;152.600429001692
313.211542438027;151.627863428304
313.233162701391;150.726144588836
313.254782964755;149.958044784169
313.276403228119;149.323766466997
313.298023491483;148.8280008055
313.319643754848;148.483923284687
313.341264018212;148.254343856662
313.362884281576;148.128185737958
313.38450454494;148.100467308176
313.406124808304;148.159314220157
313.427745071669;148.290269005114
313.449365335033;148.479738165402
313.470985598397;148.707124938806
313.492605861761;148.942614698439
313.514226125125;149.187296515419
313.53584638849;149.460278237266
313.557466651854;149.769971347151
313.579086915218;150.080326445488
313.600707178582;150.375377151043
313.622327441946;150.65234356587
313.643947705311;150.91563535421
313.665567968675;151.157579768706
313.687188232039;151.369667817861
313.708808495403;151.555924652417
313.730428758767;151.719833924446
313.752049022132;151.861572442537
313.773669285496;151.976264056028
313.79528954886;152.053937114535
313.816909812224;152.099993080894
313.838530075588;152.12502701288
313.860150338952;152.133160139053
313.881770602317;152.121888993735
313.903390865681;152.089396688165
313.925011129045;152.034515624946
313.946631392409;151.962478065151
313.968251655773;151.890317031195
313.989871919138;151.825579983385
314.011492182502;151.754040218887
314.033112445866;151.671263213435
314.05473270923;151.590649810624
314.076352972594;151.508810752521
314.097973235959;151.410191788339
314.119593499323;151.280624354679
314.141213762687;151.116885236647
314.162834026051;150.91386136396
314.184454289415;150.666302425393
314.20607455278;150.394842271585
314.227694816144;150.108399026573
314.249315079508;149.793158980491
314.270935342872;149.461548726717
314.292555606236;149.119083594669
314.3141758696;148.768008365537
314.335796132965;148.421317021494
314.357416396329;148.085903109747
314.379036659693;147.761000943427
314.400656923057;147.451788690529
314.422277186421;147.163079744112
314.443897449786;146.894718586303
314.46551771315;146.650590711577
314.487137976514;146.433640314838
314.508758239878;146.237487390709
314.530378503242;146.056001531755
314.551998766607;145.886219135118
314.573619029971;145.734188568959
314.595239293335;145.6042575156
314.616859556699;145.488199684212
314.638479820063;145.375334264782
314.660100083427;145.255267489569
314.681720346792;145.134147566949
314.703340610156;145.038545281443
314.72496087352;144.982283622673
314.746581136884;144.954778710126
314.768201400248;144.939123777497
314.789821663613;144.934061649521
314.811441926977;144.943968542978
314.833062190341;144.968693591025
314.854682453705;145.015268877766
314.876302717069;145.074354179413
314.897922980434;145.132754498798
314.919543243798;145.192808272227
314.941163507162;145.260739738156
314.962783770526;145.340296267232
314.98440403389;145.429992365331
315.006024297255;145.518931244979
315.027644560619;145.605084469842
315.049264823983;145.690481721082
315.070885087347;145.774825970105
315.092505350711;145.855504255816
315.114125614075;145.933889214019
315.13574587744;146.007837815379
315.157366140804;146.057953955675
315.178986404168;146.059950642883
315.200606667532;146.028220897477
315.222226930896;145.978982873971
315.243847194261;145.91521514245
315.265467457625;145.827902465819
315.287087720989;145.694618533688
315.308707984353;145.531904870659
315.330328247717;145.3500970243
315.351948511082;145.151832021013
315.373568774446;144.943241970215
315.39518903781;144.725670032851
315.416809301174;144.494762129293
315.438429564538;144.240656520203
315.460049827903;143.968338820826
315.481670091267;143.690388945257
315.503290354631;143.413973399886
315.524910617995;143.134367650461
315.546530881359;142.848988445945
315.568151144723;142.563884831595
315.589771408088;142.299740956919
315.611391671452;142.075974181433
315.633011934816;141.893740620128
315.65463219818;141.743415915328
315.676252461544;141.622597544224
315.697872724909;141.542671070572
315.719492988273;141.510038593068
315.741113251637;141.514925265619
315.762733515001;141.546964409206
315.784353778365;141.597057410292
315.80597404173;141.652072419593
315.827594305094;141.702071362749
315.849214568458;141.74132395359
315.870834831822;141.765722152278
315.892455095186;141.775611501476
315.914075358551;141.769899101717
315.935695621915;141.741161452282
315.957315885279;141.678930055515
315.978936148643;141.58407524386
316.000556412007;141.466914650933
316.022176675372;141.332388138868
316.043796938736;141.17664134817
316.0654172021;141.006225200524
316.087037465464;140.82708186486
316.108657728828;140.637468821824
316.130277992192;140.438142267889
316.151898255557;140.239816091794
316.173518518921;140.053769965992
316.195138782285;139.877508091784
316.216759045649;139.710853813368
316.238379309013;139.566290387363
316.259999572378;139.448852292545
316.281619835742;139.355951621936
316.303240099106;139.279836979663
316.32486036247;139.207967351637
316.346480625834;139.134110711265
316.368100889199;139.065227488088
316.389721152563;139.011527714663
316.411341415927;138.967283951189
316.432961679291;138.916723529684
316.454581942655;138.853418139493
316.476202206019;138.778575476672
316.497822469384;138.691672330021
316.519442732748;138.593014072457
316.541062996112;138.481224580897
316.562683259476;138.361511287719
316.58430352284;138.243679831348
316.605923786205;138.128523130565
316.627544049569;138.013693350026
316.649164312933;137.895231127588
316.670784576297;137.762585039325
316.692404839661;137.613020662766
316.714025103026;137.44921370433
316.73564536639;137.263563493703
316.757265629754;137.08323558798
316.778885893118;136.907540082664
316.800506156482;136.729390995747
316.822126419847;136.551462502559
316.843746683211;136.366654179761
316.865366946575;136.174537819288
316.886987209939;135.97773972206
316.908607473303;135.774581454617
316.930227736667;135.573367185948
316.951848000032;135.399349213339
316.973468263396;135.253926381904
316.99508852676;135.130273485626
317.016708790124;135.018981775242
317.038329053488;134.91115622139
317.059949316853;134.802700806835
317.081569580217;134.694236884145
317.103189843581;134.588420541734
317.124810106945;134.472621589656
317.146430370309;134.337251490762
317.168050633674;134.188908030597
317.189670897038;134.034526349864
317.211291160402;133.87185594852
317.232911423766;133.694708854922
317.25453168713;133.505569193393
317.276151950495;133.302391128475
317.297772213859;133.07342302077
317.319392477223;132.822315167305
317.341012740587;132.564025898396
317.362633003951;132.303894869404
317.384253267315;132.04125991123
317.40587353068;131.776716595758
317.427493794044;131.515625929273
317.449114057408;131.266389892122
317.470734320772;131.037330248294
317.492354584136;130.831163627536
317.513974847501;130.649820663426
317.535595110865;130.502872503841
317.557215374229;130.402001884667
317.578835637593;130.350718663669
317.600455900957;130.349059221425
317.622076164322;130.400619955168
317.643696427686;130.505638230077
317.66531669105;130.654213952694
317.686936954414;130.833683156441
317.708557217778;131.041017764393
317.730177481143;131.275758939399
317.751797744507;131.519465619217
317.773418007871;131.744318529471
317.795038271235;131.934534755277
317.816658534599;132.081947331027
317.838278797963;132.181678701172
317.859899061328;132.229335231315
317.881519324692;132.222192204126
317.903139588056;132.173180316512
317.92475985142;132.096265657296
317.946380114784;131.994345013438
317.968000378149;131.872125390587
317.989620641513;131.734400874398
318.011240904877;131.578807761981
318.032861168241;131.422429167261
318.054481431605;131.29496770077
318.07610169497;131.202063642652
318.097721958334;131.134726401003
318.119342221698;131.077082269011
318.140962485062;131.01592904248
318.162582748426;130.950159306327
318.18420301179;130.890316471967
318.205823275155;130.835968922271
318.227443538519;130.771342448467
318.249063801883;130.697501226561
318.270684065247;130.626767982717
318.292304328611;130.559792968039
318.313924591976;130.497726961726
318.33554485534;130.455088142043
318.357165118704;130.430640850351
318.378785382068;130.418915669018
318.400405645432;130.416943810182
318.422025908797;130.429668210604
318.443646172161;130.461380188053
318.465266435525;130.510168045305
318.486886698889;130.564015868806
318.508506962253;130.612007642425
318.530127225618;130.657974146103
318.551747488982;130.700659274857
318.573367752346;130.73995065837
318.59498801571;130.768388783767
318.616608279074;130.779602296391
318.638228542438;130.77090562945
318.659848805803;130.745746730755
318.681469069167;130.705298930936
318.703089332531;130.64252092491
318.724709595895;130.555518190002
318.746329859259;130.457170987128
318.767950122624;130.353053473063
318.789570385988;130.244398733533
318.811190649352;130.140135446104
318.832810912716;130.051822125774
318.85443117608;129.991694762733
318.876051439445;129.962538607925
318.897671702809;129.961837742871
318.919291966173;129.986083495385
318.940912229537;130.035366607111
318.962532492901;130.108820789706
318.984152756266;130.209349310471
319.00577301963;130.339653462714
319.027393282994;130.503652828014
319.049013546358;130.692750055457
319.070633809722;130.893763225961
319.092254073087;131.106854267876
319.113874336451;131.333402011612
319.135494599815;131.570115577669
319.157114863179;131.81740475422
319.178735126543;132.076772376868
319.200355389907;132.343001816351
319.221975653272;132.610177906499
319.243595916636;132.870740970088
319.26521618;133.124662189536
319.286836443364;133.375464468599
319.308456706728;133.620954222246
319.330076970093;133.856673418726
319.351697233457;134.08291824164
319.373317496821;134.299075019252
319.394937760185;134.503473617484
319.416558023549;134.697346333437
319.438178286914;134.882062661917
319.459798550278;135.056039440403
319.481418813642;135.218079277576
319.503039077006;135.373079163089
319.52465934037;135.52155196901
319.546279603734;135.650889223976
319.567899867099;135.751957649899
319.589520130463;135.813919447655
319.611140393827;135.832941311341
319.632760657191;135.809809957886
319.654380920555;135.741510579779
319.67600118392;135.623235982452
319.697621447284;135.451414714566
319.719241710648;135.221527267006
319.740861974012;134.92850707014
319.762482237376;134.585336012745
319.784102500741;134.214925944178
319.805722764105;133.828982055408
319.827343027469;133.43919268387
319.848963290833;133.053405798401
319.870583554197;132.665929463992
319.892203817561;132.272178105551
319.913824080926;131.88400720829
319.93544434429;131.516074043079
319.957064607654;131.172054909148
319.978684871018;130.857498483017
320.000305134382;130.576876970309
320.021925397747;130.331981322782
320.043545661111;130.123036505304
320.065165924475;129.949906987588
320.086786187839;129.811270912194
320.108406451203;129.705924524009
320.130026714568;129.637340055395
320.151646977932;129.60959913629
320.173267241296;129.62555686293
320.19488750466;129.68398389655
320.216507768024;129.774658721934
320.238128031389;129.887672717219
320.259748294753;130.018195493726
320.281368558117;130.165657490813
320.302988821481;130.320958699615
320.324609084845;130.46034638883
320.34622934821;130.562262795447
320.367849611574;130.618960055249
320.389469874938;130.626848318939
320.411090138302;130.580524145926
320.432710401666;130.479958941957
320.45433066503;130.321997990462
320.475950928395;130.111338991817
320.497571191759;129.855249435431
320.519191455123;129.555981681091
320.540811718487;129.219916027092
320.562431981851;128.867990633621
320.584052245216;128.51824779369
320.60567250858;128.177693990469
320.627292771944;127.858238208844
320.648913035308;127.575921717453
320.670533298672;127.334204885942
320.692153562037;127.132343931069
320.713773825401;126.970815070016
320.735394088765;126.857534541507
320.757014352129;126.811019228192
320.778634615493;126.820663503405
320.800254878858;126.862561298227
320.821875142222;126.923316692589
320.843495405586;126.994543048308
320.86511566895;127.066268655315
320.886735932314;127.127164280575
320.908356195678;127.167133700084
320.929976459043;127.179298605637
320.951596722407;127.162629517127
320.973216985771;127.119505489579
320.994837249135;127.056446403278
321.016457512499;126.989998592316
321.038077775864;126.940056531727
321.059698039228;126.90858618472
321.081318302592;126.891842171864
321.102938565956;126.89121836339
321.12455882932;126.911746917706
321.146179092685;126.949088861741
321.167799356049;126.995738117004
321.189419619413;127.048022066714
321.211039882777;127.102237585971
321.232660146141;127.148444407604
321.254280409506;127.172385641258
321.27590067287;127.172724664176
321.297520936234;127.155917453803
321.319141199598;127.131600903943
321.340761462962;127.095989411939
321.362381726326;127.042605182415
321.384001989691;126.974721673373
321.405622253055;126.89983845278
321.427242516419;126.81720371215
321.448862779783;126.72597621846
321.470483043147;126.628705552521
321.492103306512;126.52500675645
321.513723569876;126.413617433343
321.53534383324;126.294103828596
321.556964096604;126.172494808328
321.578584359968;126.045862008821
321.600204623333;125.91342669543
321.621824886697;125.779307553046
321.643445150061;125.649640966286
321.665065413425;125.514930718035
321.686685676789;125.361263582754
321.708305940153;125.192918721518
321.729926203518;125.019172063109
321.751546466882;124.832312092839
321.773166730246;124.612244730867
321.79478699361;124.347766524023
321.816407256974;124.029039358753
321.838027520339;123.640786764702
321.859647783703;123.170918630338
321.881268047067;122.608898905616
321.902888310431;121.95517403026
321.924508573795;121.235918552892
321.94612883716;120.485969472864
321.967749100524;119.702650370412
321.989369363888;118.879296092296
322.010989627252;118.02748394754
322.032609890616;117.162805268967
322.054230153981;116.302400568017
322.075850417345;115.477355729172
322.097470680709;114.677445243776
322.119090944073;113.902177641517
322.140711207437;113.17293781226
322.162331470801;112.502274855981
322.183951734166;111.87962838612
322.20557199753;111.325567995586
322.227192260894;110.87882710408
322.248812524258;110.553231633463
322.270432787622;110.33569912102
322.292053050987;110.217976040226
322.313673314351;110.21165189597
322.335293577715;110.313293877869
322.356913841079;110.505354966934
322.378534104443;110.788230752738
322.400154367808;111.144662767633
322.421774631172;111.525897289924
322.443394894536;111.916242077564
322.4650151579;112.304937979
322.486635421264;112.673767051299
322.508255684629;113.005964500156
322.529875947993;113.284150265487
322.551496211357;113.507161988689
322.573116474721;113.671225793743
322.594736738085;113.774589328236
322.61635700145;113.821026203929
322.637977264814;113.812070453342
322.659597528178;113.752963044477
322.681217791542;113.650624488632
322.702838054906;113.514369060516
322.72445831827;113.353833472299
322.746078581635;113.175043212961
322.767698844999;112.983261591016
322.789319108363;112.779811427288
322.810939371727;112.566617905736
322.832559635091;112.343093109002
322.854179898456;112.107516761713
322.87580016182;111.862915584147
322.897420425184;111.611802909302
322.919040688548;111.35514403455
322.940660951912;111.092958345857
322.962281215277;110.825861553377
322.983901478641;110.555148065979
323.005521742005;110.284111339905
323.027142005369;110.021944102474
323.048762268733;109.778059929783
323.070382532097;109.560103032731
323.092002795462;109.367236319266
323.113623058826;109.197865683493
323.13524332219;109.051644875581
323.156863585554;108.922653181334
323.178483848918;108.802721261282
323.200104112283;108.688317086919
323.221724375647;108.582421288204
323.243344639011;108.488509347917
323.264964902375;108.405533618383
323.286585165739;108.330153858672
323.308205429104;108.257006303832
323.329825692468;108.173938458667
323.351445955832;108.075597287565
323.373066219196;107.971407212063
323.39468648256;107.864762392528
323.416306745925;107.749298842181
323.437927009289;107.613606935407
323.459547272653;107.452570695274
323.481167536017;107.270884846858
323.502787799381;107.05622839358
323.524408062745;106.784517747936
323.54602832611;106.452325230355
323.567648589474;106.071813459802
323.589268852838;105.648558606188
323.610889116202;105.190834106855
323.632509379566;104.717960865894
323.654129642931;104.238192184308
323.675749906295;103.7424124285
323.697370169659;103.249099697645
323.718990433023;102.800763270878
323.740610696387;102.410228375017
323.762230959752;102.067282256608
323.783851223116;101.75948014184
323.80547148648;101.490448648208
323.827091749844;101.279559283263
323.848712013208;101.139485440915
323.870332276573;101.054164393592
323.891952539937;101.004388078811
323.913572803301;100.979037077669
323.935193066665;100.968074088404
323.956813330029;100.95889850515
323.978433593393;100.94384728593
324.000053856758;100.924438539081
324.021674120122;100.9036504622
324.043294383486;100.881183182146
324.06491464685;100.85406775706
324.086534910214;100.816459518847
324.108155173579;100.767583067329
324.129775436943;100.71253908716
324.151395700307;100.655766220545
324.173015963671;100.596261152375
324.194636227035;100.520288626581
324.2162564904;100.425182628597
324.237876753764;100.332385046646
324.259497017128;100.245525427273
324.281117280492;100.15277109506
324.302737543856;100.044207551615
324.324357807221;99.9227186455025
324.345978070585;99.7936013769749
324.367598333949;99.6579101346459
324.389218597313;99.5127213431889
324.410838860677;99.3532798366622
324.432459124041;99.1792941934653
324.454079387406;98.9954973075689
324.47569965077;98.8051201345632
324.497319914134;98.6099184688869
324.518940177498;98.4106905792657
324.540560440862;98.2046627158671
324.562180704227;97.9887120351774
324.583800967591;97.7668577803428
324.605421230955;97.5565247104117
324.627041494319;97.3594259618909
324.648661757683;97.1633823193856
324.670282021048;96.9670382650611
324.691902284412;96.7767584485753
324.713522547776;96.5979776266943
324.73514281114;96.4338393166875
324.756763074504;96.2886627244852
324.778383337868;96.1640816744304
