Name;ESR_BC_1_14400s_X_gon_140dg_result

Recipe
Accumulations;5;Number of accumulations
RetryCount;0;Number of retries on error
AbortOnError;True;Abort on error
EnableQFactorMeasurement;False;Enable/Disable q-Factor measurement
Bfrom;313;B from
Bto;363;B to
SweepTime;60;Sweep time
Modulation;0.2;Modulation
ModulationFreq;100;Modulation
BHoldEnabled;False;B hold enabled
BHold;0;B hold
MicrowavePower;2;Microwave power
MarkerEnabled;False;
MarkerStartField;0;
MarkerEndField;0;
Mode;;
KineticGFact;0;
KineticTotalTransientTime;0;
KineticTimeResolution;0;
TempFrom;5;
TempUseSlope;False;
TempTo;5;
TempdT;1;
TempSetupTime;0;
GonFrom;0;
GonTo;180;
GonSteps;20;
XRayEnabled;False;
XRayTime;3;
XRayVoltage;40;
XRayCurrent;0.5;
UVEnabled;False;
UVIntensity;0;
UVTime;0;
UVLeadTime;0;
UVWavelength;0;
PowSweepFrom;1;
PowSweepTo;5;
PowSweepSteps;5;
AmpModSweepFrom;0;
AmpModSweepTo;1;
AmpModSweepSteps;10;
ExtTriggerEnabled;False;
ExtTrigLeadTime;0;
ExtTrigOnTime;5;

Meas
BField [mT];MW_Absorption []
313.015955352783;690.757206624344
313.037567080923;689.851443195877
313.059178809064;688.302255493156
313.080790537204;686.719610598462
313.102402265344;685.14590769
313.124013993484;683.660996465784
313.145625721625;682.315729942438
313.167237449765;681.07103921263
313.188849177905;679.866905506339
313.210460906045;678.65941067294
313.232072634185;677.433677915117
313.253684362326;676.242257261106
313.275296090466;675.135481278721
313.296907818606;674.078966193055
313.318519546746;673.041443067191
313.340131274887;672.061472372792
313.361743003027;671.169468269549
313.383354731167;670.324246442353
313.404966459307;669.491250654656
313.426578187447;668.657306521246
313.448189915588;667.807907686143
313.469801643728;666.946246842055
313.491413371868;666.102977097989
313.513025100008;665.275031530654
313.534636828149;664.413981054667
313.556248556289;663.514793138574
313.577860284429;662.624375699164
313.599472012569;661.746458030573
313.62108374071;660.857384841968
313.64269546885;659.952048447507
313.66430719699;659.047378576312
313.68591892513;658.175764693931
313.70753065327;657.337351693961
313.729142381411;656.516235459969
313.750754109551;655.712444249244
313.772365837691;654.924895782948
313.793977565831;654.116479239779
313.815589293972;653.247721578772
313.837201022112;652.360939073926
313.858812750252;651.511976601486
313.880424478392;650.639615415248
313.902036206533;649.693467194731
313.923647934673;648.688068080844
313.945259662813;647.657766900404
313.966871390953;646.5958584467
313.988483119093;645.507366144833
314.010094847234;644.392890517597
314.031706575374;643.226772951962
314.053318303514;642.041621700867
314.074930031654;640.869731633743
314.096541759795;639.681816201746
314.118153487935;638.458905191275
314.139765216075;637.204564712136
314.161376944215;635.899411456358
314.182988672355;634.544768772217
314.204600400496;633.169303178611
314.226212128636;631.777675891369
314.247823856776;630.357426536289
314.269435584916;628.903424473917
314.291047313057;627.434653803742
314.312659041197;625.974639562859
314.334270769337;624.517176375926
314.355882497477;623.030112797241
314.377494225618;621.495096083176
314.399105953758;620.003566752352
314.420717681898;618.63668634663
314.442329410038;617.353613674245
314.463941138178;616.102200998571
314.485552866319;614.83214602734
314.507164594459;613.528732789554
314.528776322599;612.214120819114
314.550388050739;610.918496263826
314.57199977888;609.662029487328
314.59361150702;608.458011526677
314.61522323516;607.297312520916
314.6368349633;606.191186801862
314.65844669144;605.159977602565
314.680058419581;604.201685121619
314.701670147721;603.297920082211
314.723281875861;602.43992118576
314.744893604001;601.603056180205
314.766505332142;600.730778777885
314.788117060282;599.816045022479
314.809728788422;598.915565021937
314.831340516562;598.03954474729
314.852952244702;597.165644742686
314.874563972843;596.26338065942
314.896175700983;595.321991077853
314.917787429123;594.344232373771
314.939399157263;593.312482267095
314.961010885404;592.237988289823
314.982622613544;591.155360191168
315.004234341684;590.072997104033
315.025846069824;588.977179604766
315.047457797965;587.842767545699
315.069069526105;586.656386576628
315.090681254245;585.441749808753
315.112292982385;584.200384115105
315.133904710525;582.907862130268
315.155516438666;581.605428618397
315.177128166806;580.336043028341
315.198739894946;579.070037775513
315.220351623086;577.745365104731
315.241963351227;576.379277127653
315.263575079367;575.085428991803
315.285186807507;573.882176461751
315.306798535647;572.723756485593
315.328410263787;571.605805136195
315.350021991928;570.527527535622
315.371633720068;569.463603854459
315.393245448208;568.382643912418
315.414857176348;567.286327285631
315.436468904489;566.206860781369
315.458080632629;565.139085679412
315.479692360769;564.04956272766
315.501304088909;562.91848424007
315.52291581705;561.770567284248
315.54452754519;560.62142751747
315.56613927333;559.461672351062
315.58775100147;558.261436505528
315.60936272961;557.039801472659
315.630974457751;555.80349680936
315.652586185891;554.573058346521
315.674197914031;553.394502115246
315.695809642171;552.281162842411
315.717421370312;551.206151459415
315.739033098452;550.134288179728
315.760644826592;549.043846072781
315.782256554732;547.96570312839
315.803868282872;546.959194722826
315.825480011013;546.044805780541
315.847091739153;545.209701189463
315.868703467293;544.435423876021
315.890315195433;543.70651698955
315.911926923574;543.020975902009
315.933538651714;542.381500466343
315.955150379854;541.815215307287
315.976762107994;541.335647936034
315.998373836135;540.926001722591
316.019985564275;540.564255266758
316.041597292415;540.232313274517
316.063209020555;539.92703865707
316.084820748695;539.664592840527
316.106432476836;539.444045151768
316.128044204976;539.237991290239
316.149655933116;539.020522463508
316.171267661256;538.780419260929
316.192879389397;538.519627016933
316.214491117537;538.237167779818
316.236102845677;537.9172236963
316.257714573817;537.551651529737
316.279326301958;537.146525419971
316.300938030098;536.698631186912
316.322549758238;536.190239477024
316.344161486378;535.594021118922
316.365773214518;534.886272061921
316.387384942659;534.093397264499
316.408996670799;533.275423547127
316.430608398939;532.455261508563
316.452220127079;531.605853269525
316.47383185522;530.702353015446
316.49544358336;529.77040077564
316.5170553115;528.862376195973
316.53866703964;527.975114183665
316.56027876778;527.092948876738
316.581890495921;526.217082173826
316.603502224061;525.364025118897
316.625113952201;524.552598612154
316.646725680341;523.784518354988
316.668337408482;523.020120161534
316.689949136622;522.233919836273
316.711560864762;521.432892020025
316.733172592902;520.66577861194
316.754784321042;519.960713071672
316.776396049183;519.284925761891
316.798007777323;518.624803573116
316.819619505463;517.971622695284
316.841231233603;517.342486125838
316.862842961744;516.762247991887
316.884454689884;516.22437834789
316.906066418024;515.721099129041
316.927678146164;515.258004325355
316.949289874305;514.81688541954
316.970901602445;514.379091242673
316.992513330585;513.951253091709
317.014125058725;513.533759802082
317.035736786865;513.106240241775
317.057348515006;512.659015815795
317.078960243146;512.19282857466
317.100571971286;511.678681986519
317.122183699426;511.094570451098
317.143795427567;510.457262251848
317.165407155707;509.76816161669
317.187018883847;509.00198867384
317.208630611987;508.163804231036
317.230242340127;507.244381867157
317.251854068268;506.256126237752
317.273465796408;505.235739712829
317.295077524548;504.206106432128
317.316689252688;503.165843782328
317.338300980829;502.129392515049
317.359912708969;501.118672893459
317.381524437109;500.122291510358
317.403136165249;499.12018011761
317.42474789339;498.095015055436
317.44635962153;497.04238890476
317.46797134967;495.961405775403
317.48958307781;494.852989475947
317.51119480595;493.768773155882
317.532806534091;492.761318102683
317.554418262231;491.813607834309
317.576029990371;490.897413248534
317.597641718511;489.989515769683
317.619253446652;489.072837416765
317.640865174792;488.148257119218
317.662476902932;487.234997060574
317.684088631072;486.350571544905
317.705700359212;485.493722468134
317.727312087353;484.654066274506
317.748923815493;483.819139264814
317.770535543633;482.969018668673
317.792147271773;482.068002699146
317.813758999914;481.090246377824
317.835370728054;480.058200694569
317.856982456194;478.988675260842
317.878594184334;477.890583478796
317.900205912475;476.798741678753
317.921817640615;475.747386289164
317.943429368755;474.738239202637
317.965041096895;473.75470529011
317.986652825035;472.785876890975
318.008264553176;471.831653979499
318.029876281316;470.910095363106
318.051488009456;470.04913304405
318.073099737596;469.24407047418
318.094711465737;468.472423732252
318.116323193877;467.724241448589
318.137934922017;467.003063225562
318.159546650157;466.309899086383
318.181158378297;465.64937839801
318.202770106438;465.020170335816
318.224381834578;464.410634473616
318.245993562718;463.814803220796
318.267605290858;463.244911023194
318.289217018999;462.703915849254
318.310828747139;462.175966278843
318.332440475279;461.647627962837
318.354052203419;461.121089969116
318.37566393156;460.596154025449
318.3972756597;460.068673906731
318.41888738784;459.536075885519
318.44049911598;458.97567025962
318.46211084412;458.366701771766
318.483722572261;457.707902110731
318.505334300401;457.018399037722
318.526946028541;456.311548443623
318.548557756681;455.575063565507
318.570169484822;454.806181754451
318.591781212962;454.047739435009
318.613392941102;453.311695438107
318.635004669242;452.576147499751
318.656616397382;451.8555024598
318.678228125523;451.156463823256
318.699839853663;450.469135575123
318.721451581803;449.817523162567
318.743063309943;449.224567605604
318.764675038084;448.706615713523
318.786286766224;448.260044956642
318.807898494364;447.87178107734
318.829510222504;447.526366275698
318.851121950644;447.218966285375
318.872733678785;446.952840393973
318.894345406925;446.710556282103
318.915957135065;446.480169809031
318.937568863205;446.264073222627
318.959180591346;446.057885211377
318.980792319486;445.849567463124
319.002404047626;445.621153178647
319.024015775766;445.37205464469
319.045627503907;445.118412474726
319.067239232047;444.863676087125
319.088850960187;444.597672328666
319.110462688327;444.316841710721
319.132074416467;444.030106044402
319.153686144608;443.750073570115
319.175297872748;443.467624975605
319.196909600888;443.167502058015
319.218521329028;442.846612558349
319.240133057169;442.511583400599
319.261744785309;442.159666141091
319.283356513449;441.782190956031
319.304968241589;441.365875298083
319.326579969729;440.90282380988
319.34819169787;440.392269556613
319.36980342601;439.833786609823
319.39141515415;439.23684391174
319.41302688229;438.627492555162
319.434638610431;437.989532709648
319.456250338571;437.309987007972
319.477862066711;436.6160235581
319.499473794851;435.954815837897
319.521085522992;435.345513062913
319.542697251132;434.779944874748
319.564308979272;434.241065281171
319.585920707412;433.71650605218
319.607532435552;433.212802384262
319.629144163693;432.74602514776
319.650755891833;432.317921180335
319.672367619973;431.902318456719
319.693979348113;431.466010743897
319.715591076254;430.995847238926
319.737202804394;430.511608363887
319.758814532534;430.020217491257
319.780426260674;429.51786414161
319.802037988815;428.998635612316
319.823649716955;428.463576373662
319.845261445095;427.908579345524
319.866873173235;427.345979797935
319.888484901375;426.792266614557
319.910096629516;426.245152609627
319.931708357656;425.706099722708
319.953320085796;425.182522961043
319.974931813936;424.678734099609
319.996543542077;424.197972476111
320.018155270217;423.727955330955
320.039766998357;423.260527767467
320.061378726497;422.808612949044
320.082990454637;422.37435809059
320.104602182778;421.949858619333
320.126213910918;421.540828067691
320.147825639058;421.165792147894
320.169437367198;420.835365368635
320.191049095339;420.541131349219
320.212660823479;420.26699059942
320.234272551619;420.011461672207
320.255884279759;419.780104785381
320.2774960079;419.574706042168
320.29910773604;419.393649784293
320.32071946418;419.232295251568
320.34233119232;419.082226327237
320.36394292046;418.93179351678
320.385554648601;418.768683430942
320.407166376741;418.584865044102
320.428778104881;418.369725094238
320.450389833021;418.106523472249
320.472001561162;417.775069972483
320.493613289302;417.349744826195
320.515225017442;416.819610197502
320.536836745582;416.177971930218
320.558448473722;415.414023358961
320.580060201863;414.528220390718
320.601671930003;413.534760259046
320.623283658143;412.432928921873
320.644895386283;411.273113780637
320.666507114424;410.086394633788
320.688118842564;408.852281146148
320.709730570704;407.580820939941
320.731342298844;406.307171336279
320.752954026984;405.069763083459
320.774565755125;403.896363713
320.796177483265;402.75793346931
320.817789211405;401.615413390283
320.839400939545;400.469006076702
320.861012667686;399.341149770841
320.882624395826;398.242429180344
320.904236123966;397.154841236384
320.925847852106;396.059138172826
320.947459580247;394.946796935336
320.969071308387;393.808895132798
320.990683036527;392.632482863824
321.012294764667;391.389830420724
321.033906492807;390.086800610198
321.055518220948;388.676202287932
321.077129949088;387.129090370694
321.098741677228;385.500940061725
321.120353405368;383.863059271075
321.141965133509;382.177436984447
321.163576861649;380.422750184083
321.185188589789;378.644527573877
321.206800317929;376.849713838788
321.228412046069;375.01407978957
321.25002377421;373.084761823361
321.27163550235;371.098415126379
321.29324723049;369.209150012889
321.31485895863;367.497341597738
321.336470686771;365.931674746939
321.358082414911;364.431927741316
321.379694143051;362.979153788011
321.401305871191;361.673441184579
321.422917599332;360.567381399348
321.444529327472;359.640252365483
321.466141055612;358.890792988547
321.487752783752;358.326806789523
321.509364511892;357.934944507546
321.530976240033;357.662538314449
321.552587968173;357.484353145986
321.574199696313;357.396979641485
321.595811424453;357.387374079108
321.617423152594;357.43036049158
321.639034880734;357.50266323886
321.660646608874;357.588048213887
321.682258337014;357.676223575193
321.703870065154;357.763667843412
321.725481793295;357.844284918986
321.747093521435;357.8998666832
321.768705249575;357.911968732478
321.790316977715;357.882466598069
321.811928705856;357.820777177754
321.833540433996;357.727596453631
321.855152162136;357.598650700718
321.876763890276;357.425301932007
321.898375618417;357.201300336921
321.919987346557;356.938400341928
321.941599074697;356.660980896736
321.963210802837;356.382942451805
321.984822530977;356.111671657251
322.006434259118;355.853017033332
322.028045987258;355.605464143179
322.049657715398;355.367260191844
322.071269443538;355.146347922694
322.092881171679;354.958104263999
322.114492899819;354.785938787725
322.136104627959;354.615047143174
322.157716356099;354.428997601801
322.17932808424;354.218638170759
322.20093981238;353.983534460005
322.22255154052;353.723341477785
322.24416326866;353.424224826277
322.2657749968;353.073192783819
322.287386724941;352.664289533369
322.308998453081;352.210858011213
322.330610181221;351.727728970737
322.352221909361;351.222154690327
322.373833637501;350.686122392587
322.395445365642;350.112136272703
322.417057093782;349.504338653635
322.438668821922;348.875792610157
322.460280550062;348.243246989901
322.481892278203;347.624434862812
322.503504006343;347.011221114937
322.525115734483;346.401597539794
322.546727462623;345.782111513503
322.568339190764;345.139777079516
322.589950918904;344.496187703788
322.611562647044;343.886974047936
322.633174375184;343.281564614141
322.654786103324;342.641274880434
322.676397831465;341.973854722693
322.698009559605;341.313159331625
322.719621287745;340.625701761487
322.741233015885;339.879073837557
322.762844744026;339.092153276303
322.784456472166;338.318049729091
322.806068200306;337.547462721693
322.827679928446;336.770419478866
322.849291656587;336.009545018282
322.870903384727;335.281086390713
322.892515112867;334.564141724354
322.914126841007;333.844150463079
322.935738569147;333.152224645247
322.957350297288;332.509480027754
322.978962025428;331.916279288472
323.000573753568;331.367434175094
323.022185481708;330.862071418573
323.043797209849;330.401126901522
323.065408937989;329.969144582901
323.087020666129;329.540350958023
323.108632394269;329.115836328883
323.130244122409;328.705353427424
323.15185585055;328.283495029854
323.17346757869;327.812339525709
323.19507930683;327.300187253701
323.21669103497;326.79310795647
323.238302763111;326.293190163767
323.259914491251;325.784518691384
323.281526219391;325.252867754763
323.303137947531;324.707357055262
323.324749675672;324.159912840082
323.346361403812;323.605968551437
323.367973131952;323.049279592206
323.389584860092;322.519634705213
323.411196588232;322.050317474272
323.432808316373;321.652501171744
323.454420044513;321.322893345042
323.476031772653;321.049434429442
323.497643500793;320.827436812791
323.519255228934;320.652743404149
323.540866957074;320.516477299883
323.562478685214;320.410172661035
323.584090413354;320.330943306297
323.605702141494;320.275556024547
323.627313869635;320.231099824998
323.648925597775;320.178628648004
323.670537325915;320.098684078573
323.692149054055;319.974496178037
323.713760782196;319.795473078149
323.735372510336;319.559631895259
323.756984238476;319.26879292394
323.778595966616;318.914904486072
323.800207694757;318.498420207331
323.821819422897;318.014916004145
323.843431151037;317.449218654355
323.865042879177;316.801795118204
323.886654607317;316.095335821139
323.908266335458;315.360730338641
323.929878063598;314.614135224608
323.951489791738;313.835739322973
323.973101519878;313.004962690856
323.994713248019;312.128236439418
324.016324976159;311.216540902213
324.037936704299;310.286102322695
324.059548432439;309.35017499074
324.081160160579;308.421360766588
324.10277188872;307.51927740152
324.12438361686;306.645266519106
324.145995345;305.777459557051
324.16760707314;304.927830905097
324.189218801281;304.098256859377
324.210830529421;303.277929211478
324.232442257561;302.485713593881
324.254053985701;301.773004700846
324.275665713841;301.109554335632
324.297277441982;300.433077651013
324.318889170122;299.735756823266
324.340500898262;299.025205364447
324.362112626402;298.300129694746
324.383724354543;297.547302027292
324.405336082683;296.729038066733
324.426947810823;295.826688867444
324.448559538963;294.867680642335
324.470171267104;293.881252050144
324.491782995244;292.840454186112
324.513394723384;291.67714354557
324.535006451524;290.39614970985
324.556618179664;289.059105958987
324.578229907805;287.671828065347
324.599841635945;286.21068090668
324.621453364085;284.671861397649
324.643065092225;283.069873616863
324.664676820366;281.414061183776
324.686288548506;279.72949085541
324.707900276646;277.978309668722
324.729512004786;276.126379128839
324.751123732926;274.207448265347
324.772735461067;272.340202524742
