Name;ESR_BC_1_14400s_X_gon_80dg_result

Recipe
Accumulations;5;Number of accumulations
RetryCount;0;Number of retries on error
AbortOnError;True;Abort on error
EnableQFactorMeasurement;False;Enable/Disable q-Factor measurement
Bfrom;313;B from
Bto;363;B to
SweepTime;60;Sweep time
Modulation;0.2;Modulation
ModulationFreq;100;Modulation
BHoldEnabled;False;B hold enabled
BHold;0;B hold
MicrowavePower;2;Microwave power
MarkerEnabled;False;
MarkerStartField;0;
MarkerEndField;0;
Mode;;
KineticGFact;0;
KineticTotalTransientTime;0;
KineticTimeResolution;0;
TempFrom;5;
TempUseSlope;False;
TempTo;5;
TempdT;1;
TempSetupTime;0;
GonFrom;0;
GonTo;180;
GonSteps;20;
XRayEnabled;False;
XRayTime;3;
XRayVoltage;40;
XRayCurrent;0.5;
UVEnabled;False;
UVIntensity;0;
UVTime;0;
UVLeadTime;0;
UVWavelength;0;
PowSweepFrom;1;
PowSweepTo;5;
PowSweepSteps;5;
AmpModSweepFrom;0;
AmpModSweepTo;1;
AmpModSweepSteps;10;
ExtTriggerEnabled;False;
ExtTrigLeadTime;0;
ExtTrigOnTime;5;

Meas
BField [mT];MW_Absorption []
313.021907730103;660.939231355742
313.043522629583;660.270656459323
313.065137529064;659.54726256329
313.086752428544;658.843205092934
313.108367328025;658.145615454745
313.129982227505;657.437925430846
313.151597126986;656.716018771014
313.173212026467;655.981323132747
313.194826925947;655.222039481068
313.216441825428;654.440174360997
313.238056724908;653.649931757326
313.259671624389;652.837371826759
313.281286523869;651.997262569021
313.30290142335;651.14684980698
313.32451632283;650.289626436563
313.346131222311;649.426654316039
313.367746121792;648.571476561699
313.389361021272;647.745073900112
313.410975920753;646.960422135402
313.432590820233;646.216328095806
313.454205719714;645.516319239787
313.475820619194;644.880204721896
313.497435518675;644.31603233047
313.519050418156;643.826876326876
313.540665317636;643.404791721766
313.562280217117;643.035112353936
313.583895116597;642.705168806505
313.605510016078;642.401165339688
313.627124915558;642.103422992569
313.648739815039;641.799417170171
313.670354714519;641.485395106735
313.691969614;641.149722828187
313.713584513481;640.766924194512
313.735199412961;640.308045964421
313.756814312442;639.788582717648
313.778429211922;639.239594019894
313.800044111403;638.646185256796
313.821659010883;637.991520372554
313.843273910364;637.269636624784
313.864888809845;636.484082101285
313.886503709325;635.647230796971
313.908118608806;634.768946965878
313.929733508286;633.85389100304
313.951348407767;632.89333738332
313.972963307247;631.886351957641
313.994578206728;630.833155692182
314.016193106209;629.738057637529
314.037808005689;628.625661488288
314.05942290517;627.514387989705
314.08103780465;626.403346716374
314.102652704131;625.298393684965
314.124267603611;624.195029107186
314.145882503092;623.103349086641
314.167497402573;622.045548129392
314.189112302053;621.034423467416
314.210727201534;620.08701208913
314.232342101014;619.203017181468
314.253957000495;618.359726964199
314.275571899975;617.563399328009
314.297186799456;616.821433841454
314.318801698936;616.115217379035
314.340416598417;615.431528028336
314.362031497898;614.768437761561
314.383646397378;614.131754609416
314.405261296859;613.520156426628
314.426876196339;612.917611255201
314.44849109582;612.32148570847
314.4701059953;611.732850839932
314.491720894781;611.139599718244
314.513335794262;610.546166650718
314.534950693742;609.929965417012
314.556565593223;609.266177312021
314.578180492703;608.577429498319
314.599795392184;607.890565753369
314.621410291664;607.17681780296
314.643025191145;606.404075170001
314.664640090625;605.555165948302
314.686254990106;604.632848083572
314.707869889587;603.670372805786
314.729484789067;602.719302084883
314.751099688548;601.77850982892
314.772714588028;600.809341472454
314.794329487509;599.783445169327
314.815944386989;598.68319979397
314.83755928647;597.596241844404
314.859174185951;596.580516282228
314.880789085431;595.615905808382
314.902403984912;594.697676215899
314.924018884392;593.842384497777
314.945633783873;593.054307237473
314.967248683353;592.316442894886
314.988863582834;591.61425352581
315.010478482315;590.94769338913
315.032093381795;590.317230922199
315.053708281276;589.727569208375
315.075323180756;589.171944582014
315.096938080237;588.635347166663
315.118552979717;588.121835507597
315.140167879198;587.636794293165
315.161782778678;587.165099513682
315.183397678159;586.697835849732
315.20501257764;586.238710988154
315.22662747712;585.788269913242
315.248242376601;585.327312116988
315.269857276081;584.863312289733
315.291472175562;584.415167517152
315.313087075042;583.979185696464
315.334701974523;583.562579176357
315.356316874004;583.168753291168
315.377931773484;582.776343590717
315.399546672965;582.364536079555
315.421161572445;581.932611324041
315.442776471926;581.502314203879
315.464391371406;581.080007962477
315.486006270887;580.653651358697
315.507621170367;580.212917325467
315.529236069848;579.766453080917
315.550850969329;579.337054914274
315.572465868809;578.914963593861
315.59408076829;578.469269086541
315.61569566777;577.973256152468
315.637310567251;577.438372789834
315.658925466731;576.870993285945
315.680540366212;576.275003530574
315.702155265693;575.65192241361
315.723770165173;574.990995818827
315.745385064654;574.272551886546
315.766999964134;573.486416828299
315.788614863615;572.650236707968
315.810229763095;571.776023888655
315.831844662576;570.903359101508
315.853459562057;570.075669166482
315.875074461537;569.29938355339
315.896689361018;568.558640977709
315.918304260498;567.84065310824
315.939919159979;567.153619144092
315.961534059459;566.507351640113
315.98314895894;565.888664612286
316.00476385842;565.283341305916
316.026378757901;564.67625727145
316.047993657382;564.051079176807
316.069608556862;563.401581168487
316.091223456343;562.733255347333
316.112838355823;562.055755066746
316.134453255304;561.373155399605
316.156068154784;560.669077131212
316.177683054265;559.943255664838
316.199297953746;559.215035492813
316.220912853226;558.489686957491
316.242527752707;557.770374137632
316.264142652187;557.060768133716
316.285757551668;556.357566431006
316.307372451148;555.649145684902
316.328987350629;554.914596976152
316.350602250109;554.144182244765
316.37221714959;553.381614992371
316.393832049071;552.671167604347
316.415446948551;552.008887812042
316.437061848032;551.370713201156
316.458676747512;550.748886075497
316.480291646993;550.151381572249
316.501906546473;549.593966097962
316.523521445954;549.086446859007
316.545136345435;548.622130217013
316.566751244915;548.189197834373
316.588366144396;547.792759964348
316.609981043876;547.447737699519
316.631595943357;547.139747521453
316.653210842837;546.844992324453
316.674825742318;546.554114308176
316.696440641799;546.253985466627
316.718055541279;545.914137209297
316.73967044076;545.498728337731
316.76128534024;545.015936961308
316.782900239721;544.498294061227
316.804515139201;543.937961733278
316.826130038682;543.309902656811
316.847744938163;542.622426648308
316.869359837643;541.900681885004
316.890974737124;541.146671078959
316.912589636604;540.356641583871
316.934204536085;539.544893342485
316.955819435565;538.73930215219
316.977434335046;537.958128526088
316.999049234526;537.1867790338
317.020664134007;536.424512304683
317.042279033488;535.690828593453
317.063893932968;534.981185775671
317.085508832449;534.284176522774
317.107123731929;533.609188795052
317.12873863141;532.977955382721
317.15035353089;532.381932505996
317.171968430371;531.793640421754
317.193583329852;531.213126882178
317.215198229332;530.651961597309
317.236813128813;530.122305093302
317.258428028293;529.617182786687
317.280042927774;529.126078630104
317.301657827254;528.665555498113
317.323272726735;528.26675688542
317.344887626216;527.934466535192
317.366502525696;527.647007911678
317.388117425177;527.392830146073
317.409732324657;527.167662258992
317.431347224138;526.964937642391
317.452962123618;526.771547775633
317.474577023099;526.581489144973
317.496191922579;526.378344614142
317.51780682206;526.134021708507
317.539421721541;525.829631917711
317.561036621021;525.459383660352
317.582651520502;525.008938071969
317.604266419982;524.460002766764
317.625881319463;523.81178450236
317.647496218943;523.070435356087
317.669111118424;522.213195713231
317.690726017905;521.212926593265
317.712340917385;520.110918015183
317.733955816866;518.960521328903
317.755570716346;517.78528048449
317.777185615827;516.577644524931
317.798800515307;515.305349497113
317.820415414788;513.951776693619
317.842030314268;512.556852666046
317.863645213749;511.19402796516
317.88526011323;509.881765843656
317.90687501271;508.616181473628
317.928489912191;507.4113704173
317.950104811671;506.264743520384
317.971719711152;505.18894555248
317.993334610632;504.199807773841
318.014949510113;503.28983466055
318.036564409594;502.451322835407
318.058179309074;501.691811034398
318.079794208555;501.002909978332
318.101409108035;500.379671165964
318.123024007516;499.826310287033
318.144638906996;499.328515137743
318.166253806477;498.853588013144
318.187868705958;498.381075820968
318.209483605438;497.899423802963
318.231098504919;497.393234219163
318.252713404399;496.850181739356
318.27432830388;496.272161253146
318.29594320336;495.654719352964
318.317558102841;494.975109623313
318.339173002321;494.218453306665
318.360787901802;493.403817797488
318.382402801283;492.565097134296
318.404017700763;491.721869575212
318.425632600244;490.904595840403
318.447247499724;490.143197992218
318.468862399205;489.424538235246
318.490477298685;488.755046167512
318.512092198166;488.134934118591
318.533707097647;487.557006089474
318.555321997127;487.017990942085
318.576936896608;486.530788579611
318.598551796088;486.086752333778
318.620166695569;485.684856858042
318.641781595049;485.321743206575
318.66339649453;484.968896063459
318.68501139401;484.600084473635
318.706626293491;484.206589587149
318.728241192972;483.783025803239
318.749856092452;483.326451475593
318.771470991933;482.845526650916
318.793085891413;482.332246286529
318.814700790894;481.76001756542
318.836315690374;481.097387851997
318.857930589855;480.3544624432
318.879545489336;479.565474410189
318.901160388816;478.729505106161
318.922775288297;477.832633085357
318.944390187777;476.863519440795
318.966005087258;475.847696901626
318.987619986738;474.82189266851
319.009234886219;473.794072589689
319.0308497857;472.794267891117
319.05246468518;471.839006552668
319.074079584661;470.894077048659
319.095694484141;469.953825394143
319.117309383622;469.067319232691
319.138924283102;468.275079650647
319.160539182583;467.574571407254
319.182154082064;466.954562850464
319.203768981544;466.398517756506
319.225383881025;465.883826471212
319.246998780505;465.393260777262
319.268613679986;464.914784401321
319.290228579466;464.454846785773
319.311843478947;464.02621136905
319.333458378427;463.638856322458
319.355073277908;463.280019484559
319.376688177389;462.922966944116
319.398303076869;462.543819819232
319.41991797635;462.162665950306
319.44153287583;461.801317961522
319.463147775311;461.452306771809
319.484762674791;461.103304689393
319.506377574272;460.748615786397
319.527992473753;460.383614906163
319.549607373233;459.998548992576
319.571222272714;459.578572718432
319.592837172194;459.105775626028
319.614452071675;458.576524296789
319.636066971155;457.984048708098
319.657681870636;457.342740471324
319.679296770116;456.652905749285
319.700911669597;455.888616840791
319.722526569078;455.044004212283
319.744141468558;454.145757066835
319.765756368039;453.216038712637
319.787371267519;452.250239231574
319.808986167;451.276248496829
319.83060106648;450.334333498113
319.852215965961;449.442288047034
319.873830865442;448.601594382551
319.895445764922;447.817799246316
319.917060664403;447.091283039385
319.938675563883;446.418429174481
319.960290463364;445.800749988989
319.981905362844;445.244278256322
320.003520262325;444.768954176695
320.025135161806;444.391127540124
320.046750061286;444.098273971834
320.068364960767;443.880022911936
320.089979860247;443.755621329544
320.111594759728;443.739337091116
320.133209659208;443.815987261806
320.154824558689;443.979667105472
320.176439458169;444.232388151827
320.19805435765;444.567766727069
320.219669257131;444.965261105992
320.241284156611;445.395117385202
320.262899056092;445.820411485616
320.284513955572;446.224233408211
320.306128855053;446.599203238699
320.327743754533;446.925401557445
320.349358654014;447.1473940339
320.370973553495;447.220460058937
320.392588452975;447.129679393626
320.414203352456;446.848251206125
320.435818251936;446.353957196863
320.457433151417;445.646748295357
320.479048050897;444.728561317401
320.500662950378;443.592906873353
320.522277849858;442.211588737564
320.543892749339;440.585825320494
320.56550764882;438.820302729093
320.5871225483;436.972350443563
320.608737447781;435.000983241219
320.630352347261;432.929632073262
320.651967246742;430.878677857024
320.673582146222;428.875760279851
320.695197045703;426.875010149886
320.716811945184;424.838555863021
320.738426844664;422.854900834244
320.760041744145;421.043995413878
320.781656643625;419.426079250855
320.803271543106;417.95234895944
320.824886442586;416.606256163157
320.846501342067;415.412046459336
320.868116241548;414.355890275408
320.889731141028;413.399474496272
320.911346040509;412.505497242753
320.932960939989;411.623483663287
320.95457583947;410.742024166395
320.97619073895;409.874254732102
320.997805638431;409.000632764864
321.019420537911;408.073993677578
321.041035437392;407.063951065455
321.062650336873;405.997200103957
321.084265236353;404.891840747711
321.105880135834;403.736269515361
321.127495035314;402.510105916101
321.149109934795;401.183430870022
321.170724834275;399.734493400773
321.192339733756;398.183593549473
321.213954633237;396.601281515787
321.235569532717;395.028169909782
321.257184432198;393.457906550436
321.278799331678;391.89326214504
321.300414231159;390.334437249764
321.322029130639;388.811623221462
321.34364403012;387.396748222298
321.3652589296;386.092450265
321.386873829081;384.910618927302
321.408488728562;383.891402846881
321.430103628042;383.029424948591
321.451718527523;382.289032913565
321.473333427003;381.67056902268
321.494948326484;381.208433037894
321.516563225964;380.8883081298
321.538178125445;380.681257294535
321.559793024926;380.571486784459
321.581407924406;380.547558260789
321.603022823887;380.597179573762
321.624637723367;380.702023076359
321.646252622848;380.838534597466
321.667867522328;380.978029156597
321.689482421809;381.11916691988
321.71109732129;381.261595658886
321.73271222077;381.40109155774
321.754327120251;381.533928277897
321.775942019731;381.659506141617
321.797556919212;381.774551895931
321.819171818692;381.879881916598
321.840786718173;381.983436518684
321.862401617654;382.097348947137
321.884016517134;382.225043975822
321.905631416615;382.354751700742
321.927246316095;382.473903838942
321.948861215576;382.589069495913
321.970476115056;382.708740166892
321.992091014537;382.837269154066
322.013705914017;382.968190304316
322.035320813498;383.084928484911
322.056935712979;383.170254626689
322.078550612459;383.222261715339
322.10016551194;383.234259636668
322.12178041142;383.200676476812
322.143395310901;383.110515298712
322.165010210381;382.943336293725
322.186625109862;382.690008358103
322.208240009343;382.362958844685
322.229854908823;381.975827124871
322.251469808304;381.545651109524
322.273084707784;381.070997443565
322.294699607265;380.562896654182
322.316314506745;380.014481866615
322.337929406226;379.424866602676
322.359544305706;378.788604759459
322.381159205187;378.106021617773
322.402774104668;377.406720034045
322.424389004148;376.71214253204
322.446003903629;376.00136008716
322.467618803109;375.238772612581
322.48923370259;374.405138375406
322.51084860207;373.509740406354
322.532463501551;372.589391162643
322.554078401032;371.672553195999
322.575693300512;370.767879685437
322.597308199993;369.870835119973
322.618923099473;368.950949441381
322.640537998954;368.019936703019
322.662152898434;367.14496876835
322.683767797915;366.347857972202
322.705382697396;365.613816448211
322.726997596876;364.927595182823
322.748612496357;364.273932244865
322.770227395837;363.638100163224
322.791842295318;363.025046728576
322.813457194798;362.43753801214
322.835072094279;361.859469639996
322.856686993759;361.261224773254
322.87830189324;360.649644147394
322.899916792721;360.058475206482
322.921531692201;359.489251777506
322.943146591682;358.913113498195
322.964761491162;358.291612859877
322.986376390643;357.622562818491
323.007991290123;356.947996106296
323.029606189604;356.294783190018
323.051221089085;355.658623437011
323.072835988565;355.032259947894
323.094450888046;354.410125641024
323.116065787526;353.783515279639
323.137680687007;353.134452828402
323.159295586487;352.444778334982
323.180910485968;351.709977294777
323.202525385449;350.930017290524
323.224140284929;350.124309671016
323.24575518441;349.324127089963
323.26737008389;348.518941260234
323.288984983371;347.687838022585
323.310599882851;346.830989812484
323.332214782332;345.956725382207
323.353829681812;345.079622058377
323.375444581293;344.210939700044
323.397059480774;343.377548786347
323.418674380254;342.606345166401
323.440289279735;341.879052593086
323.461904179215;341.168227117558
323.483519078696;340.465400874957
323.505133978176;339.757574984804
323.526748877657;339.030059438092
323.548363777138;338.342571343534
323.569978676618;337.713776463718
323.591593576099;337.116070096197
323.613208475579;336.522763688888
323.63482337506;335.929281861646
323.65643827454;335.337316745584
323.678053174021;334.744617196729
323.699668073501;334.166131775077
323.721282972982;333.596481867694
323.742897872463;332.996102612579
323.764512771943;332.387831161639
323.786127671424;331.824905735445
323.807742570904;331.291812369073
323.829357470385;330.753271200944
323.850972369865;330.176124887202
323.872587269346;329.548658373523
323.894202168827;328.90424186725
323.915817068307;328.257722519541
323.937431967788;327.599272119814
323.959046867268;326.911116398675
323.980661766749;326.188330402508
324.002276666229;325.429917776513
324.02389156571;324.639071027009
324.045506465191;323.822916411454
324.067121364671;322.985071515309
324.088736264152;322.154956684621
324.110351163632;321.348647019494
324.131966063113;320.547901028091
324.153580962593;319.731383718751
324.175195862074;318.894968743177
324.196810761555;318.04032911488
324.218425661035;317.153596260021
324.240040560516;316.233869762673
324.261655459996;315.328293544035
324.283270359477;314.452498846443
324.304885258957;313.586476991482
324.326500158438;312.71166996358
324.348115057918;311.808554839803
324.369729957399;310.862591914417
324.39134485688;309.89531224463
324.41295975636;308.923628901405
324.434574655841;307.947172609408
324.456189555321;306.951266486025
324.477804454802;305.939957118997
324.499419354282;304.910703867124
324.521034253763;303.822724738504
324.542649153244;302.672778574677
324.564264052724;301.491103441145
324.585878952205;300.271558394774
324.607493851685;298.983217320841
324.629108751166;297.608369017767
324.650723650646;296.160360321547
324.672338550127;294.660439273951
324.693953449607;293.129099245759
324.715568349088;291.569075535907
324.737183248569;289.961817506822
324.758798148049;288.358956504137
