Name;ESR_BC_1_29min_Z_gon_20dg_result

Recipe
Accumulations;5;Number of accumulations
RetryCount;0;Number of retries on error
AbortOnError;True;Abort on error
EnableQFactorMeasurement;False;Enable/Disable q-Factor measurement
Bfrom;313;B from
Bto;363;B to
SweepTime;60;Sweep time
Modulation;0.2;Modulation
ModulationFreq;100;Modulation
BHoldEnabled;False;B hold enabled
BHold;0;B hold
MicrowavePower;2;Microwave power
MarkerEnabled;False;
MarkerStartField;0;
MarkerEndField;0;
Mode;;
KineticGFact;0;
KineticTotalTransientTime;0;
KineticTimeResolution;0;
TempFrom;5;
TempUseSlope;False;
TempTo;5;
TempdT;1;
TempSetupTime;0;
GonFrom;0;
GonTo;180;
GonSteps;20;
XRayEnabled;False;
XRayTime;3;
XRayVoltage;40;
XRayCurrent;0.5;
UVEnabled;False;
UVIntensity;0;
UVTime;0;
UVLeadTime;0;
UVWavelength;0;
PowSweepFrom;1;
PowSweepTo;5;
PowSweepSteps;5;
AmpModSweepFrom;0;
AmpModSweepTo;1;
AmpModSweepSteps;10;
ExtTriggerEnabled;False;
ExtTrigLeadTime;0;
ExtTrigOnTime;5;

Meas
BField [mT];MW_Absorption []
313.025953063965;83.8643170440349
313.047576827144;83.564939969101
313.069200590324;83.3566165614338
313.090824353503;83.2428986915591
313.112448116682;83.2322710834787
313.134071879862;83.3117084865463
313.155695643041;83.4551661085758
313.17731940622;83.6471858990484
313.1989431694;83.8801781202767
313.220566932579;84.1414864517625
313.242190695759;84.4116374816266
313.263814458938;84.6841265609949
313.285438222117;84.9439047559619
313.307061985297;85.1729247772381
313.328685748476;85.351863068055
313.350309511655;85.49013255071
313.371933274835;85.6049920250824
313.393557038014;85.7024635117452
313.415180801193;85.7794777420504
313.436804564373;85.8266392018094
313.458428327552;85.8429595469123
313.480052090732;85.8489363642742
313.501675853911;85.8597286350281
313.52329961709;85.8600630110174
313.54492338027;85.8346276909788
313.566547143449;85.7870045558097
313.588170906628;85.7283674351086
313.609794669808;85.6706146159197
313.631418432987;85.6075420557386
313.653042196166;85.5426670019845
313.674665959346;85.4942885669853
313.696289722525;85.4707798360921
313.717913485705;85.456876233054
313.739537248884;85.4270305217023
313.761161012063;85.3789851759324
313.782784775243;85.3243518103784
313.804408538422;85.2707750737227
313.826032301601;85.2184718290664
313.847656064781;85.1643412544483
313.86927982796;85.1031320479737
313.890903591139;85.0503665135988
313.912527354319;85.0239961846848
313.934151117498;85.0300561541262
313.955774880678;85.0760661876537
313.977398643857;85.1734450747253
313.999022407036;85.3288238267636
314.020646170216;85.5388204831359
314.042269933395;85.7838846885024
314.063893696574;86.0422587197397
314.085517459754;86.3193197594268
314.107141222933;86.6140635278245
314.128764986113;86.9078274339937
314.150388749292;87.1878634970377
314.172012512471;87.4410215855148
314.193636275651;87.638220767608
314.21526003883;87.7792389893206
314.236883802009;87.8700485314804
314.258507565189;87.9106122755139
314.280131328368;87.9135696932955
314.301755091547;87.8976752000038
314.323378854727;87.8735741014279
314.345002617906;87.8426342957142
314.366626381086;87.8160483143331
314.388250144265;87.8115028186523
314.409873907444;87.8329474077796
314.431497670624;87.8705351278707
314.453121433803;87.919823749579
314.474745196982;87.9872486342916
314.496368960162;88.0796931076205
314.517992723341;88.2054122987702
314.53961648652;88.3631598510458
314.5612402497;88.539821451099
314.582864012879;88.7300198142708
314.604487776059;88.9257214816132
314.626111539238;89.1188434055969
314.647735302417;89.3025071582743
314.669359065597;89.4774807319953
314.690982828776;89.6482544615528
314.712606591955;89.8057401424509
314.734230355135;89.9323593874689
314.755854118314;90.01532404466
314.777477881494;90.0621226530819
314.799101644673;90.0846942364163
314.820725407852;90.0848197199119
314.842349171032;90.0601583487156
314.863972934211;90.0102264745784
314.88559669739;89.9342200493372
314.90722046057;89.8313309042587
314.928844223749;89.7063170072842
314.950467986928;89.5676368797258
314.972091750108;89.4159094675561
314.993715513287;89.2458592734572
315.015339276467;89.0510281177711
315.036963039646;88.8488499634401
315.058586802825;88.674854136754
315.080210566005;88.5189100195788
315.101834329184;88.3626064296489
315.123458092363;88.207255606117
315.145081855543;88.0655598683602
315.166705618722;87.9462813559935
315.188329381901;87.8601531764493
315.209953145081;87.8071689760434
315.23157690826;87.7884952515415
315.25320067144;87.7994433739838
315.274824434619;87.8428939091686
315.296448197798;87.9068220415917
315.318071960978;87.9761365211515
315.339695724157;88.0501656359746
315.361319487336;88.128145880461
315.382943250516;88.1928251398604
315.404567013695;88.243297048524
315.426190776874;88.2883487750206
315.447814540054;88.3153848048936
315.469438303233;88.324443049223
315.491062066413;88.3129674413489
315.512685829592;88.2678931482939
315.534309592771;88.1879715139559
315.555933355951;88.0769605146876
315.57755711913;87.9380744869118
315.599180882309;87.7755510651675
315.620804645489;87.5864626688902
315.642428408668;87.3670888226524
315.664052171848;87.1207386433061
315.685675935027;86.8510924667163
315.707299698206;86.5825772072201
315.728923461386;86.3346184046611
315.750547224565;86.0974990056227
315.772170987744;85.8599630581575
315.793794750924;85.6023052595674
315.815418514103;85.337265098704
315.837042277282;85.0959602938023
315.858666040462;84.8725978098104
315.880289803641;84.6605537096387
315.901913566821;84.4595788144542
315.92353733;84.2671591050887
315.945161093179;84.0817379959736
315.966784856359;83.9201001515682
315.988408619538;83.7922632034706
316.010032382717;83.6926437079536
316.031656145897;83.6209340181313
316.053279909076;83.5845662237922
316.074903672255;83.5859356779082
316.096527435435;83.6219362226939
316.118151198614;83.6905098659606
316.139774961794;83.7911032689561
316.161398724973;83.9262108213752
316.183022488152;84.0998194180794
316.204646251332;84.309060500303
316.226270014511;84.5161818327826
316.24789377769;84.6892765715941
316.26951754087;84.8231114359992
316.291141304049;84.9242797160115
316.312765067229;84.9941467150721
316.334388830408;85.0218336406527
316.356012593587;84.9909449955659
316.377636356767;84.904596263038
316.399260119946;84.7828718610419
316.420883883125;84.6377728526739
316.442507646305;84.466102890156
316.464131409484;84.2623952620713
316.485755172663;84.0300229328985
316.507378935843;83.7928331236251
316.529002699022;83.580353599068
316.550626462202;83.3929630867698
316.572250225381;83.2189112462029
316.59387398856;83.0528884171272
316.61549775174;82.901671330874
316.637121514919;82.7944376329233
316.658745278098;82.725520451176
316.680369041278;82.6742544182652
316.701992804457;82.6311249699319
316.723616567636;82.6075296652623
316.745240330816;82.6087068750566
316.766864093995;82.6149571044112
316.788487857175;82.6140941981425
316.810111620354;82.6159537773249
316.831735383533;82.6216690902905
316.853359146713;82.6161800594381
316.874982909892;82.5829350140952
316.896606673071;82.5087537119016
316.918230436251;82.3990807442062
316.93985419943;82.263127071738
316.961477962609;82.1030000421627
316.983101725789;81.9191325578607
317.004725488968;81.719032417948
317.026349252148;81.5071444691059
317.047973015327;81.2777704337658
317.069596778506;81.0237051819706
317.091220541686;80.7613942665121
317.112844304865;80.5059489472139
317.134468068044;80.2415584562014
317.156091831224;79.9665815604256
317.177715594403;79.6978848958407
317.199339357583;79.4344305520511
317.220963120762;79.168005415557
317.242586883941;78.9001590420366
317.264210647121;78.6383352322971
317.2858344103;78.3868355485674
317.307458173479;78.1487150275773
317.329081936659;77.9314058023512
317.350705699838;77.749548444369
317.372329463017;77.6153819171445
317.393953226197;77.5271842172269
317.415576989376;77.47856569892
317.437200752556;77.4700353305199
317.458824515735;77.5047570528572
317.480448278914;77.5782730150335
317.502072042094;77.6815639009727
317.523695805273;77.8051132885303
317.545319568452;77.9406944639193
317.566943331632;78.0815111074024
317.588567094811;78.2221683848575
317.61019085799;78.358360764426
317.63181462117;78.4849701972282
317.653438384349;78.6014387519242
317.675062147529;78.7114700218173
317.696685910708;78.820289026985
317.718309673887;78.9333961559024
317.739933437067;79.0541136966516
317.761557200246;79.1836082365153
317.783180963425;79.3183028004604
317.804804726605;79.4601497253739
317.826428489784;79.6079910920813
317.848052252964;79.7517034699223
317.869676016143;79.8857632704436
317.891299779322;80.0049455467294
317.912923542502;80.1015656661362
317.934547305681;80.1670037128844
317.95617106886;80.1961341785596
317.97779483204;80.1919797663875
317.999418595219;80.1610269741164
318.021042358398;80.1000111280984
318.042666121578;80.0084612187715
318.064289884757;79.9118311853546
318.085913647937;79.8408050488814
318.107537411116;79.8037512537233
318.129161174295;79.7959678230793
318.150784937475;79.8164599765006
318.172408700654;79.8668452084085
318.194032463833;79.949678128723
318.215656227013;80.0643111232596
318.237279990192;80.2022775560805
318.258903753371;80.3609444685545
318.280527516551;80.5452706550019
318.30215127973;80.7456085072295
318.32377504291;80.9353281961286
318.345398806089;81.0966755580392
318.367022569268;81.2333507899501
318.388646332448;81.3490833177768
318.410270095627;81.4314479814624
318.431893858806;81.4670567293337
318.453517621986;81.4552177866376
318.475141385165;81.4040176560786
318.496765148344;81.3135083884655
318.518388911524;81.177422092277
318.540012674703;80.9843693739639
318.561636437883;80.7273336111589
318.583260201062;80.4249827090359
318.604883964241;80.0965995640494
318.626507727421;79.7392467377169
318.6481314906;79.3463034398909
318.669755253779;78.9203287824276
318.691379016959;78.4740718000729
318.713002780138;78.0252305885573
318.734626543318;77.5642840822098
318.756250306497;77.0663592659389
318.777874069676;76.5396419581651
318.799497832856;76.0202353294923
318.821121596035;75.5261596779217
318.842745359214;75.0407986013782
318.864369122394;74.5503191884793
318.885992885573;74.0729534508089
318.907616648752;73.6367502515904
318.929240411932;73.2358414150726
318.950864175111;72.8564938329511
318.972487938291;72.4943884579678
318.99411170147;72.1688297279817
319.015735464649;71.8961586330203
319.037359227829;71.6634203333733
319.058982991008;71.4600822073193
319.080606754187;71.3003765322093
319.102230517367;71.1887518352639
319.123854280546;71.1296514773051
319.145478043725;71.1123809312628
319.167101806905;71.1276816291152
319.188725570084;71.1760681917206
319.210349333264;71.2560919596858
319.231973096443;71.3681279369011
319.253596859622;71.504603801308
319.275220622802;71.6558177502529
319.296844385981;71.8153660527072
319.31846814916;71.9795169558511
319.34009191234;72.1372581324278
319.361715675519;72.2799024093858
319.383339438699;72.4094079038033
319.404963201878;72.5266716781216
319.426586965057;72.6279949038374
319.448210728237;72.7087920011368
319.469834491416;72.7718870688367
319.491458254595;72.823720459093
319.513082017775;72.8753705819598
319.534705780954;72.931310672318
319.556329544133;72.9916810016283
319.577953307313;73.058120941392
319.599577070492;73.1324743080287
319.621200833672;73.2181819560809
319.642824596851;73.3190025260432
319.66444836003;73.4276671489221
319.68607212321;73.5285639069915
319.707695886389;73.6062369285989
319.729319649568;73.6627836675454
319.750943412748;73.693185780463
319.772567175927;73.682713990043
319.794190939106;73.6258454608672
319.815814702286;73.5302867355728
319.837438465465;73.4122525444552
319.859062228645;73.2740150474031
319.880685991824;73.112423595404
319.902309755003;72.9332308211725
319.923933518183;72.7571550405938
319.945557281362;72.5991663803019
319.967181044541;72.4637083865773
319.988804807721;72.3586260942193
320.0104285709;72.2876445409924
320.032052334079;72.2473805594363
320.053676097259;72.233701417651
320.075299860438;72.2430643571651
320.096923623618;72.2725295536073
320.118547386797;72.3172593302908
320.140171149976;72.3689050160929
320.161794913156;72.4165072087443
320.183418676335;72.4504302220599
320.205042439514;72.4626533992497
320.226666202694;72.4484431582294
320.248289965873;72.4033508616325
320.269913729053;72.3256211358007
320.291537492232;72.2197230234416
320.313161255411;72.0924157507584
320.334785018591;71.9444182430969
320.35640878177;71.7655052200486
320.378032544949;71.5605154967052
320.399656308129;71.3502416449218
320.421280071308;71.1529299785796
320.442903834487;70.9627274682276
320.464527597667;70.7648666107027
320.486151360846;70.562132399824
320.507775124026;70.3612198131217
320.529398887205;70.1614882013981
320.551022650384;69.9603357431723
320.572646413564;69.7707412361784
320.594270176743;69.6015951297122
320.615893939922;69.4495318770108
320.637517703102;69.3145313018427
320.659141466281;69.1987147909215
320.68076522946;69.1065660313964
320.70238899264;69.0396471181107
320.724012755819;68.9970800900409
320.745636518999;68.9780914588035
320.767260282178;68.9780299681916
320.788884045357;68.9860113851024
320.810507808537;68.9900957144165
320.832131571716;68.9809637461943
320.853755334895;68.9579206788511
320.875379098075;68.9221256685477
320.897002861254;68.8741652386337
320.918626624434;68.8174949925665
320.940250387613;68.7631437728051
320.961874150792;68.7257726245067
320.983497913972;68.7067927054995
321.005121677151;68.6989468626118
321.02674544033;68.7072261571379
321.04836920351;68.7492368169141
321.069992966689;68.8365940284884
321.091616729868;68.9648891094012
321.113240493048;69.1283442028355
321.134864256227;69.3105713262871
321.156488019407;69.5055345219978
321.178111782586;69.7183324946492
321.199735545765;69.944445942744
321.221359308945;70.1697819093553
321.242983072124;70.395115516606
321.264606835303;70.6114649108951
321.286230598483;70.7996608454902
321.307854361662;70.952406281787
321.329478124841;71.0759365061735
321.351101888021;71.1685344210962
321.3727256512;71.2198032790529
321.39434941438;71.2224814730706
321.415973177559;71.1744786318301
321.437596940738;71.0803268815704
321.459220703918;70.9365424380925
321.480844467097;70.7403346585737
321.502468230276;70.5033378056177
321.524091993456;70.2317667156833
321.545715756635;69.9103664404373
321.567339519814;69.5457758434588
321.588963282994;69.1331015900319
321.610587046173;68.6608581896055
321.632210809353;68.1300078252747
321.653834572532;67.55042225427
321.675458335711;66.9266034215318
321.697082098891;66.2762278268686
321.71870586207;65.6106998632427
321.740329625249;64.9289316679022
321.761953388429;64.2460615589809
321.783577151608;63.5679031878239
321.805200914788;62.885525706974
321.826824677967;62.2020333667306
321.848448441146;61.5409990505553
321.870072204326;60.9219520842858
321.891695967505;60.3433124074324
321.913319730684;59.81420910343
321.934943493864;59.3643006276684
321.956567257043;59.0051117007796
321.978191020222;58.7330329621294
321.999814783402;58.5535915723095
322.021438546581;58.4750823882005
322.043062309761;58.4866230538004
322.06468607294;58.5860755366979
322.086309836119;58.7737083443029
322.107933599299;59.031585052066
322.129557362478;59.3479694932331
322.151181125657;59.7154114973189
322.172804888837;60.1085045056319
322.194428652016;60.5128698866558
322.216052415195;60.9251776906913
322.237676178375;61.3410707377778
322.259299941554;61.7460884451559
322.280923704734;62.1059215405063
322.302547467913;62.4065599641118
322.324171231092;62.6575847178235
322.345794994272;62.8610399463562
322.367418757451;63.0162484004851
322.38904252063;63.1304900630468
322.41066628381;63.2149231960735
322.432290046989;63.2780649722069
322.453913810169;63.3193770807034
322.475537573348;63.3357624116366
322.497161336527;63.3327338876978
322.518785099707;63.3258507723956
322.540408862886;63.3316759077013
322.562032626065;63.3517594619033
322.583656389245;63.3727023628002
322.605280152424;63.3948795916275
322.626903915603;63.4247822766034
322.648527678783;63.4639672120963
322.670151441962;63.5072069888569
322.691775205142;63.5520489420332
322.713398968321;63.5941091004911
322.7350227315;63.6299881340308
322.75664649468;63.6617110066084
322.778270257859;63.691342659051
322.799894021038;63.7151647107684
322.821517784218;63.721606435304
322.843141547397;63.6961232855882
322.864765310576;63.6356811258483
322.886389073756;63.5391524101276
322.908012836935;63.3973869525564
322.929636600115;63.2025471692312
322.951260363294;62.9526125661741
322.972884126473;62.6530471340389
322.994507889653;62.3206460815095
323.016131652832;61.9614085006708
323.037755416011;61.5695706769755
323.059379179191;61.1424299550995
323.08100294237;60.6759045105453
323.102626705549;60.1685959457886
323.124250468729;59.6534976154396
323.145874231908;59.1551417061669
323.167497995088;58.6797967967599
323.189121758267;58.2211281377709
323.210745521446;57.7954917479216
323.232369284626;57.4246641721187
323.253993047805;57.1067805565482
323.275616810984;56.835740347633
323.297240574164;56.592236818231
323.318864337343;56.3527530613309
323.340488100523;56.1142902991566
323.362111863702;55.8774652902581
323.383735626881;55.6427079360805
323.405359390061;55.4107206303473
323.42698315324;55.1827278205447
323.448606916419;54.9573405023785
323.470230679599;54.731858031028
323.491854442778;54.5061375543574
323.513478205957;54.2930505247959
323.535101969137;54.104080500117
323.556725732316;53.9353244101059
323.578349495496;53.7835834990931
323.599973258675;53.6510335726938
323.621597021854;53.5361633670118
323.643220785034;53.4538656043867
323.664844548213;53.4192298517118
323.686468311392;53.4122364013037
323.708092074572;53.4153906216853
323.729715837751;53.4316820083378
323.75133960093;53.4639880326474
323.77296336411;53.5028582042312
323.794587127289;53.5326137903855
323.816210890469;53.5447347666956
323.837834653648;53.535913164898
323.859458416827;53.5028812944245
323.881082180007;53.4411537719865
323.902705943186;53.3378142097543
323.924329706365;53.1863062538959
323.945953469545;52.9915991841146
323.967577232724;52.760195311703
323.989200995904;52.4994947610517
324.010824759083;52.2118630966715
324.032448522262;51.8980082279521
324.054072285442;51.5671829529379
324.075696048621;51.2372751465027
324.0973198118;50.9285375818922
324.11894357498;50.6479792626187
324.140567338159;50.4132664177435
324.162191101338;50.241445302223
324.183814864518;50.1289021837258
324.205438627697;50.0679458740806
324.227062390877;50.0554086697716
324.248686154056;50.0926397672789
324.270309917235;50.1805059432554
324.291933680415;50.3180285069488
324.313557443594;50.5038164915394
324.335181206773;50.7211339590173
324.356804969953;50.9487223611589
324.378428733132;51.1760778744112
324.400052496311;51.4024887844119
324.421676259491;51.6290815578228
324.44330002267;51.8602710888069
324.46492378585;52.0942681657377
324.486547549029;52.3034024680403
324.508171312208;52.4635629590301
324.529795075388;52.5848693983115
324.551418838567;52.6800377237599
324.573042601746;52.7461639921527
324.594666364926;52.7788805720974
324.616290128105;52.7767968309662
324.637913891284;52.7466807031648
324.659537654464;52.7054033122282
324.681161417643;52.6619743976988
324.702785180823;52.6145973168326
324.724408944002;52.558916935108
324.746032707181;52.4929699045621
324.767656470361;52.4123448309657
324.78928023354;52.3135561878903
