Name;ESR_BC_1_89s_X_gon_180dg_result

Recipe
Accumulations;5;Number of accumulations
RetryCount;0;Number of retries on error
AbortOnError;True;Abort on error
EnableQFactorMeasurement;False;Enable/Disable q-Factor measurement
Bfrom;313;B from
Bto;363;B to
SweepTime;60;Sweep time
Modulation;0.2;Modulation
ModulationFreq;100;Modulation
BHoldEnabled;False;B hold enabled
BHold;0;B hold
MicrowavePower;2;Microwave power
MarkerEnabled;False;
MarkerStartField;0;
MarkerEndField;0;
Mode;;
KineticGFact;0;
KineticTotalTransientTime;0;
KineticTimeResolution;0;
TempFrom;5;
TempUseSlope;False;
TempTo;5;
TempdT;1;
TempSetupTime;0;
GonFrom;0;
GonTo;180;
GonSteps;20;
XRayEnabled;False;
XRayTime;3;
XRayVoltage;40;
XRayCurrent;0.5;
UVEnabled;False;
UVIntensity;0;
UVTime;0;
UVLeadTime;0;
UVWavelength;0;
PowSweepFrom;1;
PowSweepTo;5;
PowSweepSteps;5;
AmpModSweepFrom;0;
AmpModSweepTo;1;
AmpModSweepSteps;10;
ExtTriggerEnabled;False;
ExtTrigLeadTime;0;
ExtTrigOnTime;5;

Meas
BField [mT];MW_Absorption []
313.007224121094;548.846069896809
313.028850163914;548.220714224405
313.050476206735;547.622980076708
313.072102249555;547.054359843456
313.093728292375;546.499768338035
313.115354335196;545.951421190885
313.136980378016;545.41702005237
313.158606420836;544.893200906899
313.180232463657;544.345759103834
313.201858506477;543.747631520205
313.223484549298;543.103922857327
313.245110592118;542.407632526963
313.266736634938;541.641999077099
313.288362677759;540.832699551814
313.309988720579;539.998954119061
313.331614763399;539.130075238615
313.35324080622;538.20415824921
313.37486684904;537.197262318546
313.396492891861;536.14814665321
313.418118934681;535.121513624921
313.439744977501;534.166541027532
313.461371020322;533.307636706609
313.482997063142;532.547701063196
313.504623105962;531.877484038984
313.526249148783;531.273635616486
313.547875191603;530.748655621517
313.569501234424;530.309670560197
313.591127277244;529.933093396616
313.612753320064;529.596344940174
313.634379362885;529.286267392344
313.656005405705;528.9924523752
313.677631448525;528.691100323428
313.699257491346;528.357644859014
313.720883534166;527.984669389805
313.742509576986;527.569196618406
313.764135619807;527.126629022693
313.785761662627;526.668160271929
313.807387705448;526.191889552074
313.829013748268;525.687986305217
313.850639791088;525.162144247496
313.872265833909;524.617410477187
313.893891876729;524.049566715112
313.91551791955;523.466894822973
313.93714396237;522.886036457785
313.95877000519;522.312606023602
313.980396048011;521.747491152729
314.002022090831;521.18822876752
314.023648133651;520.634379628523
314.045274176472;520.092417415179
314.066900219292;519.577214371096
314.088526262113;519.105898092146
314.110152304933;518.685691430569
314.131778347753;518.320172450456
314.153404390574;518.011099655795
314.175030433394;517.733508338301
314.196656476214;517.463392497339
314.218282519035;517.187766619232
314.239908561855;516.898274855583
314.261534604675;516.58680946883
314.283160647496;516.230332132751
314.304786690316;515.80696007869
314.326412733137;515.321746211321
314.348038775957;514.787935280615
314.369664818777;514.205747581501
314.391290861598;513.577646838732
314.412916904418;512.923039904934
314.434542947238;512.255737051474
314.456168990059;511.593675263555
314.477795032879;510.940639112569
314.4994210757;510.291450478904
314.52104711852;509.658422831279
314.54267316134;509.049720279085
314.564299204161;508.453154383847
314.585925246981;507.868060726055
314.607551289802;507.303760651644
314.629177332622;506.752356487771
314.650803375442;506.172252540519
314.672429418263;505.553831137725
314.694055461083;504.935754982798
314.715681503903;504.325040610368
314.737307546724;503.69321737117
314.758933589544;503.009690663855
314.780559632364;502.271469332278
314.802185675185;501.495565622402
314.823811718005;500.691492950226
314.845437760826;499.857818545433
314.867063803646;499.017930367197
314.888689846466;498.199688180024
314.910315889287;497.408184903671
314.931941932107;496.622083574605
314.953567974927;495.839437916736
314.975194017748;495.090208197037
314.996820060568;494.393039025678
315.018446103389;493.756497750729
315.040072146209;493.178047796862
315.061698189029;492.634935757013
315.08332423185;492.111629356795
315.10495027467;491.601997512063
315.126576317491;491.088853987888
315.148202360311;490.534090107385
315.169828403131;489.911418342866
315.191454445952;489.243433563847
315.213080488772;488.573345045644
315.234706531592;487.905995522215
315.256332574413;487.224989731976
315.277958617233;486.498359717405
315.299584660053;485.72200162519
315.321210702874;484.924268389063
315.342836745694;484.140425027635
315.364462788515;483.406447225979
315.386088831335;482.707725733761
315.407714874155;482.000160090166
315.429340916976;481.252622395677
315.450966959796;480.49586783994
315.472593002616;479.789678486506
315.494219045437;479.127556657216
315.515845088257;478.464324656091
315.537471131078;477.786015427398
315.559097173898;477.101398318423
315.580723216718;476.414866177623
315.602349259539;475.736020260132
315.623975302359;475.060270658548
315.64560134518;474.351942184447
315.667227388;473.576870970651
315.68885343082;472.77387003453
315.710479473641;472.005544007471
315.732105516461;471.281985299947
315.753731559281;470.589017579247
315.775357602102;469.920869596119
315.796983644922;469.284686075497
315.818609687742;468.694298648979
315.840235730563;468.161079344957
315.861861773383;467.697593172923
315.883487816204;467.31323074463
315.905113859024;466.994560488305
315.926739901844;466.717217644554
315.948365944665;466.474133008345
315.969991987485;466.264830274357
315.991618030305;466.061841875925
316.013244073126;465.835466091528
316.034870115946;465.563784150197
316.056496158767;465.233736930629
316.078122201587;464.835411864646
316.099748244407;464.360317184307
316.121374287228;463.798658450653
316.143000330048;463.142316569808
316.164626372868;462.395679993232
316.186252415689;461.571925187835
316.207878458509;460.677603191272
316.22950450133;459.727315155713
316.25113054415;458.715405471155
316.27275658697;457.620348301077
316.294382629791;456.475486815621
316.316008672611;455.324834688724
316.337634715431;454.167256985085
316.359260758252;452.969247759829
316.380886801072;451.702076240665
316.402512843893;450.400159586413
316.424138886713;449.155617850913
316.445764929533;447.979286888682
316.467390972354;446.846833452132
316.489017015174;445.783007010539
316.510643057994;444.797491487558
316.532269100815;443.83710370663
316.553895143635;442.896394601686
316.575521186456;441.989671861749
316.597147229276;441.112639616134
316.618773272096;440.280520825195
316.640399314917;439.517930799653
316.662025357737;438.798402644084
316.683651400557;438.08259273542
316.705277443378;437.375800389865
316.726903486198;436.691938328316
316.748529529019;436.037696929924
316.770155571839;435.439050637376
316.791781614659;434.909617158584
316.81340765748;434.429028401498
316.8350337003;433.984693665794
316.85665974312;433.57710272931
316.878285785941;433.215827002335
316.899911828761;432.913936183523
316.921537871582;432.667553206133
316.943163914402;432.477753530207
316.964789957222;432.349110391236
316.986416000043;432.277069094606
317.008042042863;432.256222562143
317.029668085683;432.281990595874
317.051294128504;432.352844773084
317.072920171324;432.470704117126
317.094546214145;432.64110928065
317.116172256965;432.855208378627
317.137798299785;433.080623248971
317.159424342606;433.299812985971
317.181050385426;433.504349046099
317.202676428246;433.68339904877
317.224302471067;433.814055729119
317.245928513887;433.885157225098
317.267554556708;433.894440446501
317.289180599528;433.832732016931
317.310806642348;433.683780132329
317.332432685169;433.428439916899
317.354058727989;433.050518142922
317.375684770809;432.577734280006
317.39731081363;432.021229597971
317.41893685645;431.365763038692
317.440562899271;430.602631968689
317.462188942091;429.756056655433
317.483814984911;428.842623195894
317.505441027732;427.84326116855
317.527067070552;426.730727482363
317.548693113372;425.54223618478
317.570319156193;424.330027361103
317.591945199013;423.092501565296
317.613571241834;421.810482820537
317.635197284654;420.501557836643
317.656823327474;419.209855448366
317.678449370295;417.93920137565
317.700075413115;416.689304158358
317.721701455935;415.499575481294
317.743327498756;414.38524199253
317.764953541576;413.34125003066
317.786579584397;412.347232404603
317.808205627217;411.399682497933
317.829831670037;410.496159692291
317.851457712858;409.642995004361
317.873083755678;408.860051204235
317.894709798498;408.141427341657
317.916335841319;407.478335222449
317.937961884139;406.860148837435
317.95958792696;406.262275553878
317.98121396978;405.688739677374
318.0028400126;405.161960177745
318.024466055421;404.686166585642
318.046092098241;404.247588799296
318.067718141061;403.821299660924
318.089344183882;403.392260040273
318.110970226702;402.971926065369
318.132596269523;402.568146604517
318.154222312343;402.152752836601
318.175848355163;401.70805674307
318.197474397984;401.223412166242
318.219100440804;400.694483376327
318.240726483624;400.105556991764
318.262352526445;399.44045381385
318.283978569265;398.73078774917
318.305604612086;398.016557747459
318.327230654906;397.262201757419
318.348856697726;396.437321173958
318.370482740547;395.583837634635
318.392108783367;394.731053463532
318.413734826187;393.852634050371
318.435360869008;392.922776239754
318.456986911828;391.958331455359
318.478612954649;391.025541051471
318.500238997469;390.116766028172
318.521865040289;389.202525395863
318.54349108311;388.289127703634
318.56511712593;387.389855842565
318.58674316875;386.502381001502
318.608369211571;385.63276518859
318.629995254391;384.77175726689
318.651621297212;383.93549422177
318.673247340032;383.137755224906
318.694873382852;382.369500493032
318.716499425673;381.618779078426
318.738125468493;380.8820693949
318.759751511313;380.149973806853
318.781377554134;379.432985879318
318.803003596954;378.748499570372
318.824629639775;378.093505547522
318.846255682595;377.478958348008
318.867881725415;376.930966013268
318.889507768236;376.442165002659
318.911133811056;375.99134251738
318.932759853876;375.558851284101
318.954385896697;375.133682931112
318.976011939517;374.731246223098
318.997637982338;374.359159607597
319.019264025158;374.005137816765
319.040890067978;373.645634265618
319.062516110799;373.272714729267
319.084142153619;372.904645746348
319.105768196439;372.541229923591
319.12739423926;372.158551117285
319.14902028208;371.733902208079
319.170646324901;371.257506537628
319.192272367721;370.750401734022
319.213898410541;370.236906662976
319.235524453362;369.715130091094
319.257150496182;369.178524185577
319.278776539002;368.638876294929
319.300402581823;368.093288906116
319.322028624643;367.536178705308
319.343654667464;366.957695958317
319.365280710284;366.383094395881
319.386906753104;365.858236165701
319.408532795925;365.357725489667
319.430158838745;364.855775534801
319.451784881565;364.360861143456
319.473410924386;363.873998897203
319.495036967206;363.381496597981
319.516663010027;362.870357963622
319.538289052847;362.336903091613
319.559915095667;361.786131284855
319.581541138488;361.227730610767
319.603167181308;360.667306490628
319.624793224128;360.105898940729
319.646419266949;359.54224399976
319.668045309769;358.971421062438
319.68967135259;358.384252104307
319.71129739541;357.765992228573
319.73292343823;357.128975099299
319.754549481051;356.50521002367
319.776175523871;355.918548179235
319.797801566691;355.364072408796
319.819427609512;354.837364163234
319.841053652332;354.359908064301
319.862679695153;353.940291899109
319.884305737973;353.568348669767
319.905931780793;353.250104024078
319.927557823614;353.007367185857
319.949183866434;352.84896538218
319.970809909254;352.776537097882
319.992435952075;352.791783519872
320.014061994895;352.885542770692
320.035688037716;353.039449910187
320.057314080536;353.247591460692
320.078940123356;353.514338177094
320.100566166177;353.835186822261
320.122192208997;354.194999856399
320.143818251817;354.579412114906
320.165444294638;354.980650268552
320.187070337458;355.404581895385
320.208696380279;355.856161277223
320.230322423099;356.323782131086
320.251948465919;356.789879811582
320.27357450874;357.247496536932
320.29520055156;357.69175935647
320.31682659438;358.114980195756
320.338452637201;358.49645263636
320.360078680021;358.805806918058
320.381704722842;359.028300137621
320.403330765662;359.140347690995
320.424956808482;359.111204379896
320.446582851303;358.926024574083
320.468208894123;358.577152357312
320.489834936943;358.045652726857
320.511460979764;357.336065130725
320.533087022584;356.47318552778
320.554713065404;355.508333051884
320.576339108225;354.487420712754
320.597965151045;353.391493813512
320.619591193866;352.211822013372
320.641217236686;350.98488593312
320.662843279506;349.758255063751
320.684469322327;348.584166997781
320.706095365147;347.487719279115
320.727721407968;346.46564219736
320.749347450788;345.516219150272
320.770973493608;344.644538741127
320.792599536429;343.841593359621
320.814225579249;343.091597658063
320.835851622069;342.378436413424
320.85747766489;341.671804595199
320.87910370771;340.954515891574
320.900729750531;340.227864643485
320.922355793351;339.486486573205
320.943981836171;338.702450277995
320.965607878992;337.826548903512
320.987233921812;336.823739274745
321.008859964632;335.691822714549
321.030486007453;334.415452006053
321.052112050273;332.995432442678
321.073738093093;331.481142040256
321.095364135914;329.909598407677
321.116990178734;328.304934720268
321.138616221555;326.653975193579
321.160242264375;324.957882137125
321.181868307195;323.264105791728
321.203494350016;321.612465130069
321.225120392836;320.017050568021
321.246746435657;318.460767059621
321.268372478477;317.009448252897
321.289998521297;315.739893913912
321.311624564118;314.664918554836
321.333250606938;313.773343003917
321.354876649758;313.086049005
321.376502692579;312.607301801359
321.398128735399;312.315899671836
321.41975477822;312.209021993492
321.44138082104;312.310265776667
321.46300686386;312.545399279424
321.484632906681;312.874189981721
321.506258949501;313.275834431463
321.527884992321;313.724193872515
321.549511035142;314.166178273857
321.571137077962;314.565085239332
321.592763120782;314.912176027917
321.614389163603;315.191237934873
321.636015206423;315.387206188607
321.657641249244;315.502981199836
321.679267292064;315.52793789714
321.700893334884;315.469472449597
321.722519377705;315.349615533964
321.744145420525;315.184708777676
321.765771463345;314.992088702811
321.787397506166;314.793644950217
321.809023548986;314.600859877289
321.830649591807;314.419337963625
321.852275634627;314.251874413946
321.873901677447;314.112109862659
321.895527720268;314.003452612261
321.917153763088;313.912880778993
321.938779805909;313.824838309823
321.960405848729;313.725849874299
321.982031891549;313.6053367172
322.00365793437;313.445613197073
322.02528397719;313.228243525232
322.04691002001;312.952029443603
322.068536062831;312.626711626202
322.090162105651;312.265838004644
322.111788148471;311.879217257112
322.133414191292;311.468093705367
322.155040234112;311.034315061133
322.176666276933;310.595170663497
322.198292319753;310.17109016729
322.219918362573;309.773969162389
322.241544405394;309.408376456588
322.263170448214;309.073139828788
322.284796491034;308.765737512675
322.306422533855;308.485129553802
322.328048576675;308.221144007082
322.349674619496;307.95784407228
322.371300662316;307.681586976507
322.392926705136;307.381050375682
322.414552747957;307.057995828331
322.436178790777;306.703875445591
322.457804833597;306.303569826534
322.479430876418;305.851109254669
322.501056919238;305.357922269845
322.522682962059;304.843447583022
322.544309004879;304.309059467955
322.565935047699;303.763295038569
322.58756109052;303.208629059761
322.60918713334;302.631702453351
322.63081317616;302.03317151695
322.652439218981;301.431638820723
322.674065261801;300.849002895393
322.695691304622;300.283487693148
322.717317347442;299.716192839667
322.738943390262;299.133037746025
322.760569433083;298.533136900977
322.782195475903;297.919854623624
322.803821518723;297.291363518987
322.825447561544;296.639276136777
322.847073604364;295.948471157745
322.868699647185;295.195658940573
322.890325690005;294.390979772102
322.911951732825;293.568982974427
322.933577775646;292.719578605048
322.955203818466;291.840701316462
322.976829861286;290.950985865356
322.998455904107;290.057055589441
323.020081946927;289.155363224102
323.041707989748;288.256835648164
323.063334032568;287.384392815553
323.084960075388;286.559412395318
323.106586118209;285.816648459506
323.128212161029;285.174496645614
323.149838203849;284.629754194594
323.17146424667;284.171334388302
323.19309028949;283.785993701599
323.214716332311;283.480084752573
323.236342375131;283.258505064435
323.257968417951;283.103691288341
323.279594460772;282.996179572146
323.301220503592;282.922231504554
323.322846546412;282.867885635243
323.344472589233;282.816743474829
323.366098632053;282.759755499721
323.387724674874;282.690267379244
323.409350717694;282.604884114282
323.430976760514;282.499427189444
323.452602803335;282.367985143928
323.474228846155;282.204774701785
323.495854888975;282.001750860584
323.517480931796;281.750835284495
323.539106974616;281.459600245195
323.560733017437;281.144036965792
323.582359060257;280.812178081591
323.603985103077;280.458616606075
323.625611145898;280.080091193961
323.647237188718;279.695132620362
323.668863231538;279.313938525543
323.690489274359;278.922096322905
323.712115317179;278.509627590402
323.73374136;278.073724560205
323.75536740282;277.611632457634
323.77699344564;277.123929206
323.798619488461;276.614114144495
323.820245531281;276.083653304943
323.841871574101;275.523537668815
323.863497616922;274.916059337231
323.885123659742;274.259774730165
323.906749702563;273.569081412256
323.928375745383;272.845522203367
323.950001788203;272.068406956612
323.971627831024;271.215025438457
323.993253873844;270.298817791987
324.014879916664;269.355897504995
324.036505959485;268.407514104904
324.058132002305;267.461695036804
324.079758045126;266.523373370603
324.101384087946;265.578668461718
324.123010130766;264.621091461186
324.144636173587;263.660134025894
324.166262216407;262.703221997412
324.187888259227;261.756757829191
324.209514302048;260.842778186255
324.231140344868;259.983260995146
324.252766387689;259.16969355178
324.274392430509;258.365162119705
324.296018473329;257.524820527407
324.31764451615;256.645466411909
324.33927055897;255.790397863548
324.36089660179;254.991204364588
324.382522644611;254.200778879568
324.404148687431;253.376212306883
324.425774730252;252.48875193109
324.447400773072;251.575631737964
324.469026815892;250.661639904014
324.490652858713;249.719316328714
324.512278901533;248.715238463046
324.533904944353;247.659550889353
324.555530987174;246.556848331724
324.577157029994;245.412034042953
324.598783072815;244.249942250629
324.620409115635;243.079050306507
324.642035158455;241.890210223926
324.663661201276;240.657506763786
324.685287244096;239.349510923855
324.706913286916;237.982588947898
324.728539329737;236.618967183768
324.750165372557;235.268676521248
