Name;ESR_BC_1_3600s_Y_gon_160dg_result

Recipe
Accumulations;5;Number of accumulations
RetryCount;0;Number of retries on error
AbortOnError;True;Abort on error
EnableQFactorMeasurement;False;Enable/Disable q-Factor measurement
Bfrom;313;B from
Bto;363;B to
SweepTime;60;Sweep time
Modulation;0.2;Modulation
ModulationFreq;100;Modulation
BHoldEnabled;False;B hold enabled
BHold;0;B hold
MicrowavePower;2;Microwave power
MarkerEnabled;False;
MarkerStartField;0;
MarkerEndField;0;
Mode;;
KineticGFact;0;
KineticTotalTransientTime;0;
KineticTimeResolution;0;
TempFrom;5;
TempUseSlope;False;
TempTo;5;
TempdT;1;
TempSetupTime;0;
GonFrom;0;
GonTo;180;
GonSteps;20;
XRayEnabled;False;
XRayTime;3;
XRayVoltage;40;
XRayCurrent;0.5;
UVEnabled;False;
UVIntensity;0;
UVTime;0;
UVLeadTime;0;
UVWavelength;0;
PowSweepFrom;1;
PowSweepTo;5;
PowSweepSteps;5;
AmpModSweepFrom;0;
AmpModSweepTo;1;
AmpModSweepSteps;10;
ExtTriggerEnabled;False;
ExtTrigLeadTime;0;
ExtTrigOnTime;5;

Meas
BField [mT];MW_Absorption []
313.015764694214;158.770229496825
313.037385899351;158.104224711122
313.059007104488;157.384297239954
313.080628309625;156.641414748118
313.102249514763;155.885422292669
313.1238707199;155.133876171398
313.145491925037;154.415804995569
313.167113130174;153.74395129817
313.188734335311;153.108035202907
313.210355540449;152.506338118005
313.231976745586;151.959979837437
313.253597950723;151.503660286562
313.27521915586;151.15050737462
313.296840360997;150.896788805237
313.318461566134;150.724790705381
313.340082771272;150.630247800618
313.361703976409;150.608763588463
313.383325181546;150.641057700671
313.404946386683;150.710683556806
313.42656759182;150.802354721006
313.448188796957;150.903318411389
313.469810002095;151.003344835999
313.491431207232;151.09931895748
313.513052412369;151.177113795133
313.534673617506;151.2062712009
313.556294822643;151.177238193384
313.577916027781;151.103020631725
313.599537232918;151.004564620954
313.621158438055;150.889324226458
313.642779643192;150.746019355965
313.664400848329;150.566994973587
313.686022053466;150.348659221875
313.707643258604;150.091800339353
313.729264463741;149.788957239998
313.750885668878;149.424264768469
313.772506874015;149.020668516663
313.794128079152;148.603860195969
313.81574928429;148.184668180021
313.837370489427;147.769306588407
313.858991694564;147.366425660857
313.880612899701;146.966419494226
313.902234104838;146.553899874687
313.923855309975;146.127468267718
313.945476515113;145.704175390333
313.96709772025;145.320895527683
313.988718925387;144.986310859098
314.010340130524;144.686261138279
314.031961335661;144.415844564099
314.053582540799;144.182325831696
314.075203745936;143.984668799985
314.096824951073;143.820838910404
314.11844615621;143.692705222673
314.140067361347;143.601296307903
314.161688566484;143.537602332975
314.183309771622;143.494164383356
314.204930976759;143.470795068964
314.226552181896;143.460248359762
314.248173387033;143.448226217174
314.26979459217;143.42735709621
314.291415797307;143.39490057315
314.313037002445;143.357565066492
314.334658207582;143.324268720652
314.356279412719;143.285136852969
314.377900617856;143.230920405585
314.399521822993;143.156254757033
314.421143028131;143.062533778193
314.442764233268;142.94785970426
314.464385438405;142.809661057061
314.486006643542;142.645843241575
314.507627848679;142.460637116902
314.529249053816;142.254610642105
314.550870258954;142.024164703103
314.572491464091;141.768161674687
314.594112669228;141.496009620087
314.615733874365;141.223450546926
314.637355079502;140.96080345177
314.658976284639;140.721856357002
314.680597489777;140.507920042281
314.702218694914;140.311295434842
314.723839900051;140.130227495817
314.745461105188;139.966287238337
314.767082310325;139.817851091097
314.788703515463;139.674749168014
314.8103247206;139.531833684002
314.831945925737;139.390565241903
314.853567130874;139.246102962392
314.875188336011;139.08759672213
314.896809541149;138.907569388237
314.918430746286;138.700482889774
314.940051951423;138.460608417784
314.96167315656;138.185478616043
314.983294361697;137.877981494473
315.004915566834;137.547890434709
315.026536771972;137.211512453566
315.048157977109;136.885370256013
315.069779182246;136.585103810073
315.091400387383;136.320427864334
315.11302159252;136.103984746173
315.134642797657;135.947423807117
315.156264002795;135.86155013006
315.177885207932;135.857577720289
315.199506413069;135.939495079771
315.221127618206;136.099232265925
315.242748823343;136.313330308567
315.264370028481;136.541404548407
315.285991233618;136.764424901132
315.307612438755;136.978889644809
315.329233643892;137.17132743576
315.350854849029;137.307180142455
315.372476054166;137.390280015038
315.394097259304;137.430047837226
315.415718464441;137.431338941286
315.437339669578;137.400494212036
315.458960874715;137.342457889037
315.480582079852;137.25498926907
315.502203284989;137.142740277499
315.523824490127;137.01735787326
315.545445695264;136.881253010369
315.567066900401;136.729781113509
315.588688105538;136.554554159082
315.610309310675;136.348059809227
315.631930515813;136.124440680784
315.65355172095;135.893575845536
315.675172926087;135.660181020776
315.696794131224;135.427499480545
315.718415336361;135.200644644226
315.740036541499;134.982401747954
315.761657746636;134.772467637359
315.783278951773;134.570125422511
315.80490015691;134.384546812919
315.826521362047;134.229036030222
315.848142567184;134.107315058202
315.869763772322;134.020010032362
315.891384977459;133.97482857605
315.913006182596;133.972377593944
315.934627387733;134.004703492899
315.95624859287;134.068690123165
315.977869798007;134.16401917297
315.999491003145;134.280973839322
316.021112208282;134.398574365984
316.042733413419;134.500153667603
316.064354618556;134.582659602338
316.085975823693;134.64907951813
316.107597028831;134.696018442655
316.129218233968;134.716867697104
316.150839439105;134.71711260104
316.172460644242;134.713144318324
316.194081849379;134.710909757515
316.215703054516;134.715681531242
316.237324259654;134.740287251016
316.258945464791;134.795228136689
316.280566669928;134.881643811894
316.302187875065;134.996765496461
316.323809080202;135.136765588923
316.345430285339;135.290534758098
316.367051490477;135.445000345663
316.388672695614;135.591078562424
316.410293900751;135.722463259406
316.431915105888;135.82130922822
316.453536311025;135.862638540494
316.475157516163;135.838520735654
316.4967787213;135.74035445993
316.518399926437;135.556752253921
316.540021131574;135.289519118412
316.561642336711;134.944393903725
316.583263541848;134.519999331763
316.604884746986;134.008740749222
316.626505952123;133.415083833424
316.64812715726;132.785777151223
316.669748362397;132.161474239784
316.691369567534;131.538656607399
316.712990772672;130.927821923241
316.734611977809;130.355375710392
316.756233182946;129.834741541432
316.777854388083;129.378864563952
316.79947559322;129.006705069739
316.821096798357;128.718974571951
316.842718003495;128.503581630179
316.864339208632;128.356008077935
316.885960413769;128.27728025425
316.907581618906;128.250995159024
316.929202824043;128.266614897888
316.950824029181;128.326060359573
316.972445234318;128.406988133967
316.994066439455;128.479581370671
317.015687644592;128.532610216221
317.037308849729;128.564893368675
317.058930054866;128.577982768984
317.080551260004;128.568240957925
317.102172465141;128.533996403519
317.123793670278;128.489427140546
317.145414875415;128.457068140032
317.167036080552;128.438683768487
317.188657285689;128.42764372518
317.210278490827;128.426803338895
317.231899695964;128.437780352626
317.253520901101;128.460108644886
317.275142106238;128.49621211528
317.296763311375;128.542808970471
317.318384516513;128.595356298737
317.34000572165;128.652213604064
317.361626926787;128.714140980952
317.383248131924;128.785657209551
317.404869337061;128.8720764896
317.426490542198;128.971407598584
317.448111747336;129.079203220142
317.469732952473;129.198134087665
317.49135415761;129.324507099013
317.512975362747;129.446174964494
317.534596567884;129.55624853839
317.556217773022;129.645082902238
317.577838978159;129.703997632674
317.599460183296;129.739210124008
317.621081388433;129.738252011546
317.64270259357;129.689730557533
317.664323798707;129.596872210912
317.685945003845;129.470758796038
317.707566208982;129.317115522669
317.729187414119;129.127203550456
317.750808619256;128.894714561426
317.772429824393;128.63594023356
317.794051029531;128.37337801093
317.815672234668;128.119969093846
317.837293439805;127.87695401448
317.858914644942;127.634327694031
317.880535850079;127.392522371804
317.902157055216;127.171700067162
317.923778260354;126.97341713731
317.945399465491;126.786737483229
317.967020670628;126.603233357002
317.988641875765;126.418331995044
318.010263080902;126.23191400383
318.031884286039;126.047704258412
318.053505491177;125.861018808037
318.075126696314;125.663646195605
318.096747901451;125.46103660502
318.118369106588;125.256055419129
318.139990311725;125.04435012969
318.161611516863;124.825424912921
318.183232722;124.600662042208
318.204853927137;124.372890936969
318.226475132274;124.142080397641
318.248096337411;123.90197638162
318.269717542548;123.649959683033
318.291338747686;123.397630999489
318.312959952823;123.158510888027
318.33458115796;122.933217801686
318.356202363097;122.718005692055
318.377823568234;122.50764819218
318.399444773372;122.296326976002
318.421065978509;122.094430842795
318.442687183646;121.924024075105
318.464308388783;121.770781926185
318.48592959392;121.619641640736
318.507550799057;121.476223449414
318.529172004195;121.323532651936
318.550793209332;121.13502803035
318.572414414469;120.898247910728
318.594035619606;120.609718025427
318.615656824743;120.260133381785
318.637278029881;119.846370453902
318.658899235018;119.365895109823
318.680520440155;118.829627348966
318.702141645292;118.248924246218
318.723762850429;117.620002850535
318.745384055566;116.965138183565
318.767005260704;116.315216768856
318.788626465841;115.681679180769
318.810247670978;115.090040208026
318.831868876115;114.575646184828
318.853490081252;114.129773237348
318.875111286389;113.731532287952
318.896732491527;113.371889638531
318.918353696664;113.061402862527
318.939974901801;112.80950963429
318.961596106938;112.60612706998
318.983217312075;112.429013373539
319.004838517213;112.25955391276
319.02645972235;112.0804096469
319.048080927487;111.881391079238
319.069702132624;111.67090349763
319.091323337761;111.447587005586
319.112944542898;111.204231264567
319.134565748036;110.948073119857
319.156186953173;110.685296846201
319.17780815831;110.411048208198
319.199429363447;110.130176976693
319.221050568584;109.868683843353
319.242671773722;109.643100189327
319.264292978859;109.449672418084
319.285914183996;109.280941046591
319.307535389133;109.133505790244
319.32915659427;109.006083108909
319.350777799407;108.900129807777
319.372399004545;108.81704229537
319.394020209682;108.744189127264
319.415641414819;108.66547859415
319.437262619956;108.588956323693
319.458883825093;108.546666150866
319.480505030231;108.54580408585
319.502126235368;108.560487665683
319.523747440505;108.583301774444
319.545368645642;108.623809914976
319.566989850779;108.687769564632
319.588611055916;108.768196725685
319.610232261054;108.859319875399
319.631853466191;108.959249363072
319.653474671328;109.060622449724
319.675095876465;109.149732833773
319.696717081602;109.220277578018
319.718338286739;109.276985564378
319.739959491877;109.324865085253
319.761580697014;109.367218881595
319.783201902151;109.409555435322
319.804823107288;109.460332351229
319.826444312425;109.522897343639
319.848065517563;109.59681435946
319.8696867227;109.689933423197
319.891307927837;109.800056282088
319.912929132974;109.913833354582
319.934550338111;110.021420441392
319.956171543248;110.117991786797
319.977792748386;110.196985180126
319.999413953523;110.250797626916
320.02103515866;110.271279631134
320.042656363797;110.245268734907
320.064277568934;110.162811234495
320.085898774072;110.031342135807
320.107519979209;109.850308438743
320.129141184346;109.601642437695
320.150762389483;109.290159998718
320.17238359462;108.954151782358
320.194004799757;108.615718907551
320.215626004895;108.269751902212
320.237247210032;107.917066879394
320.258868415169;107.585415775821
320.280489620306;107.292383586325
320.302110825443;107.038709867963
320.323732030581;106.830307183303
320.345353235718;106.680186964128
320.366974440855;106.593084638834
320.388595645992;106.563651695347
320.410216851129;106.58485781719
320.431838056266;106.652980690953
320.453459261404;106.765370584342
320.475080466541;106.923793349567
320.496701671678;107.118797643901
320.518322876815;107.339008641041
320.539944081952;107.574576750589
320.561565287089;107.81621736491
320.583186492227;108.057108893447
320.604807697364;108.281808614607
320.626428902501;108.48188267012
320.648050107638;108.656778631097
320.669671312775;108.795959524546
320.691292517913;108.885839439466
320.71291372305;108.928736579721
320.734534928187;108.930535516325
320.756156133324;108.890015928946
320.777777338461;108.814903526201
320.799398543598;108.716246986352
320.821019748736;108.605349016986
320.842640953873;108.495763598553
320.86426215901;108.394399224792
320.885883364147;108.299140691751
320.907504569284;108.209170151486
320.929125774422;108.126618760302
320.950746979559;108.05597031566
320.972368184696;108.000045088987
320.993989389833;107.957428293373
321.01561059497;107.924892125305
321.037231800107;107.902414709547
321.058853005245;107.894194486116
321.080474210382;107.909658826644
321.102095415519;107.958190479768
321.123716620656;108.041316308052
321.145337825793;108.17253605695
321.166959030931;108.361757863042
321.188580236068;108.599918971
321.210201441205;108.869169755481
321.231822646342;109.160154614808
321.253443851479;109.462109339032
321.275065056616;109.771888769741
321.296686261754;110.076673778937
321.318307466891;110.354210438747
321.339928672028;110.583093687905
321.361549877165;110.749474981795
321.383171082302;110.842800359527
321.404792287439;110.854953482263
321.426413492577;110.772332689403
321.448034697714;110.592406640459
321.469655902851;110.316882928901
321.491277107988;109.957402472379
321.512898313125;109.540091361149
321.534519518263;109.088904622346
321.5561407234;108.61849306812
321.577761928537;108.133838015746
321.599383133674;107.65661975794
321.621004338811;107.219962950749
321.642625543948;106.8371008979
321.664246749086;106.516874461823
321.685867954223;106.256859839212
321.70748915936;106.04282095787
321.729110364497;105.869144351045
321.750731569634;105.734096638276
321.772352774772;105.639150677831
321.793973979909;105.563715443566
321.815595185046;105.475095817233
321.837216390183;105.367179872837
321.85883759532;105.24569076219
321.880458800457;105.102183788053
321.902080005595;104.930326762321
321.923701210732;104.721210957916
321.945322415869;104.472688360413
321.966943621006;104.184347264685
321.988564826143;103.854920075612
322.010186031281;103.483420701637
322.031807236418;103.065240121361
322.053428441555;102.609467335956
322.075049646692;102.125800305416
322.096670851829;101.606297304695
322.118292056966;101.052192481907
322.139913262104;100.474006345487
322.161534467241;99.8802446388984
322.183155672378;99.2775040629601
322.204776877515;98.6831834828171
322.226398082652;98.1158727176655
322.248019287789;97.5872710661997
322.269640492927;97.100182599826
322.291261698064;96.6675345827073
322.312882903201;96.3017677842352
322.334504108338;95.9969967673087
322.356125313475;95.7479438849663
322.377746518613;95.5622202325804
322.39936772375;95.4492241312036
322.420988928887;95.3982131303158
322.442610134024;95.4171711918581
322.464231339161;95.4953750471542
322.485852544298;95.6145825153713
322.507473749436;95.7577290415858
322.529094954573;95.9129093940399
322.55071615971;96.0784280285627
322.572337364847;96.2533580416786
322.593958569984;96.4277508309281
322.615579775122;96.5828400944091
322.637200980259;96.7044371143731
322.658822185396;96.7776818196533
322.680443390533;96.8056419778748
322.70206459567;96.7964916207398
322.723685800807;96.7528471050495
322.745307005945;96.6777261779797
322.766928211082;96.5756352688232
322.788549416219;96.4570332096895
322.810170621356;96.3309166677945
322.831791826493;96.2066151418072
322.853413031631;96.091182797153
322.875034236768;95.9901353118557
322.896655441905;95.902196093812
322.918276647042;95.8174804121603
322.939897852179;95.7217137956025
322.961519057316;95.6034917137997
322.983140262454;95.448996899174
323.004761467591;95.2478256021213
323.026382672728;94.9967074765501
323.048003877865;94.7044192423815
323.069625083002;94.378030511507
323.091246288139;94.0213579210538
323.112867493277;93.629188989969
323.134488698414;93.2024266092148
323.156109903551;92.7515509214675
323.177731108688;92.2813642542349
323.199352313825;91.7880793072044
323.220973518963;91.2771720420125
323.2425947241;90.7477296855574
323.264215929237;90.1953020690172
323.285837134374;89.6266540833319
323.307458339511;89.0600654891821
323.329079544648;88.5101499168583
323.350700749786;87.9820191277815
323.372321954923;87.4748247024213
323.39394316006;86.9911950523264
323.415564365197;86.534466196631
323.437185570334;86.0955086015388
323.458806775471;85.6800723486769
323.480427980609;85.3096446006796
323.502049185746;84.984357160051
323.523670390883;84.6866781055058
323.54529159602;84.4183895342785
323.566912801157;84.1934436803459
323.588534006295;84.0109602206477
323.610155211432;83.86094324266
323.631776416569;83.7403008295681
323.653397621706;83.6498591927802
323.675018826843;83.5836690871072
323.696640031981;83.529610705156
323.718261237118;83.4853124093909
323.739882442255;83.4551312132409
323.761503647392;83.4367171726616
323.783124852529;83.418409495424
323.804746057666;83.3883748519604
323.826367262804;83.3418218936547
323.847988467941;83.2762987809271
323.869609673078;83.1873296460651
323.891230878215;83.0740777926936
323.912852083352;82.9418803579553
323.934473288489;82.796725641399
323.956094493627;82.638870104243
323.977715698764;82.465740849406
323.999336903901;82.2806071310914
324.020958109038;82.0895627275161
324.042579314175;81.8950779429901
324.064200519313;81.7068956429614
324.08582172445;81.5394737329074
324.107442929587;81.3929927261243
324.129064134724;81.2656757229056
324.150685339861;81.1671560482589
324.172306544998;81.1007633989398
324.193927750136;81.0621591206891
324.215548955273;81.0432073454402
324.23717016041;81.0368028559825
324.258791365547;81.0399071123325
324.280412570684;81.0503311362912
324.302033775821;81.0670629097296
324.323654980959;81.0903864786446
324.345276186096;81.1141604175372
324.366897391233;81.1334004945861
324.38851859637;81.142219611762
324.410139801507;81.1365027049538
324.431761006645;81.119536388508
324.453382211782;81.0957335483594
324.475003416919;81.0657848729167
324.496624622056;81.0328798536935
324.518245827193;80.9978588013139
324.539867032331;80.9608920707288
324.561488237468;80.9267716985444
324.583109442605;80.9246819239398
324.604730647742;80.9676436464323
324.626351852879;81.0411449887536
324.647973058016;81.1384597139933
324.669594263154;81.2612699560714
324.691215468291;81.4117142395988
324.712836673428;81.5788375131048
324.734457878565;81.7425362692209
324.756079083702;81.8851228894252
324.777700288839;82.0009416695167
