Name;ESR_BC_1_89s_Y_gon_20dg_result

Recipe
Accumulations;5;Number of accumulations
RetryCount;0;Number of retries on error
AbortOnError;True;Abort on error
EnableQFactorMeasurement;False;Enable/Disable q-Factor measurement
Bfrom;313;B from
Bto;363;B to
SweepTime;60;Sweep time
Modulation;0.2;Modulation
ModulationFreq;100;Modulation
BHoldEnabled;False;B hold enabled
BHold;0;B hold
MicrowavePower;2;Microwave power
MarkerEnabled;False;
MarkerStartField;0;
MarkerEndField;0;
Mode;;
KineticGFact;0;
KineticTotalTransientTime;0;
KineticTimeResolution;0;
TempFrom;5;
TempUseSlope;False;
TempTo;5;
TempdT;1;
TempSetupTime;0;
GonFrom;0;
GonTo;180;
GonSteps;20;
XRayEnabled;False;
XRayTime;3;
XRayVoltage;40;
XRayCurrent;0.5;
UVEnabled;False;
UVIntensity;0;
UVTime;0;
UVLeadTime;0;
UVWavelength;0;
PowSweepFrom;1;
PowSweepTo;5;
PowSweepSteps;5;
AmpModSweepFrom;0;
AmpModSweepTo;1;
AmpModSweepSteps;10;
ExtTriggerEnabled;False;
ExtTrigLeadTime;0;
ExtTrigOnTime;5;

Meas
BField [mT];MW_Absorption []
313.011773910522;134.358796962271
313.033400398519;134.14624692077
313.055026886515;133.797668942917
313.076653374511;133.463888661024
313.098279862507;133.130204774873
313.119906350503;132.782048077286
313.141532838499;132.426572453173
313.163159326496;132.069476986803
313.184785814492;131.707181968423
313.206412302488;131.335711320342
313.228038790484;130.940566536546
313.24966527848;130.512125285066
313.271291766476;130.060582606693
313.292918254472;129.602805798589
313.314544742469;129.158503631497
313.336171230465;128.735659867783
313.357797718461;128.334413021192
313.379424206457;127.972523598293
313.401050694453;127.671184007542
313.422677182449;127.431202865999
313.444303670446;127.247955127813
313.465930158442;127.133418374103
313.487556646438;127.100209234198
313.509183134434;127.145432091808
313.53080962243;127.259571501205
313.552436110426;127.433128855523
313.574062598422;127.65760650778
313.595689086419;127.913736221653
313.617315574415;128.168701205582
313.638942062411;128.415841786898
313.660568550407;128.659650653416
313.682195038403;128.905535670165
313.703821526399;129.151549669085
313.725448014396;129.379508842865
313.747074502392;129.580696165985
313.768700990388;129.757394814634
313.790327478384;129.914952098982
313.81195396638;130.058748051848
313.833580454376;130.188120914159
313.855206942372;130.29987048066
313.876833430369;130.389470463226
313.898459918365;130.463727514277
313.920086406361;130.520168359116
313.941712894357;130.55640324531
313.963339382353;130.577071422397
313.984965870349;130.59260478582
314.006592358346;130.607908313471
314.028218846342;130.622595465638
314.049845334338;130.627413076741
314.071471822334;130.612099676824
314.09309831033;130.565945784427
314.114724798326;130.484788846671
314.136351286323;130.374769890286
314.157977774319;130.232167558776
314.179604262315;130.049961857316
314.201230750311;129.824240098486
314.222857238307;129.549960244008
314.244483726303;129.226549529161
314.266110214299;128.872186045509
314.287736702296;128.506182720338
314.309363190292;128.133923178162
314.330989678288;127.74768734845
314.352616166284;127.336635860884
314.37424265428;126.911812229295
314.395869142276;126.499056611534
314.417495630273;126.111422684089
314.439122118269;125.751169891806
314.460748606265;125.419666443411
314.482375094261;125.115721748455
314.504001582257;124.848731956419
314.525628070253;124.626638429963
314.547254558249;124.451751179668
314.568881046246;124.317239789836
314.590507534242;124.216567957258
314.612134022238;124.150535297266
314.633760510234;124.109465665
314.65538699823;124.076773264134
314.677013486226;124.041806480598
314.698639974223;123.999257264175
314.720266462219;123.934271681228
314.741892950215;123.842379929673
314.763519438211;123.730647503314
314.785145926207;123.597890243778
314.806772414203;123.435236108466
314.828398902199;123.249802459505
314.850025390196;123.06442049732
314.871651878192;122.890776145891
314.893278366188;122.736683523273
314.914904854184;122.612307313767
314.93653134218;122.524730538705
314.958157830176;122.475473451245
314.979784318173;122.457446149305
315.001410806169;122.459647944479
315.023037294165;122.481613576473
315.044663782161;122.521858578709
315.066290270157;122.564776304205
315.087916758153;122.605099770103
315.109543246149;122.646271601072
315.131169734146;122.686160546403
315.152796222142;122.711871182901
315.174422710138;122.705231376075
315.196049198134;122.658218560073
315.21767568613;122.568239552151
315.239302174126;122.424671099934
315.260928662123;122.217568326102
315.282555150119;121.952329817677
315.304181638115;121.639082056193
315.325808126111;121.288606409398
315.347434614107;120.905300735204
315.369061102103;120.489556131592
315.3906875901;120.060863398227
315.412314078096;119.648904873314
315.433940566092;119.262300528056
315.455567054088;118.903388470372
315.477193542084;118.580834944359
315.49882003008;118.303159517088
315.520446518076;118.077228999465
315.542073006073;117.901484795703
315.563699494069;117.770719475816
315.585325982065;117.670414273299
315.606952470061;117.590552290909
315.628578958057;117.526848838509
315.650205446053;117.4842154179
315.67183193405;117.464589964196
315.693458422046;117.455407681565
315.715084910042;117.448516083448
315.736711398038;117.432867736843
315.758337886034;117.399958708784
315.77996437403;117.348950617208
315.801590862026;117.281602673822
315.823217350023;117.196754828508
315.844843838019;117.082134771472
315.866470326015;116.928473605882
315.888096814011;116.734572336906
315.909723302007;116.507586355726
315.931349790003;116.246240251022
315.952976278;115.95037658306
315.974602765996;115.632587890823
315.996229253992;115.30329833378
316.017855741988;114.964697448923
316.039482229984;114.63304729726
316.06110871798;114.335504939119
316.082735205976;114.084319904183
316.104361693973;113.884276410671
316.125988181969;113.741578369336
316.147614669965;113.661334802963
316.169241157961;113.646619135648
316.190867645957;113.698365875561
316.212494133953;113.80997329647
316.23412062195;113.966383634066
316.255747109946;114.15218648323
316.277373597942;114.361892437568
316.299000085938;114.592032504716
316.320626573934;114.814366352361
316.34225306193;114.997408026278
316.363879549926;115.131213329788
316.385506037923;115.213556879765
316.407132525919;115.239951788606
316.428759013915;115.204740561297
316.450385501911;115.101392690694
316.472011989907;114.928382178587
316.493638477903;114.705634352118
316.5152649659;114.455257793337
316.536891453896;114.179961801925
316.558517941892;113.878347775202
316.580144429888;113.57114539448
316.601770917884;113.293356647738
316.62339740588;113.055824684628
316.645023893877;112.858123780847
316.666650381873;112.696839714643
316.688276869869;112.56880283133
316.709903357865;112.476419520402
316.731529845861;112.420740170084
316.753156333857;112.386720546819
316.774782821853;112.358885746047
316.79640930985;112.33142504348
316.818035797846;112.303770637554
316.839662285842;112.266636490862
316.861288773838;112.208734901552
316.882915261834;112.135877921378
316.90454174983;112.057582421269
316.926168237827;111.976301510322
316.947794725823;111.892674830225
316.969421213819;111.810364367099
316.991047701815;111.735188737304
317.012674189811;111.667998361362
317.034300677807;111.607465469076
317.055927165803;111.556441372108
317.0775536538;111.512476761536
317.099180141796;111.476879978641
317.120806629792;111.45760312947
317.142433117788;111.441933014943
317.164059605784;111.420416057989
317.18568609378;111.38804714818
317.207312581777;111.343795361255
317.228939069773;111.285693923941
317.250565557769;111.206982534078
317.272192045765;111.10740419644
317.293818533761;110.995208308389
317.315445021757;110.870703350721
317.337071509753;110.733754581077
317.35869799775;110.587549885415
317.380324485746;110.439692307847
317.401950973742;110.296346183889
317.423577461738;110.164015435803
317.445203949734;110.057300377901
317.46683043773;109.986837871878
317.488456925727;109.955062386872
317.510083413723;109.96462166847
317.531709901719;110.008608952269
317.553336389715;110.087285884486
317.574962877711;110.207098269214
317.596589365707;110.368748138114
317.618215853703;110.569211725943
317.6398423417;110.798052636093
317.661468829696;111.044419536447
317.683095317692;111.31260236291
317.704721805688;111.592254884085
317.726348293684;111.877275354256
317.74797478168;112.163712186812
317.769601269677;112.441012556846
317.791227757673;112.695150533785
317.812854245669;112.921216156022
317.834480733665;113.125411610915
317.856107221661;113.314059115952
317.877733709657;113.482818300804
317.899360197653;113.625312573192
317.92098668565;113.735552274671
317.942613173646;113.809013098187
317.964239661642;113.846219014261
317.985866149638;113.841359433544
318.007492637634;113.799141752129
318.02911912563;113.735785580699
318.050745613627;113.654828795257
318.072372101623;113.554749542804
318.093998589619;113.440076869154
318.115625077615;113.32061831456
318.137251565611;113.199709858539
318.158878053607;113.079414680965
318.180504541604;112.965198740378
318.2021310296;112.858049393658
318.223757517596;112.751601335094
318.245384005592;112.638918915227
318.267010493588;112.518891706177
318.288636981584;112.392218119669
318.31026346958;112.258078144898
318.331889957577;112.115997374284
318.353516445573;111.964685546709
318.375142933569;111.797364482851
318.396769421565;111.615363750386
318.418395909561;111.425479059777
318.440022397557;111.226441870192
318.461648885554;111.020894737115
318.48327537355;110.819273243609
318.504901861546;110.629688374202
318.526528349542;110.453999286622
318.548154837538;110.299680066799
318.569781325534;110.167865525317
318.59140781353;110.054336736704
318.613034301527;109.952472903248
318.634660789523;109.863705531714
318.656287277519;109.786779071218
318.677913765515;109.713257332689
318.699540253511;109.638975759843
318.721166741507;109.562387967277
318.742793229504;109.47762942517
318.7644197175;109.378085626283
318.786046205496;109.249701353236
318.807672693492;109.072958284481
318.829299181488;108.851765697895
318.850925669484;108.605092556876
318.87255215748;108.336519936582
318.894178645477;108.040834764595
318.915805133473;107.713885375381
318.937431621469;107.35196938504
318.959058109465;106.951848747945
318.980684597461;106.511899182077
319.002311085457;106.042294359779
319.023937573454;105.563137324461
319.04556406145;105.095482279541
319.067190549446;104.640629258446
319.088817037442;104.193193410528
319.110443525438;103.77004358552
319.132070013434;103.386964623435
319.15369650143;103.046836491028
319.175322989427;102.758636958816
319.196949477423;102.528108639011
319.218575965419;102.355673716309
319.240202453415;102.237914694435
319.261828941411;102.169505887338
319.283455429407;102.148576777511
319.305081917404;102.172249130004
319.3267084054;102.227622297555
319.348334893396;102.307696976356
319.369961381392;102.405144358183
319.391587869388;102.515622176706
319.413214357384;102.631311595166
319.434840845381;102.735731876062
319.456467333377;102.814884584367
319.478093821373;102.880829965471
319.499720309369;102.926070926535
319.521346797365;102.931386404371
319.542973285361;102.899844740828
319.564599773357;102.850369488166
319.586226261354;102.790414211294
319.60785274935;102.731622783623
319.629479237346;102.67921967007
319.651105725342;102.617049416054
319.672732213338;102.556378361649
319.694358701334;102.492126365764
319.715985189331;102.411021716488
319.737611677327;102.327950590581
319.759238165323;102.262024329193
319.780864653319;102.197835855816
319.802491141315;102.111614436737
319.824117629311;101.996358026741
319.845744117307;101.84642543013
319.867370605304;101.651697230185
319.8889970933;101.421665489363
319.910623581296;101.16571028287
319.932250069292;100.869598262933
319.953876557288;100.528629122065
319.975503045284;100.159069773303
319.997129533281;99.779977488353
320.018756021277;99.399874358363
320.040382509273;99.0232078164977
320.062008997269;98.6530373842931
320.083635485265;98.2971684158789
320.105261973261;97.9690481399919
320.126888461257;97.6855100091307
320.148514949254;97.4570596480448
320.17014143725;97.2823863059085
320.191767925246;97.1597236533799
320.213394413242;97.0765196732675
320.235020901238;97.0291941411114
320.256647389234;97.02208562951
320.278273877231;97.0466080246037
320.299900365227;97.0965143369014
320.321526853223;97.1453170267185
320.343153341219;97.1611884547798
320.364779829215;97.1391270544503
320.386406317211;97.0868787366826
320.408032805207;97.0074708186004
320.429659293204;96.8981597267672
320.4512857812;96.7580027079049
320.472912269196;96.5928400540608
320.494538757192;96.4142327675322
320.516165245188;96.237517702287
320.537791733184;96.0712822730482
320.559418221181;95.9192224767646
320.581044709177;95.7822835483803
320.602671197173;95.661307789454
320.624297685169;95.556669903697
320.645924173165;95.4682032148708
320.667550661161;95.404577511945
320.689177149158;95.3602285746681
320.710803637154;95.3260837156805
320.73243012515;95.2964657816496
320.754056613146;95.2675036699873
320.775683101142;95.2435960662439
320.797309589138;95.2371260546041
320.818936077134;95.2530059291844
320.840562565131;95.2905789081261
320.862189053127;95.3521894999984
320.883815541123;95.4387184901638
320.905442029119;95.5427735653261
320.927068517115;95.6616962146009
320.948695005111;95.794707913262
320.970321493108;95.9388231208797
320.991947981104;96.0856324464268
321.0135744691;96.2297115351337
321.035200957096;96.3621535986126
321.056827445092;96.4826729330302
321.078453933088;96.5961405158815
321.100080421084;96.7083619478147
321.121706909081;96.8271243054245
321.143333397077;96.9452646369844
321.164959885073;97.0524209572989
321.186586373069;97.1517079573295
321.208212861065;97.2585436418744
321.229839349061;97.387931648373
321.251465837058;97.5400489402754
321.273092325054;97.6990379745212
321.29471881305;97.8582230355158
321.316345301046;98.019802450204
321.337971789042;98.1857701935954
321.359598277038;98.3540000818655
321.381224765034;98.5195868640582
321.402851253031;98.6795639952362
321.424477741027;98.8312002023937
321.446104229023;98.9711201922694
321.467730717019;99.0937577817061
321.489357205015;99.1861500714726
321.510983693011;99.2384230078571
321.532610181008;99.2469299318234
321.554236669004;99.2073382141562
321.575863157;99.1093369619994
321.597489644996;98.9514664035071
321.619116132992;98.741003948844
321.640742620988;98.487862004233
321.662369108984;98.1999415830873
321.683995596981;97.8820359584466
321.705622084977;97.5326270967672
321.727248572973;97.1445059518831
321.748875060969;96.7147974703261
321.770501548965;96.2678489684925
321.792128036961;95.8475862432117
321.813754524958;95.4631953124154
321.835381012954;95.1076158026279
321.85700750095;94.7788031174335
321.878633988946;94.4673521950103
321.900260476942;94.166554629981
321.921886964938;93.8802810457977
321.943513452935;93.6145877667487
321.965139940931;93.3594656851635
321.986766428927;93.0962495346767
322.008392916923;92.8106913308529
322.030019404919;92.4970671913628
322.051645892915;92.1510237712513
322.073272380911;91.7688284164549
322.094898868908;91.3509885033526
322.116525356904;90.8993661375559
322.1381518449;90.4109325803228
322.159778332896;89.8842840663134
322.181404820892;89.3189425694068
322.203031308888;88.724922323099
322.224657796885;88.1115958709883
322.246284284881;87.481627520706
322.267910772877;86.8420307036122
322.289537260873;86.2220109366086
322.311163748869;85.6469039878043
322.332790236865;85.1060087706346
322.354416724861;84.5843733640002
322.376043212858;84.0842113967541
322.397669700854;83.607486372839
322.41929618885;83.154428552449
322.440922676846;82.7297317629406
322.462549164842;82.3468293115589
322.484175652838;82.0166404561123
322.505802140835;81.7434063771473
322.527428628831;81.5321484988684
322.549055116827;81.3908514346199
322.570681604823;81.3084662150875
322.592308092819;81.2728873013376
322.613934580815;81.2816174816421
322.635561068811;81.3556080837679
322.657187556808;81.4810845994141
322.678814044804;81.6456047911269
322.7004405328;81.831977686921
322.722067020796;82.0197359794613
322.743693508792;82.2125904733551
322.765319996788;82.4083722020925
322.786946484785;82.5930880390654
322.808572972781;82.7543586725037
322.830199460777;82.8924572294964
322.851825948773;83.0121523653466
322.873452436769;83.1137904070886
322.895078924765;83.1984699450413
322.916705412761;83.276205455728
322.938331900758;83.3531573542356
322.959958388754;83.4314027834186
322.98158487675;83.509240957949
323.003211364746;83.5869940186447
323.024837852742;83.6586886774755
323.046464340738;83.7166149684555
323.068090828735;83.7649556046118
323.089717316731;83.8083623754858
323.111343804727;83.8478255386491
323.132970292723;83.8851226766481
323.154596780719;83.9218557133876
323.176223268715;83.9524748176398
323.197849756711;83.9673671157857
323.219476244708;83.9553818349808
323.241102732704;83.9166588001663
323.2627292207;83.8543138984233
323.284355708696;83.7650316598342
323.305982196692;83.6428046901975
323.327608684688;83.4782992472813
323.349235172685;83.2540155701212
323.370861660681;82.975638285446
323.392488148677;82.6772942911875
323.414114636673;82.3750783830779
323.435741124669;82.058530961985
323.457367612665;81.7192916063989
323.478994100662;81.3873240006856
323.500620588658;81.0885613368545
323.522247076654;80.840023925806
323.54387356465;80.6442722075235
323.565500052646;80.4923186689031
323.587126540642;80.368780524758
323.608753028638;80.2724612473788
323.630379516635;80.2184536330821
323.652006004631;80.2032516733906
323.673632492627;80.2021050157843
323.695258980623;80.207107744542
323.716885468619;80.2113931867166
323.738511956615;80.2007901112288
323.760138444612;80.1650437554883
323.781764932608;80.0908248795478
323.803391420604;79.971051726741
323.8250179086;79.8238428886645
323.846644396596;79.6600835944341
323.868270884592;79.4755283016735
323.889897372588;79.2651379245283
323.911523860585;79.0309565402374
323.933150348581;78.7936025861969
323.954776836577;78.582146636954
323.976403324573;78.404584746047
323.998029812569;78.2566802882859
324.019656300565;78.1294712175045
324.041282788562;78.0252587454996
324.062909276558;77.9692668067821
324.084535764554;77.9648964452823
324.10616225255;78.0053030541702
324.127788740546;78.0851655684536
324.149415228542;78.2032708997638
324.171041716538;78.3510877177116
324.192668204535;78.5085845292773
324.214294692531;78.6610569398703
324.235921180527;78.800466458521
324.257547668523;78.9202319898729
324.279174156519;79.0129921019103
324.300800644515;79.071684958513
324.322427132512;79.0909015947217
324.344053620508;79.0690692458598
324.365680108504;78.9999673398204
324.3873065965;78.8825356745865
324.408933084496;78.7211537135633
324.430559572492;78.5112763778243
324.452186060488;78.2390723847726
324.473812548485;77.9082001679503
324.495439036481;77.5311631974752
324.517065524477;77.1166285734112
324.538692012473;76.6650125378828
324.560318500469;76.1822186633104
324.581944988465;75.6805297276053
324.603571476462;75.1608312087748
324.625197964458;74.6269852904534
324.646824452454;74.1036382375933
324.66845094045;73.6107707861254
324.690077428446;73.1539596459412
324.711703916442;72.7396006397592
324.733330404439;72.3762219050533
324.754956892435;72.0590908904748
324.776583380431;71.777928674773
