Name;ESR_BC_1_29min_Y_gon_40dg_result

Recipe
Accumulations;5;Number of accumulations
RetryCount;0;Number of retries on error
AbortOnError;True;Abort on error
EnableQFactorMeasurement;False;Enable/Disable q-Factor measurement
Bfrom;313;B from
Bto;363;B to
SweepTime;60;Sweep time
Modulation;0.2;Modulation
ModulationFreq;100;Modulation
BHoldEnabled;False;B hold enabled
BHold;0;B hold
MicrowavePower;2;Microwave power
MarkerEnabled;False;
MarkerStartField;0;
MarkerEndField;0;
Mode;;
KineticGFact;0;
KineticTotalTransientTime;0;
KineticTimeResolution;0;
TempFrom;5;
TempUseSlope;False;
TempTo;5;
TempdT;1;
TempSetupTime;0;
GonFrom;0;
GonTo;180;
GonSteps;20;
XRayEnabled;False;
XRayTime;3;
XRayVoltage;40;
XRayCurrent;0.5;
UVEnabled;False;
UVIntensity;0;
UVTime;0;
UVLeadTime;0;
UVWavelength;0;
PowSweepFrom;1;
PowSweepTo;5;
PowSweepSteps;5;
AmpModSweepFrom;0;
AmpModSweepTo;1;
AmpModSweepSteps;10;
ExtTriggerEnabled;False;
ExtTrigLeadTime;0;
ExtTrigOnTime;5;

Meas
BField [mT];MW_Absorption []
313.013190460205;150.808574226201
313.034816228264;150.517023937168
313.056441996323;150.148921702088
313.078067764381;149.702472970233
313.09969353244;149.186344480001
313.121319300499;148.596292089927
313.142945068558;147.934815597397
313.164570836616;147.220468008641
313.186196604675;146.481426649332
313.207822372734;145.738638255083
313.229448140793;144.982623173761
313.251073908851;144.215884208332
313.27269967691;143.48943450032
313.294325444969;142.852811849496
313.315951213027;142.308054404276
313.337576981086;141.849773423168
313.359202749145;141.475559681838
313.380828517204;141.190281824148
313.402454285262;141.007834287907
313.424080053321;140.928154524596
313.44570582138;140.944969508855
313.467331589439;141.049233312893
313.488957357497;141.223739894722
313.510583125556;141.446186087145
313.532208893615;141.692280778498
313.553834661674;141.948978695213
313.575460429732;142.222845077644
313.597086197791;142.520798420828
313.61871196585;142.818655508021
313.640337733909;143.103269249492
313.661963501967;143.378826409229
313.683589270026;143.646633838187
313.705215038085;143.90488144056
313.726840806144;144.156907769813
313.748466574202;144.410617097396
313.770092342261;144.673240691422
313.79171811032;144.935154663982
313.813343878379;145.180847112254
313.834969646437;145.413795898879
313.856595414496;145.632835868707
313.878221182555;145.836970160735
313.899846950614;146.020082866743
313.921472718672;146.167981941498
313.943098486731;146.291280685415
313.96472425479;146.396614922989
313.986350022849;146.475698577039
314.007975790907;146.530906275623
314.029601558966;146.567036274778
314.051227327025;146.586803297632
314.072853095084;146.587446357194
314.094478863142;146.561898986775
314.116104631201;146.504568415816
314.13773039926;146.414449049006
314.159356167318;146.298617564159
314.180981935377;146.160693931924
314.202607703436;145.993307128066
314.224233471495;145.782712617594
314.245859239553;145.522526695864
314.267485007612;145.221189494654
314.289110775671;144.890328038168
314.31073654373;144.537667618817
314.332362311788;144.158009063541
314.353988079847;143.742958201466
314.375613847906;143.324453994952
314.397239615965;142.921821925834
314.418865384023;142.534564323956
314.440491152082;142.167281483442
314.462116920141;141.824058621589
314.4837426882;141.510829478228
314.505368456258;141.248534780754
314.526994224317;141.057778879839
314.548619992376;140.935068539455
314.570245760435;140.867432229975
314.591871528493;140.848042152581
314.613497296552;140.875849333587
314.635123064611;140.948139996691
314.65674883267;141.059391208816
314.678374600728;141.198061477958
314.700000368787;141.351006456807
314.721626136846;141.510830742317
314.743251904905;141.674907898371
314.764877672963;141.847966666889
314.786503441022;142.034508687214
314.808129209081;142.225668883794
314.82975497714;142.418402183526
314.851380745198;142.612042270224
314.873006513257;142.805735025051
314.894632281316;143.001890779307
314.916258049375;143.204378786397
314.937883817433;143.412379465725
314.959509585492;143.620550003813
314.981135353551;143.819088011116
315.00276112161;143.997946553261
315.024386889668;144.154360826732
315.046012657727;144.286841537471
315.067638425786;144.397070936038
315.089264193844;144.488340889896
315.110889961903;144.559499305882
315.132515729962;144.599961792454
315.154141498021;144.585290360746
315.175767266079;144.507012984575
315.197393034138;144.379041712206
315.219018802197;144.209409131751
315.240644570256;143.995041947888
315.262270338314;143.735510212962
315.283896106373;143.436801385594
315.305521874432;143.098859661349
315.327147642491;142.728648700576
315.348773410549;142.345111672321
315.370399178608;141.963988032636
315.392024946667;141.58423538157
315.413650714726;141.202041791571
315.435276482784;140.815619373717
315.456902250843;140.445289343801
315.478528018902;140.12194767326
315.500153786961;139.84364875356
315.521779555019;139.588517470337
315.543405323078;139.339735664867
315.565031091137;139.108597965415
315.586656859196;138.905874577625
315.608282627254;138.729306603766
315.629908395313;138.567420591871
315.651534163372;138.408469260987
315.673159931431;138.246913289081
315.694785699489;138.078112788377
315.716411467548;137.904421590726
315.738037235607;137.735704664603
315.759663003666;137.578826139826
315.781288771724;137.431017602096
315.802914539783;137.293014744878
315.824540307842;137.182025448969
315.846166075901;137.10729770599
315.867791843959;137.073929755661
315.889417612018;137.086525153053
315.911043380077;137.148180467486
315.932669148135;137.253689433352
315.954294916194;137.411534603637
315.975920684253;137.621718701489
315.997546452312;137.874536955968
316.01917222037;138.154463922132
316.040797988429;138.445759950044
316.062423756488;138.736116903525
316.084049524547;139.026001757263
316.105675292605;139.30103597591
316.127301060664;139.53788090895
316.148926828723;139.727131016923
316.170552596782;139.871192466786
316.19217836484;139.966598276
316.213804132899;140.003285536211
316.235429900958;139.976176431073
316.257055669017;139.891524236912
316.278681437075;139.757036209855
316.300307205134;139.592060795225
316.321932973193;139.40311816265
316.343558741252;139.180213425652
316.36518450931;138.925425396262
316.386810277369;138.667096204408
316.408436045428;138.417411200814
316.430061813487;138.171940405041
316.451687581545;137.925954713045
316.473313349604;137.671710682431
316.494939117663;137.403124156897
316.516564885722;137.117275483218
316.53819065378;136.812089040997
316.559816421839;136.49157763814
316.581442189898;136.164791086019
316.603067957957;135.830261832866
316.624693726015;135.486236133631
316.646319494074;135.143654781015
316.667945262133;134.80988943241
316.689571030192;134.482722407746
316.71119679825;134.160830742894
316.732822566309;133.850239579594
316.754448334368;133.562514878163
316.776074102426;133.312409521536
316.797699870485;133.10609617297
316.819325638544;132.939118192603
316.840951406603;132.811350716033
316.862577174661;132.7307187899
316.88420294272;132.699288160383
316.905828710779;132.714280418108
316.927454478838;132.773336398175
316.949080246896;132.868903922091
316.970706014955;132.9935789616
316.992331783014;133.14193047109
317.013957551073;133.306476556801
317.035583319131;133.472116033399
317.05720908719;133.627910379887
317.078834855249;133.763832962593
317.100460623308;133.871289043557
317.122086391366;133.956751127329
317.143712159425;134.030237822804
317.165337927484;134.089529444031
317.186963695543;134.135901063167
317.208589463601;134.167095296723
317.23021523166;134.18537003469
317.251840999719;134.198691250169
317.273466767778;134.216851216376
317.295092535836;134.244502395226
317.316718303895;134.283515056686
317.338344071954;134.333088331382
317.359969840013;134.389485216572
317.381595608071;134.450525657214
317.40322137613;134.507656965805
317.424847144189;134.560581652712
317.446472912248;134.608052029112
317.468098680306;134.646760881738
317.489724448365;134.67025373703
317.511350216424;134.675404840489
317.532975984483;134.663370448467
317.554601752541;134.640147619411
317.5762275206;134.602847014924
317.597853288659;134.549185466657
317.619479056718;134.482326887629
317.641104824776;134.399319162716
317.662730592835;134.301005566343
317.684356360894;134.192941245022
317.705982128952;134.089876877043
317.727607897011;134.009704689782
317.74923366507;133.968889705114
317.770859433129;133.964324931453
317.792485201187;133.986907724901
317.814110969246;134.040733596363
317.835736737305;134.129248880728
317.857362505364;134.244315087121
317.878988273422;134.377368170574
317.900614041481;134.520852655676
317.92223980954;134.670105060359
317.943865577599;134.822190893437
317.965491345657;134.952442228253
317.987117113716;135.049325594044
318.008742881775;135.111028585854
318.030368649834;135.144753325924
318.051994417892;135.155328440612
318.073620185951;135.139759228002
318.09524595401;135.09288405659
318.116871722069;135.024074193454
318.138497490127;134.948464233405
318.160123258186;134.87256382682
318.181749026245;134.799925703616
318.203374794304;134.73982665373
318.225000562362;134.707649068705
318.246626330421;134.713034784347
318.26825209848;134.759162877469
318.289877866539;134.848795751532
318.311503634597;134.978102565915
318.333129402656;135.138469475029
318.354755170715;135.320606776778
318.376380938774;135.513598995845
318.398006706832;135.708667136336
318.419632474891;135.892174827221
318.44125824295;136.051385306357
318.462884011009;136.186087724249
318.484509779067;136.301407245404
318.506135547126;136.394206263235
318.527761315185;136.443071101115
318.549387083243;136.449705870161
318.571012851302;136.4314472126
318.592638619361;136.399061488874
318.61426438742;136.362353567177
318.635890155478;136.326778730668
318.657515923537;136.288986447472
318.679141691596;136.243690011482
318.700767459655;136.18373574097
318.722393227713;136.095997034721
318.744018995772;135.984260758954
318.765644763831;135.854736596382
318.78727053189;135.708220690213
318.808896299948;135.540208592899
318.830522068007;135.346653538419
318.852147836066;135.126345973031
318.873773604125;134.887634815427
318.895399372183;134.654254852963
318.917025140242;134.43803981899
318.938650908301;134.235396992409
318.96027667636;134.037965188498
318.981902444418;133.847457095496
319.003528212477;133.682364538614
319.025153980536;133.5552095968
319.046779748595;133.462974002374
319.068405516653;133.401336632807
319.090031284712;133.361110510415
319.111657052771;133.345861175973
319.13328282083;133.360436093598
319.154908588888;133.395288183294
319.176534356947;133.438356454885
319.198160125006;133.487494422428
319.219785893065;133.544967391517
319.241411661123;133.610785417726
319.263037429182;133.682799409505
319.284663197241;133.759288055202
319.3062889653;133.841767538378
319.327914733358;133.932353347401
319.349540501417;134.034972645831
319.371166269476;134.152389387215
319.392792037534;134.283833197463
319.414417805593;134.426541260882
319.436043573652;134.577621352271
319.457669341711;134.724663508712
319.479295109769;134.849885396076
319.500920877828;134.947177251486
319.522546645887;135.016315570202
319.544172413946;135.052285107204
319.565798182004;135.058627899948
319.587423950063;135.04018964075
319.609049718122;134.992989038779
319.630675486181;134.916218356752
319.652301254239;134.809181120824
319.673927022298;134.69093372976
319.695552790357;134.581014001634
319.717178558416;134.479570979138
319.738804326474;134.389401848635
319.760430094533;134.315226932276
319.782055862592;134.261575111518
319.803681630651;134.226535374414
319.825307398709;134.206726646544
319.846933166768;134.204985388581
319.868558934827;134.221828901481
319.890184702886;134.255249853911
319.911810470944;134.298048694176
319.933436239003;134.351774082563
319.955062007062;134.418705320611
319.976687775121;134.487374664362
319.998313543179;134.541158176612
320.019939311238;134.570988346414
320.041565079297;134.575033285653
320.063190847356;134.550068780381
320.084816615414;134.499005135536
320.106442383473;134.425091474153
320.128068151532;134.327137822823
320.149693919591;134.206397018547
320.171319687649;134.061503516964
320.192945455708;133.891608877313
320.214571223767;133.706155533315
320.236196991826;133.519286514311
320.257822759884;133.345188601686
320.279448527943;133.191229694921
320.301074296002;133.055382735491
320.32270006406;132.931564336685
320.344325832119;132.819120073382
320.365951600178;132.730355073369
320.387577368237;132.664236006461
320.409203136295;132.604254062734
320.430828904354;132.540725249983
320.452454672413;132.469797412795
320.474080440472;132.38978099532
320.49570620853;132.299121045851
320.517331976589;132.194110728129
320.538957744648;132.076468418188
320.560583512707;131.951531269218
320.582209280765;131.829917718322
320.603835048824;131.718615925027
320.625460816883;131.620558058012
320.647086584942;131.542651385522
320.668712353;131.495821135667
320.690338121059;131.498051764026
320.711963889118;131.555155217521
320.733589657177;131.66657050649
320.755215425235;131.830764862955
320.776841193294;132.041718902661
320.798466961353;132.295455018524
320.820092729412;132.591030750121
320.84171849747;132.920815848529
320.863344265529;133.287014009548
320.884970033588;133.686346869577
320.906595801647;134.11080905204
320.928221569705;134.554832141723
320.949847337764;135.004789791384
320.971473105823;135.436364435876
320.993098873882;135.844777442349
321.01472464194;136.233240375751
321.036350409999;136.596189937526
321.057976178058;136.928726171233
321.079601946117;137.234123266565
321.101227714175;137.514941812586
321.122853482234;137.770255331783
321.144479250293;138.005176476503
321.166105018351;138.215496928752
321.18773078641;138.394513632162
321.209356554469;138.539778441002
321.230982322528;138.643174816878
321.252608090586;138.707989915726
321.274233858645;138.744663758016
321.295859626704;138.752391099988
321.317485394763;138.722894714623
321.339111162821;138.649825846768
321.36073693088;138.533177504266
321.382362698939;138.376555748085
321.403988466998;138.185189971008
321.425614235056;137.962348880259
321.447240003115;137.709423603382
321.468865771174;137.424316745464
321.490491539233;137.109480724197
321.512117307291;136.773108961828
321.53374307535;136.413410600407
321.555368843409;136.016530185583
321.576994611468;135.582945548941
321.598620379526;135.131787732511
321.620246147585;134.687989396115
321.641871915644;134.251735914533
321.663497683703;133.823077184853
321.685123451761;133.40397703876
321.70674921982;132.979726751273
321.728374987879;132.562790106655
321.750000755938;132.186014716828
321.771626523996;131.8663270879
321.793252292055;131.588634718086
321.814878060114;131.330610383433
321.836503828173;131.082326876987
321.858129596231;130.846065724139
321.87975536429;130.622398640112
321.901381132349;130.409568507584
321.923006900408;130.200833395263
321.944632668466;129.984388800647
321.966258436525;129.74975529852
321.987884204584;129.494320069173
322.009509972642;129.21503672016
322.031135740701;128.919410887885
322.05276150876;128.617867833775
322.074387276819;128.31393355165
322.096013044877;128.021274828012
322.117638812936;127.762467743005
322.139264580995;127.544917567255
322.160890349054;127.35672909469
322.182516117112;127.18777433298
322.204141885171;127.043643768012
322.22576765323;126.93739573867
322.247393421289;126.871088753538
322.269019189347;126.835402290049
322.290644957406;126.825024085852
322.312270725465;126.839511896355
322.333896493524;126.877072014051
322.355522261582;126.934349621349
322.377148029641;127.019565385633
322.3987737977;127.139003344506
322.420399565759;127.275331164186
322.442025333817;127.423251210931
322.463651101876;127.584763529497
322.485276869935;127.757127935233
322.506902637994;127.939224954265
322.528528406052;128.129929840092
322.550154174111;128.333749658328
322.57177994217;128.550038328057
322.593405710229;128.766961744131
322.615031478287;128.973645599929
322.636657246346;129.164673971557
322.658283014405;129.336509632066
322.679908782464;129.489879789702
322.701534550522;129.622569257191
322.723160318581;129.733470113328
322.74478608664;129.815834987792
322.766411854699;129.865645985123
322.788037622757;129.884430653911
322.809663390816;129.874226881523
322.831289158875;129.837016613763
322.852914926934;129.777764679342
322.874540694992;129.695724603298
322.896166463051;129.592049122978
322.91779223111;129.471610142045
322.939417999168;129.342848555847
322.961043767227;129.211678255119
322.982669535286;129.074452738014
323.004295303345;128.925000742178
323.025921071403;128.761115681252
323.047546839462;128.591833725
323.069172607521;128.424075974952
323.09079837558;128.254342909881
323.112424143638;128.078784838754
323.134049911697;127.909973996518
323.155675679756;127.757535156385
323.177301447815;127.612797463689
323.198927215873;127.461004544071
323.220552983932;127.303126369379
323.242178751991;127.156782473303
323.26380452005;127.035108761642
323.285430288108;126.933590427707
323.307056056167;126.843687772701
323.328681824226;126.759331365016
323.350307592285;126.670260960754
323.371933360343;126.5814013385
323.393559128402;126.496742295156
323.415184896461;126.404846699755
323.43681066452;126.292140971675
323.458436432578;126.148933925484
323.480062200637;125.961600546571
323.501687968696;125.718308853171
323.523313736755;125.418829059541
323.544939504813;125.068525828639
323.566565272872;124.660437915766
323.588191040931;124.184727599892
323.60981680899;123.658295871575
323.631442577048;123.113657487633
323.653068345107;122.557658142181
323.674694113166;122.006327623473
323.696319881225;121.466215404244
323.717945649283;120.92733523049
323.739571417342;120.405047215151
323.761197185401;119.925380627203
323.78282295346;119.492345318977
323.804448721518;119.089445521771
323.826074489577;118.701835663925
323.847700257636;118.326921812296
323.869326025694;117.962195681817
323.890951793753;117.599359752075
323.912577561812;117.218687177379
323.934203329871;116.809196873644
323.955829097929;116.381066476689
323.977454865988;115.952416426839
323.999080634047;115.518439701944
324.020706402106;115.067828557865
324.042332170164;114.586520925857
324.063957938223;114.08385614976
324.085583706282;113.577300734183
324.107209474341;113.077386345054
324.128835242399;112.583368143137
324.150461010458;112.080674522669
324.172086778517;111.576475654902
324.193712546576;111.095229370302
324.215338314634;110.633407839421
324.236964082693;110.16422240143
324.258589850752;109.668193845861
324.280215618811;109.164441114664
324.301841386869;108.664921089973
324.323467154928;108.168473545807
324.345092922987;107.670033344216
324.366718691046;107.161340341187
324.388344459104;106.653144455816
324.409970227163;106.155828883505
324.431595995222;105.662924698355
324.453221763281;105.168889073459
324.474847531339;104.668077863076
324.496473299398;104.162153980632
324.518099067457;103.648399873088
324.539724835516;103.113015798124
324.561350603574;102.547358405517
324.582976371633;101.947252164148
324.604602139692;101.309376350456
324.62622790775;100.635116134579
324.647853675809;99.9204346955426
324.669479443868;99.1752078796466
324.691105211927;98.4199243847928
324.712730979985;97.6742364545882
324.734356748044;96.9349161786078
324.755982516103;96.1678209928043
