Name;ESR_BC_1_7200s_Y_gon_60dg_result

Recipe
Accumulations;5;Number of accumulations
RetryCount;0;Number of retries on error
AbortOnError;True;Abort on error
EnableQFactorMeasurement;False;Enable/Disable q-Factor measurement
Bfrom;313;B from
Bto;363;B to
SweepTime;60;Sweep time
Modulation;0.2;Modulation
ModulationFreq;100;Modulation
BHoldEnabled;False;B hold enabled
BHold;0;B hold
MicrowavePower;2;Microwave power
MarkerEnabled;False;
MarkerStartField;0;
MarkerEndField;0;
Mode;;
KineticGFact;0;
KineticTotalTransientTime;0;
KineticTimeResolution;0;
TempFrom;5;
TempUseSlope;False;
TempTo;5;
TempdT;1;
TempSetupTime;0;
GonFrom;0;
GonTo;180;
GonSteps;20;
XRayEnabled;False;
XRayTime;3;
XRayVoltage;40;
XRayCurrent;0.5;
UVEnabled;False;
UVIntensity;0;
UVTime;0;
UVLeadTime;0;
UVWavelength;0;
PowSweepFrom;1;
PowSweepTo;5;
PowSweepSteps;5;
AmpModSweepFrom;0;
AmpModSweepTo;1;
AmpModSweepSteps;10;
ExtTriggerEnabled;False;
ExtTrigLeadTime;0;
ExtTrigOnTime;5;

Meas
BField [mT];MW_Absorption []
313.017400512695;172.663044081875
313.039029124801;172.363197776268
313.060657736906;172.037872360218
313.082286349012;171.648024403664
313.103914961117;171.177672488647
313.125543573223;170.62920123145
313.147172185328;169.999503410399
313.168800797434;169.303687564172
313.190429409539;168.561174810674
313.212058021645;167.776473390475
313.23368663375;166.941793524828
313.255315245855;166.048670423135
313.276943857961;165.116997369466
313.298572470066;164.205297442143
313.320201082172;163.342030056773
313.341829694277;162.536268111879
313.363458306383;161.804795537249
313.385086918488;161.163732355017
313.406715530594;160.620773303436
313.428344142699;160.192244356854
313.449972754805;159.894403489286
313.47160136691;159.720558879394
313.493229979016;159.656387023595
313.514858591121;159.678071665429
313.536487203226;159.761108952401
313.558115815332;159.888396200778
313.579744427437;160.045589591287
313.601373039543;160.217028134712
313.623001651648;160.373667807279
313.644630263754;160.499425787779
313.666258875859;160.596527346789
313.687887487965;160.668419973766
313.70951610007;160.726699413382
313.731144712176;160.776670479097
313.752773324281;160.823270729201
313.774401936387;160.873062210355
313.796030548492;160.929793691652
313.817659160597;161.012862965791
313.839287772703;161.13554990997
313.860916384808;161.284732636634
313.882544996914;161.447966637341
313.904173609019;161.622574596207
313.925802221125;161.812848006732
313.94743083323;162.013552609632
313.969059445336;162.222895305931
313.990688057441;162.429085304537
314.012316669547;162.629717087285
314.033945281652;162.82108942755
314.055573893758;163.002093102657
314.077202505863;163.163306401477
314.098831117969;163.291809463218
314.120459730074;163.388029997988
314.142088342179;163.47041794908
314.163716954285;163.553352651929
314.18534556639;163.634715539565
314.206974178496;163.700233423227
314.228602790601;163.754912753261
314.250231402707;163.823723754594
314.271860014812;163.915772193556
314.293488626918;164.014468621363
314.315117239023;164.110730078843
314.336745851129;164.214240364259
314.358374463234;164.325210163064
314.38000307534;164.4353060344
314.401631687445;164.538379999282
314.423260299551;164.629251650805
314.444888911656;164.706669491293
314.466517523761;164.765380948522
314.488146135867;164.81000330434
314.509774747972;164.849638260025
314.531403360078;164.886782843985
314.553031972183;164.916834167532
314.574660584289;164.932582952221
314.596289196394;164.921802342116
314.6179178085;164.890013152546
314.639546420605;164.851545544631
314.661175032711;164.805069320204
314.682803644816;164.743983115523
314.704432256922;164.671004076483
314.726060869027;164.590960023448
314.747689481132;164.500627378066
314.769318093238;164.389292049498
314.790946705343;164.272331420366
314.812575317449;164.170623240209
314.834203929554;164.084922440361
314.85583254166;164.021935717545
314.877461153765;163.981291046132
314.899089765871;163.975674378223
314.920718377976;164.020080244203
314.942346990082;164.110022182832
314.963975602187;164.231494216045
314.985604214293;164.370942561071
315.007232826398;164.51657888447
315.028861438504;164.655847046722
315.050490050609;164.775564071444
315.072118662714;164.869746608862
315.09374727482;164.92953490324
315.115375886925;164.942434239522
315.137004499031;164.907229576659
315.158633111136;164.826403273604
315.180261723242;164.69876805604
315.201890335347;164.517610728934
315.223518947453;164.291438380105
315.245147559558;164.049434569558
315.266776171664;163.803722426109
315.288404783769;163.558716681758
315.310033395875;163.314765091655
315.33166200798;163.067842922612
315.353290620085;162.815950467598
315.374919232191;162.57060782545
315.396547844296;162.341689284889
315.418176456402;162.12499093676
315.439805068507;161.905103308858
315.461433680613;161.683721322581
315.483062292718;161.473224125633
315.504690904824;161.277045705401
315.526319516929;161.089279546388
315.547948129035;160.902149915926
315.56957674114;160.706607318115
315.591205353246;160.508066198542
315.612833965351;160.319152422494
315.634462577457;160.14127966328
315.656091189562;159.974397665824
315.677719801667;159.807669923762
315.699348413773;159.630185974432
315.720977025878;159.4370711349
315.742605637984;159.225984489926
315.764234250089;158.993161950074
315.785862862195;158.738183583832
315.8074914743;158.451409716396
315.829120086406;158.121896507654
315.850748698511;157.772854449478
315.872377310617;157.419996757763
315.894005922722;157.042803371735
315.915634534828;156.641473926281
315.937263146933;156.248775956963
315.958891759038;155.876566416509
315.980520371144;155.520926248579
316.002148983249;155.190832138221
316.023777595355;154.896351774888
316.04540620746;154.629326498578
316.067034819566;154.386777925475
316.088663431671;154.176848831783
316.110292043777;153.991990091914
316.131920655882;153.816624395912
316.153549267988;153.63944463134
316.175177880093;153.448278297515
316.196806492199;153.232032765736
316.218435104304;152.989865118661
316.24006371641;152.725398059044
316.261692328515;152.444493392369
316.28332094062;152.150346919135
316.304949552726;151.838038293398
316.326578164831;151.502750775317
316.348206776937;151.152401418853
316.369835389042;150.797766858311
316.391464001148;150.436422071194
316.413092613253;150.063761445199
316.434721225359;149.685997824566
316.456349837464;149.304683218231
316.47797844957;148.924168290932
316.499607061675;148.549493975816
316.521235673781;148.158227860599
316.542864285886;147.75290758705
316.564492897992;147.346195204137
316.586121510097;146.926302754197
316.607750122202;146.48600046857
316.629378734308;146.051117988251
316.651007346413;145.642972301573
316.672635958519;145.255180086214
316.694264570624;144.887700638913
316.71589318273;144.550552324956
316.737521794835;144.248462814643
316.759150406941;143.988496598578
316.780779019046;143.775943319765
316.802407631152;143.600810125757
316.824036243257;143.451185302577
316.845664855363;143.324330335119
316.867293467468;143.217444388362
316.888922079573;143.112953095962
316.910550691679;142.992146737397
316.932179303784;142.844428149713
316.95380791589;142.67237556256
316.975436527995;142.470540908048
316.997065140101;142.244299161562
317.018693752206;142.00246333196
317.040322364312;141.744721443127
317.061950976417;141.468714363017
317.083579588523;141.184888760732
317.105208200628;140.910967366423
317.126836812734;140.646047143559
317.148465424839;140.385873074365
317.170094036944;140.126944230711
317.19172264905;139.872580334677
317.213351261155;139.619578420469
317.234979873261;139.361686037379
317.256608485366;139.095330021583
317.278237097472;138.820876276594
317.299865709577;138.534055016489
317.321494321683;138.227495299741
317.343122933788;137.896011820986
317.364751545894;137.54482976199
317.386380157999;137.192592064715
317.408008770105;136.846889621062
317.42963738221;136.502869111586
317.451265994316;136.17024828569
317.472894606421;135.876158464693
317.494523218526;135.618603171515
317.516151830632;135.385873957198
317.537780442737;135.175387536203
317.559409054843;134.993022797292
317.581037666948;134.839145667734
317.602666279054;134.714804053454
317.624294891159;134.619436558018
317.645923503265;134.551963365548
317.66755211537;134.496995004699
317.689180727476;134.426526915464
317.710809339581;134.331999773626
317.732437951687;134.219285362616
317.754066563792;134.090996200143
317.775695175898;133.943969599167
317.797323788003;133.770156775151
317.818952400108;133.557247571646
317.840581012214;133.289587376915
317.862209624319;132.968038485638
317.883838236425;132.619339435239
317.90546684853;132.25356448287
317.927095460636;131.866639013594
317.948724072741;131.456059350986
317.970352684847;131.03503271285
317.991981296952;130.624678797799
318.013609909058;130.23090928079
318.035238521163;129.862457203674
318.056867133269;129.521967493782
318.078495745374;129.214504038923
318.100124357479;128.940657085854
318.121752969585;128.699317884037
318.14338158169;128.496268471399
318.165010193796;128.340842685688
318.186638805901;128.232147123469
318.208267418007;128.164471928745
318.229896030112;128.134091177571
318.251524642218;128.13350111327
318.273153254323;128.147268329442
318.294781866429;128.178269956674
318.316410478534;128.239333071795
318.33803909064;128.328284229736
318.359667702745;128.436508795217
318.38129631485;128.561311038185
318.402924926956;128.699165005479
318.424553539061;128.843845956969
318.446182151167;128.99055486212
318.467810763272;129.137644373186
318.489439375378;129.282997526094
318.511067987483;129.421365547972
318.532696599589;129.541718832523
318.554325211694;129.631282678227
318.5759538238;129.684013203949
318.597582435905;129.69610020239
318.619211048011;129.659076775312
318.640839660116;129.559088104404
318.662468272222;129.392811995883
318.684096884327;129.158075673739
318.705725496432;128.838641214588
318.727354108538;128.452272346913
318.748982720643;128.046669133775
318.770611332749;127.621213467711
318.792239944854;127.155867489872
318.81386855696;126.668523684534
318.835497169065;126.20289604926
318.857125781171;125.768917509534
318.878754393276;125.365581645467
318.900383005382;124.983799340267
318.922011617487;124.633292932402
318.943640229593;124.326432043658
318.965268841698;124.050778780494
318.986897453804;123.786972952176
319.008526065909;123.520464825574
319.030154678014;123.253654970335
319.05178329012;122.99748479361
319.073411902225;122.756609979676
319.095040514331;122.518421001605
319.116669126436;122.27526907289
319.138297738542;122.016915274832
319.159926350647;121.737386687861
319.181554962753;121.447231014496
319.203183574858;121.160689422089
319.224812186964;120.872862987143
319.246440799069;120.584189097261
319.268069411175;120.303778477925
319.28969802328;120.044811188289
319.311326635386;119.82359309424
319.332955247491;119.649615067844
319.354583859596;119.522624017684
319.376212471702;119.441863381538
319.397841083807;119.40862699792
319.419469695913;119.42516451783
319.441098308018;119.491913328411
319.462726920124;119.601438310431
319.484355532229;119.744267036691
319.505984144335;119.917783322823
319.52761275644;120.115929554529
319.549241368546;120.326662501725
319.570869980651;120.528212343865
319.592498592757;120.702689662783
319.614127204862;120.842896536995
319.635755816967;120.94486817662
319.657384429073;121.008692407455
319.679013041178;121.02041512482
319.700641653284;120.975540264369
319.722270265389;120.881571967995
319.743898877495;120.745011115439
319.7655274896;120.564213815032
319.787156101706;120.33813643791
319.808784713811;120.071404128527
319.830413325917;119.774910708164
319.852041938022;119.467134513523
319.873670550128;119.163515893274
319.895299162233;118.863331829743
319.916927774338;118.568050084772
319.938556386444;118.286479169013
319.960184998549;118.031368446704
319.981813610655;117.809628582893
320.00344222276;117.616403582851
320.025070834866;117.449781939215
320.046699446971;117.313064825316
320.068328059077;117.214116508984
320.089956671182;117.146188690628
320.111585283288;117.100002131259
320.133213895393;117.062197760736
320.154842507499;117.012610837549
320.176471119604;116.937593448973
320.19809973171;116.838288591433
320.219728343815;116.713747262319
320.24135695592;116.552242208763
320.262985568026;116.33773921992
320.284614180131;116.076026854544
320.306242792237;115.792747070101
320.327871404342;115.506284551927
320.349500016448;115.218724345246
320.371128628553;114.932646093447
320.392757240659;114.659910856143
320.414385852764;114.421408907371
320.43601446487;114.218124654092
320.457643076975;114.043721249353
320.479271689081;113.897366213476
320.500900301186;113.781320953029
320.522528913292;113.690526870911
320.544157525397;113.62099703656
320.565786137502;113.576096894229
320.587414749608;113.544635447648
320.609043361713;113.512027113921
320.630671973819;113.469582296857
320.652300585924;113.415466261612
320.67392919803;113.352885579149
320.695557810135;113.285833420629
320.717186422241;113.21424443555
320.738815034346;113.133060232939
320.760443646452;113.038324726606
320.782072258557;112.929277449731
320.803700870663;112.804922367147
320.825329482768;112.672437480229
320.846958094873;112.545091069059
320.868586706979;112.430237219873
320.890215319084;112.325336516489
320.91184393119;112.227808470832
320.933472543295;112.136898343394
320.955101155401;112.050796969033
320.976729767506;111.965911367871
320.998358379612;111.878151604779
321.019986991717;111.781290864179
321.041615603823;111.671932206933
321.063244215928;111.550203839919
321.084872828034;111.426054296555
321.106501440139;111.313906766239
321.128130052245;111.217704657208
321.14975866435;111.126090096963
321.171387276455;111.031709379576
321.193015888561;110.944531183122
321.214644500666;110.885581861889
321.236273112772;110.866042055406
321.257901724877;110.875552720498
321.279530336983;110.915207369904
321.301158949088;110.997839385849
321.322787561194;111.121842208317
321.344416173299;111.276415157523
321.366044785405;111.451499274697
321.38767339751;111.644957914039
321.409302009616;111.849326698607
321.430930621721;112.040011740052
321.452559233826;112.209725368112
321.474187845932;112.354783656753
321.495816458037;112.471263093207
321.517445070143;112.559363069931
321.539073682248;112.615862360656
321.560702294354;112.634191969768
321.582330906459;112.610197086548
321.603959518565;112.547391433025
321.62558813067;112.452866466045
321.647216742776;112.331441266735
321.668845354881;112.181804380006
321.690473966987;112.001480284698
321.712102579092;111.78181209868
321.733731191198;111.53956808073
321.755359803303;111.291376063112
321.776988415408;111.038732536817
321.798617027514;110.769366015078
321.820245639619;110.468205494708
321.841874251725;110.125484361873
321.86350286383;109.749707939193
321.885131475936;109.353925540374
321.906760088041;108.930063860854
321.928388700147;108.481878227484
321.950017312252;108.019101843134
321.971645924358;107.542921983674
321.993274536463;107.053597674145
322.014903148569;106.548228362699
322.036531760674;106.021842715034
322.058160372779;105.469320681904
322.079788984885;104.880765998161
322.10141759699;104.255709633628
322.123046209096;103.636350527792
322.144674821201;103.055617575837
322.166303433307;102.492600363614
322.187932045412;101.923009183583
322.209560657518;101.345250504212
322.231189269623;100.775053181554
322.252817881729;100.230298750617
322.274446493834;99.7214490844617
322.29607510594;99.2493846948205
322.317703718045;98.8170527558044
322.339332330151;98.4373987672772
322.360960942256;98.1177044680721
322.382589554361;97.8562979218105
322.404218166467;97.643245159621
322.425846778572;97.4608209221084
322.447475390678;97.309331373182
322.469104002783;97.2051438244445
322.490732614889;97.1578892852112
322.512361226994;97.1633842064117
322.5339898391;97.212371850282
322.555618451205;97.2872685696238
322.577247063311;97.3793427404604
322.598875675416;97.4906782546593
322.620504287522;97.6172732361028
322.642132899627;97.7553373941521
322.663761511733;97.9023791802756
322.685390123838;98.0505939836242
322.707018735943;98.2001023056649
322.728647348049;98.3537319287144
322.750275960154;98.5076834565582
322.77190457226;98.6512303590244
322.793533184365;98.7798253441367
322.815161796471;98.8971768108365
322.836790408576;99.0052115002981
322.858419020682;99.0977595807449
322.880047632787;99.1597359120413
322.901676244893;99.1996575155846
322.923304856998;99.2360023429088
322.944933469104;99.2591246377627
322.966562081209;99.2502584127965
322.988190693314;99.2194961337647
323.00981930542;99.1735561740415
323.031447917525;99.1088519703166
323.053076529631;99.0225599039389
323.074705141736;98.9129044533531
323.096333753842;98.7768296965094
323.117962365947;98.6139702894133
323.139590978053;98.4299780882579
323.161219590158;98.2425322119844
323.182848202264;98.0559302507445
323.204476814369;97.8722207931057
323.226105426475;97.695297330607
323.24773403858;97.5212988092222
323.269362650685;97.3515018079381
323.290991262791;97.1846456766971
323.312619874896;97.0108714175883
323.334248487002;96.827589088901
323.355877099107;96.6278296978631
323.377505711213;96.4053137466038
323.399134323318;96.15771823776
323.420762935424;95.8791809669141
323.442391547529;95.5752266439546
323.464020159635;95.2600441921795
323.48564877174;94.9332031935819
323.507277383846;94.5929908247755
323.528905995951;94.2612117712404
323.550534608057;93.9506372499846
323.572163220162;93.6653063154716
323.593791832267;93.4072484315966
323.615420444373;93.1770815219327
323.637049056478;92.9770512911488
323.658677668584;92.8267357707649
323.680306280689;92.7337827247893
323.701934892795;92.6861795189742
323.7235635049;92.6587817952226
323.745192117006;92.6325349966734
323.766820729111;92.6000096553728
323.788449341217;92.5526724259662
323.810077953322;92.4760158629429
323.831706565428;92.3643455747035
323.853335177533;92.2152810357816
323.874963789639;92.0333769074854
323.896592401744;91.823697356322
323.918221013849;91.5828786579858
323.939849625955;91.3188671328726
323.96147823806;91.0410706446404
323.983106850166;90.7411758030823
324.004735462271;90.4119503824548
324.026364074377;90.0687502865024
324.047992686482;89.7309695757257
324.069621298588;89.4019175694955
324.091249910693;89.0764980904852
324.112878522799;88.7293558660131
324.134507134904;88.3578687176621
324.15613574701;87.9787199953354
324.177764359115;87.6035914219423
324.19939297122;87.226866611621
324.221021583326;86.8517747077371
324.242650195431;86.4821598969907
324.264278807537;86.1271631343204
324.285907419642;85.7874429812887
324.307536031748;85.4650514633125
324.329164643853;85.174645143009
324.350793255959;84.9041156512581
324.372421868064;84.6528574280248
324.39405048017;84.4318643185291
324.415679092275;84.2575159571958
324.437307704381;84.1306568651981
324.458936316486;84.0335684686053
324.480564928591;83.9545577451804
324.502193540697;83.8892086085004
324.523822152802;83.8305058332492
324.545450764908;83.771291364912
324.567079377013;83.7052958506084
324.588707989119;83.6250278627578
324.610336601224;83.5297032291704
324.63196521333;83.4238886808846
324.653593825435;83.3071443730986
324.675222437541;83.1743770058392
324.696851049646;83.0219232393538
324.718479661752;82.8616868998034
324.740108273857;82.7129565841229
324.761736885963;82.5788034224845
