Name;ESR_BC_1_3600s_Z_gon_0dg_result

Recipe
Accumulations;5;Number of accumulations
RetryCount;0;Number of retries on error
AbortOnError;True;Abort on error
EnableQFactorMeasurement;False;Enable/Disable q-Factor measurement
Bfrom;313;B from
Bto;363;B to
SweepTime;60;Sweep time
Modulation;0.2;Modulation
ModulationFreq;100;Modulation
BHoldEnabled;False;B hold enabled
BHold;0;B hold
MicrowavePower;2;Microwave power
MarkerEnabled;False;
MarkerStartField;0;
MarkerEndField;0;
Mode;;
KineticGFact;0;
KineticTotalTransientTime;0;
KineticTimeResolution;0;
TempFrom;5;
TempUseSlope;False;
TempTo;5;
TempdT;1;
TempSetupTime;0;
GonFrom;0;
GonTo;180;
GonSteps;20;
XRayEnabled;False;
XRayTime;3;
XRayVoltage;40;
XRayCurrent;0.5;
UVEnabled;False;
UVIntensity;0;
UVTime;0;
UVLeadTime;0;
UVWavelength;0;
PowSweepFrom;1;
PowSweepTo;5;
PowSweepSteps;5;
AmpModSweepFrom;0;
AmpModSweepTo;1;
AmpModSweepSteps;10;
ExtTriggerEnabled;False;
ExtTrigLeadTime;0;
ExtTrigOnTime;5;

Meas
BField [mT];MW_Absorption []
313.016683120728;85.4810719675354
313.038308193554;85.4981504261963
313.05993326638;85.5078477284356
313.081558339206;85.5171095976757
313.103183412032;85.540467279704
313.124808484858;85.5830203774566
313.146433557684;85.6409326358406
313.16805863051;85.7108228548317
313.189683703336;85.7891605646875
313.211308776162;85.8660523930265
313.232933848988;85.9336771657532
313.254558921814;85.9837925069062
313.27618399464;86.0119928931626
313.297809067466;86.0155139929801
313.319434140292;85.990041186752
313.341059213118;85.9365886243219
313.362684285944;85.8596433335776
313.38430935877;85.763118980074
313.405934431596;85.6463037779822
313.427559504422;85.5251917834385
313.449184577248;85.4286432480934
313.470809650074;85.3603494529752
313.4924347229;85.3059229514159
313.514059795726;85.2696167333044
313.535684868552;85.2650033905663
313.557309941378;85.2960058001052
313.578935014205;85.3626016705424
313.600560087031;85.4467750838977
313.622185159857;85.5332124153135
313.643810232683;85.6267528892815
313.665435305509;85.7186681811418
313.687060378335;85.7922819115174
313.708685451161;85.8448466720886
313.730310523987;85.8882896809216
313.751935596813;85.9381404238671
313.773560669639;85.9787836127741
313.795185742465;86.0000104918319
313.816810815291;86.0037622318752
313.838435888117;85.9963076355497
313.860060960943;85.9757955062194
313.881686033769;85.9382718545703
313.903311106595;85.8845672669948
313.924936179421;85.8136962297504
313.946561252247;85.7311455682839
313.968186325073;85.6530038044826
313.989811397899;85.5833699353015
314.011436470725;85.5237706073683
314.033061543551;85.4785962956072
314.054686616377;85.453240303862
314.076311689203;85.4480883224476
314.097936762029;85.4592434950629
314.119561834856;85.4901522597396
314.141186907682;85.5438115601594
314.162811980508;85.6042451666437
314.184437053334;85.6569034132131
314.20606212616;85.6994150740933
314.227687198986;85.7320484947373
314.249312271812;85.7511117953737
314.270937344638;85.7557155705345
314.292562417464;85.7506772621228
314.31418749029;85.7351423170198
314.335812563116;85.7061932005574
314.357437635942;85.6682148286655
314.379062708768;85.6247234797941
314.400687781594;85.5743382078416
314.42231285442;85.5106495420275
314.443937927246;85.4281051606278
314.465563000072;85.3191557006251
314.487188072898;85.1805081613967
314.508813145724;85.0094817558089
314.53043821855;84.8027825693157
314.552063291376;84.5673524461037
314.573688364202;84.3267374323461
314.595313437028;84.0906480598254
314.616938509854;83.8501360197356
314.63856358268;83.6006190611048
314.660188655506;83.3455603796353
314.681813728332;83.0902211206359
314.703438801159;82.8355430303313
314.725063873985;82.574757920882
314.746688946811;82.3012114886693
314.768314019637;82.0331102207584
314.789939092463;81.7832290217839
314.811564165289;81.5423280747618
314.833189238115;81.3183040334203
314.854814310941;81.1188379460998
314.876439383767;80.9345213358544
314.898064456593;80.7653141393396
314.919689529419;80.6319815232283
314.941314602245;80.5480527883365
314.962939675071;80.5093159496254
314.984564747897;80.5069206686876
315.006189820723;80.5396245261502
315.027814893549;80.6065330907265
315.049439966375;80.6978706389155
315.071065039201;80.7957264096567
315.092690112027;80.8860146540415
315.114315184853;80.9683460577707
315.135940257679;81.0435439929918
315.157565330505;81.1035962738289
315.179190403331;81.1392823972238
315.200815476157;81.1458793697695
315.222440548983;81.1193927040014
315.24406562181;81.0615837981459
315.265690694636;80.9780759512099
315.287315767462;80.8647099487275
315.308940840288;80.7176486206944
315.330565913114;80.5471588452053
315.35219098594;80.3676061247349
315.373816058766;80.1922806865847
315.395441131592;80.0265798101091
315.417066204418;79.8681318228465
315.438691277244;79.7217661257276
315.46031635007;79.600251352475
315.481941422896;79.5126681773573
315.503566495722;79.4597319816568
315.525191568548;79.4386900226889
315.546816641374;79.4435758869683
315.5684417142;79.4754859172195
315.590066787026;79.5440084776799
315.611691859852;79.6496181902854
315.633316932678;79.7839847987552
315.654942005504;79.9328653658518
315.67656707833;80.085224743023
315.698192151156;80.25144981462
315.719817223982;80.4444059893935
315.741442296808;80.6519801448792
315.763067369634;80.8390326569812
315.78469244246;81.0089250592019
315.806317515287;81.1765962614447
315.827942588113;81.3401612690212
315.849567660939;81.4919759089789
315.871192733765;81.6307578920925
315.892817806591;81.7600204089675
315.914442879417;81.8852781932793
315.936067952243;82.0032177791963
315.957693025069;82.1158773731979
315.979318097895;82.2250198618518
316.000943170721;82.3210772675151
316.022568243547;82.3924203896513
316.044193316373;82.4307943195763
316.065818389199;82.430795499531
316.087443462025;82.3799172235046
316.109068534851;82.276933827219
316.130693607677;82.1259988289798
316.152318680503;81.9190451846724
316.173943753329;81.6413417874398
316.195568826155;81.2894345095241
316.217193898981;80.882258920907
316.238818971807;80.4619813552436
316.260444044633;80.055009461168
316.282069117459;79.6560016592097
316.303694190285;79.2626068943804
316.325319263111;78.8758415026012
316.346944335938;78.4958812104636
316.368569408764;78.1306999079603
316.39019448159;77.8110771191078
316.411819554416;77.5639567171011
316.433444627242;77.3829140766312
316.455069700068;77.2510126094233
316.476694772894;77.1606884915649
316.49831984572;77.106932946788
316.519944918546;77.0891457717307
316.541569991372;77.1139352403352
316.563195064198;77.1786722829521
316.584820137024;77.2668587261429
316.60644520985;77.3631026416274
316.628070282676;77.4650926383084
316.649695355502;77.5742804671517
316.671320428328;77.6781922369863
316.692945501154;77.7602384850864
316.71457057398;77.8137913357274
316.736195646806;77.8349534107642
316.757820719632;77.8270363762344
316.779445792458;77.7955350284772
316.801070865284;77.7441966222747
316.82269593811;77.6789077537887
316.844321010936;77.613968851696
316.865946083762;77.5582369988504
316.887571156588;77.5120586803163
316.909196229414;77.483203734605
316.930821302241;77.4946631947649
316.952446375067;77.5634299387986
316.974071447893;77.6780888778428
316.995696520719;77.8345235294063
317.017321593545;78.0249001164708
317.038946666371;78.2288958652428
317.060571739197;78.4271648864085
317.082196812023;78.6023139151945
317.103821884849;78.750742108594
317.125446957675;78.8728229683593
317.147072030501;78.9574756106329
317.168697103327;79.00301055015
317.190322176153;79.0114917640311
317.211947248979;78.985642293441
317.233572321805;78.9302328908618
317.255197394631;78.8588207858753
317.276822467457;78.7836661830604
317.298447540283;78.7156295120807
317.320072613109;78.6683010618543
317.341697685935;78.6481631232951
317.363322758761;78.6559259401245
317.384947831587;78.6907909618186
317.406572904413;78.7544766863871
317.428197977239;78.8502354698175
317.449823050065;78.9744708766405
317.471448122892;79.1197681520646
317.493073195718;79.2863211507555
317.514698268544;79.472780212661
317.53632334137;79.6832258001297
317.557948414196;79.916538782223
317.579573487022;80.137638490805
317.601198559848;80.3303328136971
317.622823632674;80.5063924720044
317.6444487055;80.6728325792797
317.666073778326;80.8211939815469
317.687698851152;80.9437048334713
317.709323923978;81.0393722536154
317.730948996804;81.1041007466358
317.75257406963;81.145646905274
317.774199142456;81.1871743692085
317.795824215282;81.2378341225685
317.817449288108;81.3013293467143
317.839074360934;81.3889769331991
317.86069943376;81.5029202608399
317.882324506586;81.6343984728004
317.903949579412;81.7758818053927
317.925574652238;81.9245238386067
317.947199725064;82.0822568432665
317.96882479789;82.2470606014064
317.990449870716;82.3988503569328
318.012074943542;82.5231824179564
318.033700016369;82.6219882621561
318.055325089195;82.6943516159706
318.076950162021;82.7353535059953
318.098575234847;82.7420678816381
318.120200307673;82.7143149730992
318.141825380499;82.6548177869023
318.163450453325;82.570722477504
318.185075526151;82.4645608691147
318.206700598977;82.3378374697133
318.228325671803;82.2011335007688
318.249950744629;82.0704212655191
318.271575817455;81.9498348898876
318.293200890281;81.8285008737831
318.314825963107;81.7023668202461
318.336451035933;81.5760300941663
318.358076108759;81.44045162677
318.379701181585;81.281644215805
318.401326254411;81.0945316121577
318.422951327237;80.8891491064714
318.444576400063;80.6759611696689
318.466201472889;80.4507526828523
318.487826545715;80.2031959851481
318.509451618541;79.9339357613302
318.531076691367;79.64758826762
318.552701764193;79.3422801880575
318.57432683702;79.0234885747508
318.595951909846;78.701133202295
318.617576982672;78.3670253641121
318.639202055498;78.0107142418687
318.660827128324;77.6481166281083
318.68245220115;77.3079485975527
318.704077273976;76.9855183246827
318.725702346802;76.6655747598073
318.747327419628;76.3398060727412
318.768952492454;76.0161182512592
318.79057756528;75.7002939337287
318.812202638106;75.3914979897375
318.833827710932;75.0958025492354
318.855452783758;74.8116904655112
318.877077856584;74.5263003865885
318.89870292941;74.2390724455714
318.920328002236;73.9577731114547
318.941953075062;73.6923469343399
318.963578147888;73.4459860356583
318.985203220714;73.2173645781925
319.00682829354;73.010788790132
319.028453366366;72.8425668112454
319.050078439192;72.7306652529149
319.071703512018;72.6801363099343
319.093328584844;72.693084766769
319.11495365767;72.7743445980703
319.136578730496;72.9144225192305
319.158203803323;73.0937943214719
319.179828876149;73.304534871475
319.201453948975;73.5478896223758
319.223079021801;73.8205030887468
319.244704094627;74.0997441304743
319.266329167453;74.3555857137104
319.287954240279;74.581483835466
319.309579313105;74.7731756972997
319.331204385931;74.9311195282233
319.352829458757;75.0601555964032
319.374454531583;75.1569618345476
319.396079604409;75.2180846876064
319.417704677235;75.2474501517853
319.439329750061;75.2517378482822
319.460954822887;75.2432065125521
319.482579895713;75.2268328663109
319.504204968539;75.2000092394857
319.525830041365;75.1660813068145
319.547455114191;75.130626457705
319.569080187017;75.0956073416572
319.590705259843;75.0642529674712
319.612330332669;75.0425758632083
319.633955405495;75.0359284913167
319.655580478321;75.0468595828175
319.677205551147;75.0838810251586
319.698830623973;75.1434573748661
319.7204556968;75.217507070305
319.742080769626;75.2977967176427
319.763705842452;75.3820302698915
319.785330915278;75.4802212157782
319.806955988104;75.5989914498109
319.82858106093;75.7362760051962
319.850206133756;75.8738043690798
319.871831206582;75.9985426023317
319.893456279408;76.1095188350608
319.915081352234;76.2086159407214
319.93670642506;76.2955996675258
319.958331497886;76.3606476870692
319.979956570712;76.3926051156152
320.001581643538;76.3812161944271
320.023206716364;76.320226804563
320.04483178919;76.2146413728139
320.066456862016;76.077625387481
320.088081934842;75.9064494840883
320.109707007668;75.6862749704777
320.131332080494;75.4079571952966
320.15295715332;75.074134860946
320.174582226146;74.6883532672696
320.196207298972;74.2593275893177
320.217832371798;73.8031119187767
320.239457444624;73.3336380431849
320.261082517451;72.8584902786288
320.282707590277;72.377638276097
320.304332663103;71.8816738019323
320.325957735929;71.3743860415437
320.347582808755;70.8964442029109
320.369207881581;70.4957179473456
320.390832954407;70.1724534117243
320.412458027233;69.9025949747027
320.434083100059;69.6858635347999
320.455708172885;69.5316325685569
320.477333245711;69.4376720566958
320.498958318537;69.396796369074
320.520583391363;69.4105511712837
320.542208464189;69.4823240525708
320.563833537015;69.614728779856
320.585458609841;69.8082540438483
320.607083682667;70.0545189866329
320.628708755493;70.3507870204952
320.650333828319;70.7063447523917
320.671958901145;71.1187965882403
320.693583973971;71.5686431256755
320.715209046797;72.0339144337593
320.736834119623;72.4976341367585
320.758459192449;72.9511128984922
320.780084265275;73.3950413641662
320.801709338101;73.8322471228999
320.823334410927;74.2629001276563
320.844959483754;74.6730088586557
320.86658455658;75.0349139746655
320.888209629406;75.339286665419
320.909834702232;75.5895898062675
320.931459775058;75.782946302919
320.953084847884;75.9169343189276
320.97470992071;75.9994360488691
320.996334993536;76.0448191944242
321.017960066362;76.072435908884
321.039585139188;76.0873288181849
321.061210212014;76.0758411267882
321.08283528484;76.0403834945992
321.104460357666;75.9864994869513
321.126085430492;75.9147932701788
321.147710503318;75.8274733942776
321.169335576144;75.7325612136845
321.19096064897;75.6315830079866
321.212585721796;75.514429084837
321.234210794622;75.3699933013238
321.255835867448;75.188370672566
321.277460940274;74.966215510934
321.2990860131;74.705962192679
321.320711085926;74.4167357441857
321.342336158752;74.1027511820432
321.363961231578;73.7580406086759
321.385586304405;73.3764273371076
321.407211377231;72.9650582876157
321.428836450057;72.5453245796388
321.450461522883;72.130317436508
321.472086595709;71.7209296268831
321.493711668535;71.3153943881672
321.515336741361;70.9122369217105
321.536961814187;70.5108626246413
321.558586887013;70.1089577119936
321.580211959839;69.6974949853474
321.601837032665;69.2670373522708
321.623462105491;68.8110956711831
321.645087178317;68.33880518588
321.666712251143;67.8670470657319
321.688337323969;67.4028985069354
321.709962396795;66.9595135839196
321.731587469621;66.5440308131235
321.753212542447;66.1639474445975
321.774837615273;65.8186971407057
321.796462688099;65.5068009501775
321.818087760925;65.2300271953196
321.839712833751;64.9961848475745
321.861337906577;64.806860720747
321.882962979403;64.6561393380006
321.904588052229;64.5313349128122
321.926213125055;64.427594868617
321.947838197882;64.3404403893569
321.969463270708;64.2612163829155
321.991088343534;64.1725916354415
322.01271341636;64.0567413770049
322.034338489186;63.9114563801107
322.055963562012;63.7482888512823
322.077588634838;63.5747983907174
322.099213707664;63.3887771668241
322.12083878049;63.192340206295
322.142463853316;62.9909059060636
322.164088926142;62.7911399788787
322.185713998968;62.5987432843459
322.207339071794;62.4109593444878
322.22896414462;62.2284838292366
322.250589217446;62.0406941499409
322.272214290272;61.8509292958965
322.293839363098;61.6616343570741
322.315464435924;61.4782841676286
322.33708950875;61.3055249136077
322.358714581576;61.1456807322057
322.380339654402;60.9973136283472
322.401964727228;60.860004688502
322.423589800054;60.7372546274626
322.44521487288;60.6270533045635
322.466839945706;60.5269489969513
322.488465018533;60.4353054187773
322.510090091359;60.3490373602166
322.531715164185;60.2626910990145
322.553340237011;60.1671904982514
322.574965309837;60.0615050115506
322.596590382663;59.9594094790308
322.618215455489;59.8669849389252
322.639840528315;59.7839933623496
322.661465601141;59.7181071304461
322.683090673967;59.6783020223258
322.704715746793;59.6666213224003
322.726340819619;59.6786333635206
322.747965892445;59.7262689690556
322.769590965271;59.8116389923057
322.791216038097;59.929657298547
322.812841110923;60.0728291313992
322.834466183749;60.2288923661534
322.856091256575;60.3873321798421
322.877716329401;60.5346104992006
322.899341402227;60.657690572373
322.920966475053;60.7357714405939
322.942591547879;60.7609082773466
322.964216620705;60.7375244756932
322.985841693531;60.6628027683408
323.007466766357;60.5328683662113
323.029091839183;60.3601732213451
323.050716912009;60.1590121895005
323.072341984836;59.9203778357163
323.093967057662;59.6383817219408
323.115592130488;59.3343483437705
323.137217203314;59.0436352679519
323.15884227614;58.7714044426202
323.180467348966;58.5119375380046
323.202092421792;58.2782287558962
323.223717494618;58.0805356523986
323.245342567444;57.9194797414393
323.26696764027;57.8041333096893
323.288592713096;57.733081682111
323.310217785922;57.6967506716099
323.331842858748;57.6791793845083
323.353467931574;57.6718002468922
323.3750930044;57.6759010408296
323.396718077226;57.6821799312413
323.418343150052;57.6845654735437
323.439968222878;57.6773303973663
323.461593295704;57.6469301751916
323.48321836853;57.5888613812307
323.504843441356;57.5111835265279
323.526468514182;57.419131244413
323.548093587008;57.3056003177151
323.569718659834;57.1695858125608
323.59134373266;57.0267615215979
323.612968805487;56.8904269393306
323.634593878313;56.7575881024439
323.656218951139;56.6299931966951
323.677844023965;56.5108333663728
323.699469096791;56.3990711062092
323.721094169617;56.2987801874594
323.742719242443;56.2099076037864
323.764344315269;56.1197055040921
323.785969388095;56.0219098227405
323.807594460921;55.9290287440736
323.829219533747;55.8471739955308
323.850844606573;55.7710778143072
323.872469679399;55.6953917925727
323.894094752225;55.6188370892217
323.915719825051;55.5429303524248
323.937344897877;55.4727289097197
323.958969970703;55.4113741265038
323.980595043529;55.3587411956679
324.002220116355;55.3182673097158
324.023845189181;55.2911751409193
324.045470262007;55.2803278366176
324.067095334833;55.2915404356585
324.088720407659;55.3301999642704
324.110345480485;55.3954583570731
324.131970553311;55.4878996018854
324.153595626137;55.6073772961722
324.175220698964;55.7543499326096
324.19684577179;55.9283021143858
324.218470844616;56.1285461863065
324.240095917442;56.3555967678857
324.261720990268;56.6125133589115
324.283346063094;56.8901149950831
324.30497113592;57.1725800954171
324.326596208746;57.4541408231873
324.348221281572;57.7287111339827
324.369846354398;57.9870965393833
324.391471427224;58.2176590425006
324.41309650005;58.4149326691159
324.434721572876;58.5769779975099
324.456346645702;58.6983200876753
324.477971718528;58.7654551175881
324.499596791354;58.7826489548089
324.52122186418;58.752272858964
324.542846937006;58.675621626929
324.564472009832;58.5666838263008
324.586097082658;58.435004328978
324.607722155484;58.282435135334
324.62934722831;58.1150609052414
324.650972301136;57.9412003702253
324.672597373962;57.7635275091107
324.694222446788;57.581900711794
324.715847519615;57.3942977522401
324.737472592441;57.1917985655978
324.759097665267;56.9624780040465
324.780722738093;56.7016970709333
