Name;ESR_BC_1_29min_X_gon_40dg_result

Recipe
Accumulations;5;Number of accumulations
RetryCount;0;Number of retries on error
AbortOnError;True;Abort on error
EnableQFactorMeasurement;False;Enable/Disable q-Factor measurement
Bfrom;313;B from
Bto;363;B to
SweepTime;60;Sweep time
Modulation;0.2;Modulation
ModulationFreq;100;Modulation
BHoldEnabled;False;B hold enabled
BHold;0;B hold
MicrowavePower;2;Microwave power
MarkerEnabled;False;
MarkerStartField;0;
MarkerEndField;0;
Mode;;
KineticGFact;0;
KineticTotalTransientTime;0;
KineticTimeResolution;0;
TempFrom;5;
TempUseSlope;False;
TempTo;5;
TempdT;1;
TempSetupTime;0;
GonFrom;0;
GonTo;180;
GonSteps;20;
XRayEnabled;False;
XRayTime;3;
XRayVoltage;40;
XRayCurrent;0.5;
UVEnabled;False;
UVIntensity;0;
UVTime;0;
UVLeadTime;0;
UVWavelength;0;
PowSweepFrom;1;
PowSweepTo;5;
PowSweepSteps;5;
AmpModSweepFrom;0;
AmpModSweepTo;1;
AmpModSweepSteps;10;
ExtTriggerEnabled;False;
ExtTrigLeadTime;0;
ExtTrigOnTime;5;

Meas
BField [mT];MW_Absorption []
313.015601348877;663.734193420823
313.03722617132;662.803596124239
313.058850993763;661.614077190339
313.080475816207;660.386422581694
313.10210063865;659.157747066277
313.123725461093;657.954038476778
313.145350283536;656.759973597349
313.166975105979;655.580809975639
313.188599928422;654.485325125121
313.210224750866;653.503356145798
313.231849573309;652.616207037718
313.253474395752;651.792541703878
313.275099218195;651.023407486836
313.296724040638;650.301080044793
313.318348863082;649.592318430307
313.339973685525;648.875551079623
313.361598507968;648.161907886611
313.383223330411;647.473406572673
313.404848152854;646.810051214886
313.426472975297;646.14957479236
313.448097797741;645.468359258831
313.469722620184;644.769816640394
313.491347442627;644.077325944739
313.51297226507;643.398246556433
313.534597087513;642.710538536727
313.556221909956;642.00860666175
313.5778467324;641.279818077799
313.599471554843;640.530116639516
313.621096377286;639.767161848774
313.642721199729;638.973385952383
313.664346022172;638.142354865192
313.685970844616;637.277989226596
313.707595667059;636.390218268581
313.729220489502;635.498640474592
313.750845311945;634.613744374304
313.772470134388;633.717930073868
313.794094956831;632.796107576047
313.815719779275;631.860082052982
313.837344601718;630.937683438675
313.858969424161;630.033058066171
313.880594246604;629.14016482554
313.902219069047;628.275131064165
313.923843891491;627.443311820293
313.945468713934;626.619986800746
313.967093536377;625.774645450693
313.98871835882;624.931521247745
314.010343181263;624.122090417867
314.031968003706;623.325024537801
314.05359282615;622.501579517115
314.075217648593;621.63103936459
314.096842471036;620.729718471201
314.118467293479;619.838266420608
314.140092115922;618.948385531464
314.161716938366;618.034610117345
314.183341760809;617.096616125318
314.204966583252;616.131717439011
314.226591405695;615.107371889707
314.248216228138;614.029503941753
314.269841050581;612.975995821381
314.291465873025;611.986812740186
314.313090695468;611.058467161662
314.334715517911;610.180525828232
314.356340340354;609.34110081955
314.377965162797;608.537135700386
314.399589985241;607.776772434027
314.421214807684;607.07330552404
314.442839630127;606.420153170795
314.46446445257;605.796392892424
314.486089275013;605.199790764958
314.507714097456;604.630017238013
314.5293389199;604.064323004289
314.550963742343;603.477198352225
314.572588564786;602.844464397762
314.594213387229;602.15382081036
314.615838209672;601.416528866276
314.637463032116;600.661149213902
314.659087854559;599.883227020288
314.680712677002;599.078960094793
314.702337499445;598.269179513611
314.723962321888;597.464634122719
314.745587144331;596.68844697811
314.767211966775;595.963701076741
314.788836789218;595.28759711728
314.810461611661;594.650722946675
314.832086434104;594.086863306527
314.853711256547;593.623738277919
314.875336078991;593.250465828856
314.896960901434;592.942623891745
314.918585723877;592.680884140325
314.94021054632;592.457194969679
314.961835368763;592.257931121312
314.983460191206;592.068476575819
315.00508501365;591.869541050153
315.026709836093;591.641825155891
315.048334658536;591.37502177226
315.069959480979;591.07192945083
315.091584303422;590.720128727313
315.113209125866;590.321110988589
315.134833948309;589.866382139656
315.156458770752;589.346914340168
315.178083593195;588.794518815822
315.199708415638;588.226886455623
315.221333238082;587.636209649298
315.242958060525;587.018192260381
315.264582882968;586.382911238348
315.286207705411;585.729082638832
315.307832527854;585.064259925273
315.329457350297;584.415451414159
315.351082172741;583.783986645444
315.372706995184;583.154088165698
315.394331817627;582.516314816813
315.41595664007;581.87057607197
315.437581462513;581.230928394566
315.459206284957;580.605019003321
315.4808311074;579.972245504283
315.502455929843;579.277625502527
315.524080752286;578.479088351519
315.545705574729;577.56659133506
315.567330397172;576.603266225089
315.588955219616;575.632994798445
315.610580042059;574.6540562282
315.632204864502;573.632306213494
315.653829686945;572.564268619171
315.675454509388;571.490039083014
315.697079331832;570.437963796779
315.718704154275;569.413754314701
315.740328976718;568.437922920574
315.761953799161;567.545503524742
315.783578621604;566.753341364864
315.805203444047;566.061411129603
315.826828266491;565.444627978966
315.848453088934;564.900821432282
315.870077911377;564.446665309372
315.89170273382;564.072128915614
315.913327556263;563.755699338839
315.934952378707;563.482247985061
315.95657720115;563.237001234888
315.978202023593;563.005421479602
315.999826846036;562.770994304528
316.021451668479;562.524157641404
316.043076490922;562.269868778542
316.064701313366;562.01150166828
316.086326135809;561.742709889984
316.107950958252;561.454299029717
316.129575780695;561.145063972051
316.151200603138;560.824365796188
316.172825425581;560.502996969292
316.194450248025;560.178730285728
316.216075070468;559.832703372549
316.237699892911;559.44786359159
316.259324715354;559.04374130661
316.280949537797;558.633742747958
316.302574360241;558.211790622077
316.324199182684;557.771626146877
316.345824005127;557.302263716313
316.36744882757;556.793512214396
316.389073650013;556.249908756542
316.410698472456;555.685712536549
316.4323232949;555.123507234823
316.453948117343;554.569141089855
316.475572939786;554.012351535731
316.497197762229;553.444303551547
316.518822584672;552.872947268538
316.540447407116;552.328043558424
316.562072229559;551.814909198663
316.583697052002;551.318943086857
316.605321874445;550.834108543942
316.626946696888;550.367644074982
316.648571519331;549.924575905973
316.670196341775;549.494292447424
316.691821164218;549.065944186657
316.713445986661;548.625571436879
316.735070809104;548.16322022591
316.756695631547;547.686213027168
316.778320453991;547.206603286078
316.799945276434;546.719514438634
316.821570098877;546.217233062938
316.84319492132;545.707004637224
316.864819743763;545.209301717802
316.886444566206;544.738012886906
316.90806938865;544.289424369824
316.929694211093;543.84194594793
316.951319033536;543.380141325042
316.972943855979;542.91602481026
316.994568678422;542.459431460198
317.016193500866;541.992830934276
317.037818323309;541.491573687696
317.059443145752;540.945163578626
317.081067968195;540.371221596402
317.102692790638;539.789451381953
317.124317613081;539.178773341718
317.145942435525;538.496059809881
317.167567257968;537.718161041173
317.189192080411;536.874220179835
317.210816902854;536.016813571062
317.232441725297;535.172698437452
317.254066547741;534.351082412933
317.275691370184;533.544459386795
317.297316192627;532.725691353133
317.31894101507;531.89251202208
317.340565837513;531.067389074821
317.362190659956;530.252808076383
317.3838154824;529.447516481026
317.405440304843;528.675334599062
317.427065127286;527.958027767704
317.448689949729;527.282346100676
317.470314772172;526.605765134628
317.491939594616;525.884968615576
317.513564417059;525.123548973738
317.535189239502;524.334548948844
317.556814061945;523.496384761075
317.578438884388;522.612420526171
317.600063706831;521.732861433366
317.621688529275;520.864931946535
317.643313351718;519.964865398956
317.664938174161;518.992092500883
317.686562996604;517.933185947901
317.708187819047;516.8123392439
317.729812641491;515.667114021674
317.751437463934;514.503022867381
317.773062286377;513.310758491141
317.79468710882;512.126229554942
317.816311931263;510.979724073102
317.837936753707;509.854566291474
317.85956157615;508.775536011989
317.881186398593;507.790976676468
317.902811221036;506.889133883379
317.924436043479;506.035076113918
317.946060865922;505.208059890898
317.967685688366;504.404958196281
317.989310510809;503.64098113332
318.010935333252;502.938620873942
318.032560155695;502.283896274113
318.054184978138;501.671298645721
318.075809800582;501.116141210372
318.097434623025;500.612787674599
318.119059445468;500.142979438201
318.140684267911;499.706846027256
318.162309090354;499.304787612239
318.183933912797;498.928813432525
318.205558735241;498.567302111801
318.227183557684;498.221898192279
318.248808380127;497.902888901243
318.27043320257;497.603363786251
318.292058025013;497.301153081503
318.313682847457;496.979216768937
318.3353076699;496.63456931553
318.356932492343;496.274715482222
318.378557314786;495.892918025991
318.400182137229;495.467133813083
318.421806959672;494.987834355867
318.443431782116;494.471803754622
318.465056604559;493.932432146535
318.486681427002;493.368267780963
318.508306249445;492.774829327267
318.529931071888;492.151100826653
318.551555894332;491.505697003922
318.573180716775;490.845332497959
318.594805539218;490.165470740959
318.616430361661;489.460920659524
318.638055184104;488.747131111248
318.659680006547;488.044521356377
318.681304828991;487.347972090025
318.702929651434;486.656375954799
318.724554473877;485.980488751826
318.74617929632;485.327477936254
318.767804118763;484.693734668567
318.789428941206;484.065577445885
318.81105376365;483.442685605855
318.832678586093;482.842227200795
318.854303408536;482.250291093317
318.875928230979;481.6354638537
318.897553053422;481.023591021019
318.919177875866;480.43604934993
318.940802698309;479.877218163599
318.962427520752;479.347446452525
318.984052343195;478.847077407436
319.005677165638;478.372808893835
319.027301988081;477.930737971786
319.048926810525;477.529912779848
319.070551632968;477.163253295535
319.092176455411;476.819708483763
319.113801277854;476.485221977772
319.135426100297;476.166312362666
319.157050922741;475.864322867502
319.178675745184;475.567718853445
319.200300567627;475.266096966469
319.22192539007;474.975516732325
319.243550212513;474.718462593828
319.265175034956;474.508757384727
319.2867998574;474.329661349685
319.308424679843;474.166341955673
319.330049502286;474.014395372436
319.351674324729;473.874307886876
319.373299147172;473.73202270904
319.394923969616;473.562929681469
319.416548792059;473.35576322444
319.438173614502;473.123090084263
319.459798436945;472.870572103245
319.481423259388;472.581070818843
319.503048081831;472.236929419924
319.524672904275;471.845832655429
319.546297726718;471.43553464147
319.567922549161;471.02672886764
319.589547371604;470.622155102363
319.611172194047;470.216501339784
319.632797016491;469.813121458655
319.654421838934;469.42775206089
319.676046661377;469.076747689907
319.69767148382;468.754363634832
319.719296306263;468.446256524294
319.740921128706;468.14119272075
319.76254595115;467.836013052587
319.784170773593;467.531881064723
319.805795596036;467.225126183962
319.827420418479;466.911364231052
319.849045240922;466.5889906243
319.870670063366;466.252443823979
319.892294885809;465.892866986149
319.913919708252;465.505528498105
319.935544530695;465.120975384998
319.957169353138;464.754469417166
319.978794175581;464.398882505193
320.000418998025;464.045044464612
320.022043820468;463.696697946896
320.043668642911;463.371978662222
320.065293465354;463.078990807292
320.086918287797;462.821580913336
320.108543110241;462.604132080727
320.130167932684;462.430500679444
320.151792755127;462.301727029058
320.17341757757;462.215488883855
320.195042400013;462.169983930501
320.216667222456;462.164080207067
320.2382920449;462.186883553895
320.259916867343;462.224701163922
320.281541689786;462.266162859539
320.303166512229;462.298550485992
320.324791334672;462.303370786205
320.346416157116;462.253814238791
320.368040979559;462.115832076463
320.389665802002;461.861731475429
320.411290624445;461.489216263568
320.432915446888;460.991655021145
320.454540269332;460.334507929259
320.476165091775;459.48622215711
320.497789914218;458.432622273611
320.519414736661;457.17858684222
320.541039559104;455.737747119134
320.562664381547;454.098486357354
320.584289203991;452.274938759184
320.605914026434;450.391398857039
320.627538848877;448.511931885335
320.64916367132;446.618223957544
320.670788493763;444.723973866272
320.692413316207;442.898564902629
320.71403813865;441.174384106638
320.735662961093;439.547743763289
320.757287783536;438.04632006623
320.778912605979;436.697161817205
320.800537428422;435.49366074392
320.822162250866;434.420424782706
320.843787073309;433.470506875876
320.865411895752;432.632598385056
320.887036718195;431.896313846066
320.908661540638;431.250673706094
320.930286363082;430.666925956106
320.951911185525;430.094518621041
320.973536007968;429.482994663619
320.995160830411;428.814926219268
321.016785652854;428.087334897981
321.038410475297;427.278634917448
321.060035297741;426.353519655867
321.081660120184;425.277216140621
321.103284942627;424.035486507333
321.12490976507;422.678348174921
321.146534587513;421.27288394189
321.168159409957;419.823734092571
321.1897842324;418.317492302825
321.211409054843;416.774778415994
321.233033877286;415.214495297698
321.254658699729;413.642243317229
321.276283522172;412.080637396426
321.297908344616;410.571244343585
321.319533167059;409.158488774628
321.341157989502;407.880528570427
321.362782811945;406.744823309522
321.384407634388;405.722082099222
321.406032456832;404.804994106162
321.427657279275;403.986857772042
321.449282101718;403.291895887668
321.470906924161;402.747440857464
321.492531746604;402.336354933124
321.514156569047;402.017114551141
321.535781391491;401.772090943115
321.557406213934;401.601925910369
321.579031036377;401.49418487336
321.60065585882;401.419768458668
321.622280681263;401.35164871172
321.643905503706;401.278629745665
321.66553032615;401.209228010061
321.687155148593;401.135295038294
321.708779971036;401.047829016575
321.730404793479;400.948956968733
321.752029615922;400.836698297578
321.773654438366;400.699459949488
321.795279260809;400.547915979428
321.816904083252;400.383079148799
321.838528905695;400.201026430084
321.860153728138;399.9994327919
321.881778550581;399.780000460348
321.903403373025;399.548741960201
321.925028195468;399.311255901631
321.946653017911;399.070307484344
321.968277840354;398.828048362744
321.989902662797;398.584696257153
322.011527485241;398.3358474296
322.033152307684;398.073542853454
322.054777130127;397.797762860222
322.07640195257;397.506734699845
322.098026775013;397.19035881526
322.119651597456;396.832967688138
322.1412764199;396.438506729247
322.162901242343;396.029186737017
322.184526064786;395.611361719869
322.206150887229;395.162717065634
322.227775709672;394.680181382997
322.249400532116;394.178647601262
322.271025354559;393.672656200125
322.292650177002;393.170718254588
322.314274999445;392.665829199552
322.335899821888;392.141903937764
322.357524644331;391.591044389226
322.379149466775;391.025737599129
322.400774289218;390.446751901983
322.422399111661;389.830362593292
322.444023934104;389.150443894313
322.465648756547;388.394908754033
322.487273578991;387.569785004326
322.508898401434;386.677433420567
322.530523223877;385.725571136337
322.55214804632;384.741053055662
322.573772868763;383.693409349137
322.595397691206;382.565103610058
322.61702251365;381.374031947833
322.638647336093;380.143290314189
322.660272158536;378.902983262479
322.681896980979;377.737658666537
322.703521803422;376.67810231892
322.725146625866;375.711256055195
322.746771448309;374.826193213623
322.768396270752;374.052964360639
322.790021093195;373.371515331477
322.811645915638;372.781924842718
322.833270738081;372.285818008395
322.854895560525;371.882702351632
322.876520382968;371.560587118361
322.898145205411;371.310754157132
322.919770027854;371.117925068193
322.941394850297;370.959581755401
322.963019672741;370.814041655965
322.984644495184;370.665439724004
323.006269317627;370.498516720545
323.02789414007;370.304818096738
323.049518962513;370.079737259278
323.071143784957;369.815775154287
323.0927686074;369.50405953671
323.114393429843;369.148298906094
323.136018252286;368.758239806168
323.157643074729;368.339178654704
323.179267897172;367.893172547106
323.200892719616;367.421461442533
323.222517542059;366.9243967661
323.244142364502;366.401851612686
323.265767186945;365.8639474245
323.287392009388;365.334446400905
323.309016831832;364.832859712224
323.330641654275;364.367360668822
323.352266476718;363.93582933866
323.373891299161;363.514161945379
323.395516121604;363.103295343678
323.417140944047;362.709207259034
323.438765766491;362.346754515567
323.460390588934;361.992257779479
323.482015411377;361.625490842961
323.50364023382;361.232916442223
323.525265056263;360.798699957257
323.546889878707;360.300326597631
323.56851470115;359.743750219894
323.590139523593;359.124374815033
323.611764346036;358.449582485804
323.633389168479;357.732808660905
323.655013990922;356.956219652183
323.676638813366;356.101690348468
323.698263635809;355.197776212576
323.719888458252;354.280166173966
323.741513280695;353.337220262095
323.763138103138;352.376053998631
323.784762925582;351.435626770388
323.806387748025;350.546356253423
323.828012570468;349.698865562889
323.849637392911;348.868643400002
323.871262215354;348.021724081659
323.892887037797;347.143659724264
323.914511860241;346.2885297391
323.936136682684;345.485476067184
323.957761505127;344.715763671502
323.97938632757;343.952302632146
324.001011150013;343.175318697707
324.022635972457;342.387848836958
324.0442607949;341.608967675564
324.065885617343;340.840674418079
324.087510439786;340.07145377206
324.109135262229;339.28030492705
324.130760084672;338.455885457876
324.152384907116;337.594859019367
324.174009729559;336.711956071356
324.195634552002;335.801317904183
324.217259374445;334.856373645667
324.238884196888;333.88278087874
324.260509019331;332.893949130439
324.282133841775;331.879368069292
324.303758664218;330.831250384199
324.325383486661;329.760491832766
324.347008309104;328.681505421221
324.368633131547;327.589755111418
324.390257953991;326.474478860167
324.411882776434;325.347135967852
324.433507598877;324.237545380999
324.45513242132;323.155055717317
324.476757243763;322.06897279545
324.498382066206;320.947800321017
324.52000688865;319.788682055881
324.541631711093;318.619516388324
324.563256533536;317.470071578406
324.584881355979;316.336387055566
324.606506178422;315.182779220522
324.628131000866;314.008149409335
324.649755823309;312.817211770265
324.671380645752;311.589749156961
324.693005468195;310.313051699314
324.714630290638;309.012368275057
324.736255113081;307.719438603581
324.757879935525;306.415779948907
324.779504757968;305.108206082268
