Name;ESR_BC_1_14400s_Z_gon_0dg_result

Recipe
Accumulations;5;Number of accumulations
RetryCount;0;Number of retries on error
AbortOnError;True;Abort on error
EnableQFactorMeasurement;False;Enable/Disable q-Factor measurement
Bfrom;313;B from
Bto;363;B to
SweepTime;60;Sweep time
Modulation;0.2;Modulation
ModulationFreq;100;Modulation
BHoldEnabled;False;B hold enabled
BHold;0;B hold
MicrowavePower;2;Microwave power
MarkerEnabled;False;
MarkerStartField;0;
MarkerEndField;0;
Mode;;
KineticGFact;0;
KineticTotalTransientTime;0;
KineticTimeResolution;0;
TempFrom;5;
TempUseSlope;False;
TempTo;5;
TempdT;1;
TempSetupTime;0;
GonFrom;0;
GonTo;180;
GonSteps;20;
XRayEnabled;False;
XRayTime;3;
XRayVoltage;40;
XRayCurrent;0.5;
UVEnabled;False;
UVIntensity;0;
UVTime;0;
UVLeadTime;0;
UVWavelength;0;
PowSweepFrom;1;
PowSweepTo;5;
PowSweepSteps;5;
AmpModSweepFrom;0;
AmpModSweepTo;1;
AmpModSweepSteps;10;
ExtTriggerEnabled;False;
ExtTrigLeadTime;0;
ExtTrigOnTime;5;

Meas
BField [mT];MW_Absorption []
313.008161697388;81.2838147833916
313.029775784568;81.3498543746596
313.051389871749;81.45712953494
313.07300395893;81.6069462991539
313.094618046111;81.7869426071214
313.116232133291;81.9839984503277
313.137846220472;82.1856578566158
313.159460307653;82.3818490298767
313.181074394833;82.5700947998638
313.202688482014;82.7592796637381
313.224302569195;82.9528048496894
313.245916656375;83.1306972320152
313.267530743556;83.2797498505708
313.289144830737;83.3948059592999
313.310758917917;83.4743706223309
313.332373005098;83.5186395522109
313.353987092279;83.5261750447064
313.37560117946;83.4997504129034
313.39721526664;83.4383300392953
313.418829353821;83.3330013787354
313.440443441002;83.1820580913789
313.462057528182;82.9825517193081
313.483671615363;82.7354137576215
313.505285702544;82.444288287659
313.526899789724;82.1177674818109
313.548513876905;81.7750273191103
313.570127964086;81.4247176132289
313.591742051267;81.0633302636157
313.613356138447;80.6817988402077
313.634970225628;80.3166100255677
313.656584312809;79.9924524409563
313.678198399989;79.7090596231357
313.69981248717;79.4708756433288
313.721426574351;79.2896649489002
313.743040661531;79.1726965132408
313.764654748712;79.1161480994439
313.786268835893;79.1213871743952
313.807882923073;79.1936628330658
313.829497010254;79.3334490577995
313.851111097435;79.5253215216397
313.872725184616;79.7436912743737
313.894339271796;79.9702865739448
313.915953358977;80.1995378017534
313.937567446158;80.4295999561867
313.959181533338;80.65742033891
313.980795620519;80.8760378282442
314.0024097077;81.0675811070226
314.02402379488;81.2226848109229
314.045637882061;81.3421869793331
314.067251969242;81.426012348449
314.088866056422;81.4772664668415
314.110480143603;81.5037070347543
314.132094230784;81.5204379054794
314.153708317965;81.5305210224515
314.175322405145;81.5409183586618
314.196936492326;81.5670616985751
314.218550579507;81.6199716987509
314.240164666687;81.7078114063502
314.261778753868;81.8275428970373
314.283392841049;81.97165471755
314.305006928229;82.1394280499042
314.32662101541;82.335677631585
314.348235102591;82.5515003705693
314.369849189772;82.7702436656994
314.391463276952;82.9741610323133
314.413077364133;83.1613691123522
314.434691451314;83.3319656245591
314.456305538494;83.4757295530217
314.477919625675;83.5818990323521
314.499533712856;83.6475995494898
314.521147800036;83.6655214548908
314.542761887217;83.6298180510898
314.564375974398;83.5476191598013
314.585990061578;83.4281180869324
314.607604148759;83.2776970981085
314.62921823594;83.0997374751048
314.650832323121;82.8982781841839
314.672446410301;82.6842178158422
314.694060497482;82.4629841551755
314.715674584663;82.2442202698937
314.737288671843;82.0538989192027
314.758902759024;81.8954199953597
314.780516846205;81.7649142180098
314.802130933385;81.6613421751255
314.823745020566;81.5826420815972
314.845359107747;81.5181593613585
314.866973194928;81.4562986599975
314.888587282108;81.3981982956816
314.910201369289;81.3497150851485
314.93181545647;81.3004306344161
314.95342954365;81.2390184723183
314.975043630831;81.1608175743207
314.996657718012;81.0629957699322
315.018271805192;80.9534690822849
315.039885892373;80.8462143685451
315.061499979554;80.7556074907566
315.083114066734;80.6877801165668
315.104728153915;80.6445165339865
315.126342241096;80.6240253251586
315.147956328277;80.6196118325519
315.169570415457;80.6233418281003
315.191184502638;80.6380857927134
315.212798589819;80.6624196996897
315.234412676999;80.6740650148289
315.25602676418;80.6738281276042
315.277640851361;80.6795065787636
315.299254938541;80.6858211271523
315.320869025722;80.6694052413083
315.342483112903;80.6397821779362
315.364097200084;80.6183534690651
315.385711287264;80.6148716216905
315.407325374445;80.6379158624041
315.428939461626;80.6987900840936
315.450553548806;80.8104947275691
315.472167635987;80.9720745597695
315.493781723168;81.1766139444084
315.515395810348;81.4221759033886
315.537009897529;81.7177407022965
315.55862398471;82.0360350539961
315.58023807189;82.33271720771
315.601852159071;82.6049062496246
315.623466246252;82.8607744274577
315.645080333433;83.0804770462289
315.666694420613;83.2380918474483
315.688308507794;83.335688520267
315.709922594975;83.3813402327106
315.731536682155;83.3832949094229
315.753150769336;83.3325379351475
315.774764856517;83.2194683685029
315.796378943697;83.0644913423596
315.817993030878;82.8940652924334
315.839607118059;82.725980679363
315.861221205239;82.5639714525939
315.88283529242;82.403940742664
315.904449379601;82.245761038622
315.926063466782;82.0975312291592
315.947677553962;81.9740877459776
315.969291641143;81.8755265185554
315.990905728324;81.7895171911598
316.012519815504;81.7042740151953
316.034133902685;81.6164671478933
316.055747989866;81.5255126362043
316.077362077046;81.4258324982764
316.098976164227;81.3040092796647
316.120590251408;81.1637935819214
316.142204338589;81.0211399371293
316.163818425769;80.8804287060414
316.18543251295;80.7301885917761
316.207046600131;80.5568216935838
316.228660687311;80.3474826157308
316.250274774492;80.1100679359407
316.271888861673;79.870162816823
316.293502948853;79.6388341781852
316.315117036034;79.4103540432856
316.336731123215;79.1764959721742
316.358345210396;78.9334157673295
316.379959297576;78.6837232391405
316.401573384757;78.4314867330015
316.423187471938;78.1826674426714
316.444801559118;77.9459232475734
316.466415646299;77.7281556549542
316.48802973348;77.527502403723
316.50964382066;77.3406872328011
316.531257907841;77.162488641752
316.552871995022;76.9913284387898
316.574486082202;76.8204336437827
316.596100169383;76.6464928796668
316.617714256564;76.4859244802161
316.639328343745;76.3487375564664
316.660942430925;76.2288151244278
316.682556518106;76.1184170272794
316.704170605287;76.0176281775088
316.725784692467;75.9347254455059
316.747398779648;75.8791078718364
316.769012866829;75.851837760244
316.790626954009;75.8625475259081
316.81224104119;75.9191731619046
316.833855128371;76.0283902668358
316.855469215551;76.1944253433761
316.877083302732;76.3985385675203
316.898697389913;76.6177320146454
316.920311477094;76.855380913416
316.941925564274;77.1030256160587
316.963539651455;77.3356783325249
316.985153738636;77.5507143224703
317.006767825816;77.7458435751772
317.028381912997;77.912066353757
317.049996000178;78.0467135354528
317.071610087358;78.1548058460903
317.093224174539;78.239464512466
317.11483826172;78.3061957808961
317.136452348901;78.3603838512541
317.158066436081;78.4069665013443
317.179680523262;78.4529462460674
317.201294610443;78.5095875376233
317.222908697623;78.5848124269898
317.244522784804;78.6787111457015
317.266136871985;78.7902405018962
317.287750959165;78.9191157301749
317.309365046346;79.060021947434
317.330979133527;79.1994531624754
317.352593220707;79.3240948894816
317.374207307888;79.4352286079689
317.395821395069;79.5347235279635
317.41743548225;79.6134897375989
317.43904956943;79.6709972344186
317.460663656611;79.7215063895269
317.482277743792;79.7715200230423
317.503891830972;79.8040075792617
317.525505918153;79.8139010269837
317.547120005334;79.8095565984134
317.568734092514;79.804005861489
317.590348179695;79.801442637672
317.611962266876;79.7901860097972
317.633576354057;79.7724343933183
317.655190441237;79.7618201524276
317.676804528418;79.7554561534408
317.698418615599;79.7490994317186
317.720032702779;79.7332494455266
317.74164678996;79.7015070554426
317.763260877141;79.6627785220641
317.784874964321;79.6195965751198
317.806489051502;79.5661993369146
317.828103138683;79.5022753341828
317.849717225863;79.4220026349289
317.871331313044;79.3284408587303
317.892945400225;79.2265426818162
317.914559487406;79.1209781941217
317.936173574586;79.0115281573845
317.957787661767;78.8957853472222
317.979401748948;78.7697753711282
318.001015836128;78.6304623399404
318.022629923309;78.4936298264011
318.04424401049;78.3422326764278
318.06585809767;78.158238707015
318.087472184851;77.9592082597695
318.109086272032;77.758526993667
318.130700359212;77.5523394331447
318.152314446393;77.3315412751747
318.173928533574;77.0892042219893
318.195542620755;76.8392826648086
318.217156707935;76.5949916075843
318.238770795116;76.3630272310331
318.260384882297;76.1647541441502
318.281998969477;76.005714926349
318.303613056658;75.8826479693439
318.325227143839;75.7768219279781
318.346841231019;75.6762652992651
318.3684553182;75.586421413062
318.390069405381;75.5152436234777
318.411683492562;75.4668938792784
318.433297579742;75.422638105204
318.454911666923;75.3650427355493
318.476525754104;75.2857947213689
318.498139841284;75.1794691679048
318.519753928465;75.0450053840299
318.541368015646;74.87949621505
318.562982102826;74.674859007891
318.584596190007;74.4206899986291
318.606210277188;74.1246912460227
318.627824364369;73.7986140162598
318.649438451549;73.4462480004677
318.67105253873;73.0786728377935
318.692666625911;72.7144321035304
318.714280713091;72.36844115732
318.735894800272;72.0459153579684
318.757508887453;71.7476206964207
318.779122974633;71.4939032147753
318.800737061814;71.2890025428912
318.822351148995;71.1214966107894
318.843965236175;70.9892748699917
318.865579323356;70.9046168623972
318.887193410537;70.8640497203335
318.908807497718;70.8517501095582
318.930421584898;70.8683902280648
318.952035672079;70.913329648944
318.97364975926;70.9746696291572
318.99526384644;71.0434063766569
319.016877933621;71.1220618273716
319.038492020802;71.2137104307148
319.060106107982;71.3118037258546
319.081720195163;71.4045723780599
319.103334282344;71.4880538653181
319.124948369524;71.5626444490768
319.146562456705;71.6240512604941
319.168176543886;71.6665405202097
319.189790631067;71.6933716867512
319.211404718247;71.7161996723454
319.233018805428;71.7366177478394
319.254632892609;71.7590048314694
319.276246979789;71.7916298709463
319.29786106697;71.8446340254673
319.319475154151;71.9108381327599
319.341089241331;71.9842896332758
319.362703328512;72.0760327874163
319.384317415693;72.2003462349435
319.405931502874;72.3549233653399
319.427545590054;72.5137729395817
319.449159677235;72.656331130813
319.470773764416;72.7804839728434
319.492387851596;72.884982089537
319.514001938777;72.9647712404225
319.535616025958;73.015443855374
319.557230113138;73.0328268583894
319.578844200319;73.0114810914913
319.6004582875;72.9508365558471
319.622072374681;72.8572784513521
319.643686461861;72.7319896620972
319.665300549042;72.5680208731535
319.686914636223;72.3718330019337
319.708528723403;72.1617658766115
319.730142810584;71.9402259843766
319.751756897765;71.706113017578
319.773370984945;71.4650930674817
319.794985072126;71.2227848968984
319.816599159307;70.9813675363046
319.838213246487;70.7415648563114
319.859827333668;70.5081278081906
319.881441420849;70.2879364628003
319.90305550803;70.0860705510616
319.92466959521;69.9024463399716
319.946283682391;69.7408684945236
319.967897769572;69.614684196484
319.989511856752;69.5329324286024
320.011125943933;69.4919289568857
320.032740031114;69.4893882575776
320.054354118294;69.5323778487539
320.075968205475;69.6260501644777
320.097582292656;69.7650576109902
320.119196379836;69.941602944623
320.140810467017;70.1476295360505
320.162424554198;70.3731068755214
320.184038641379;70.6160664888571
320.205652728559;70.8732123902306
320.22726681574;71.1312040286728
320.248880902921;71.3816217077092
320.270494990101;71.6163994619297
320.292109077282;71.8201937992648
320.313723164463;71.988786113585
320.335337251643;72.1320632026314
320.356951338824;72.2554662168111
320.378565426005;72.3483606006795
320.400179513185;72.4025263848493
320.421793600366;72.4216961615835
320.443407687547;72.4065186489319
320.465021774728;72.3591821313632
320.486635861908;72.2900311761923
320.508249949089;72.2034176959262
320.52986403627;72.095462567793
320.55147812345;71.9623083522529
320.573092210631;71.8077754591785
320.594706297812;71.6347353394167
320.616320384992;71.4449403635487
320.637934472173;71.2409765747705
320.659548559354;71.0277370292733
320.681162646535;70.7995936488728
320.702776733715;70.5686265489798
320.724390820896;70.3574811331112
320.746004908077;70.1629355514605
320.767618995257;69.9798974176824
320.789233082438;69.8112997104718
320.810847169619;69.6706054719507
320.832461256799;69.5681509892307
320.85407534398;69.4947107228293
320.875689431161;69.4417390050676
320.897303518342;69.4116745932339
320.918917605522;69.405494092181
320.940531692703;69.4120137403599
320.962145779884;69.415391893128
320.983759867064;69.4026396909996
321.005373954245;69.3657629327096
321.026988041426;69.3042577150095
321.048602128606;69.2189857767208
321.070216215787;69.1070641091469
321.091830302968;68.9685039844131
321.113444390148;68.8062674991674
321.135058477329;68.6202459896601
321.15667256451;68.4066951338671
321.178286651691;68.1672245266828
321.199900738871;67.9060737080362
321.221514826052;67.6373276242408
321.243128913233;67.3747057736549
321.264743000413;67.1182952174826
321.286357087594;66.8774077861005
321.307971174775;66.659275075716
321.329585261955;66.472874148372
321.351199349136;66.3040251562282
321.372813436317;66.1490671948246
321.394427523497;66.0083477941421
321.416041610678;65.8639325689053
321.437655697859;65.7093670007121
321.45926978504;65.5432655840486
321.48088387222;65.3544190965667
321.502497959401;65.1411561829059
321.524112046582;64.9111384816841
321.545726133762;64.6613977689243
321.567340220943;64.3733647717679
321.588954308124;64.0295152050196
321.610568395304;63.6560315915295
321.632182482485;63.2729568374083
321.653796569666;62.8857876532782
321.675410656847;62.492687995527
321.697024744027;62.091316925639
321.718638831208;61.6776668008054
321.740252918389;61.2645970385274
321.761867005569;60.8815936904286
321.78348109275;60.5279123412798
321.805095179931;60.2006013846636
321.826709267111;59.9120560381596
321.848323354292;59.678080998883
321.869937441473;59.5140543696446
321.891551528654;59.4270767123385
321.913165615834;59.4114479947046
321.934779703015;59.4629950610566
321.956393790196;59.5738435806449
321.978007877376;59.7258458168508
321.999621964557;59.9086697472899
322.021236051738;60.1156504632548
322.042850138918;60.342599136238
322.064464226099;60.5815757461865
322.08607831328;60.8347793741837
322.10769240046;61.1103718673371
322.129306487641;61.4085585024113
322.150920574822;61.707409580102
322.172534662003;61.9995543852439
322.194148749183;62.2836976291779
322.215762836364;62.564681161223
322.237376923545;62.8494353880068
322.258991010725;63.1461593755589
322.280605097906;63.4529253941396
322.302219185087;63.7527965198672
322.323833272267;64.0415513290235
322.345447359448;64.3142188074634
322.367061446629;64.559501889468
322.388675533809;64.7705811788533
322.41028962099;64.9526559177185
322.431903708171;65.1038867468531
322.453517795352;65.2092975344781
322.475131882532;65.2591004853469
322.496745969713;65.2512570152505
322.518360056894;65.20257092387
322.539974144074;65.1267069434629
322.561588231255;65.0270288313807
322.583202318436;64.89261625386
322.604816405616;64.7161109993826
322.626430492797;64.5008175427613
322.648044579978;64.2590430219981
322.669658667159;63.9984284121006
322.691272754339;63.7205486158906
322.71288684152;63.4301492613524
322.734500928701;63.129480392081
322.756115015881;62.8215049365587
322.777729103062;62.5168346279223
322.799343190243;62.2188031920177
322.820957277423;61.9196740253742
322.842571364604;61.6039096508891
322.864185451785;61.2712640505553
322.885799538965;60.9412917927964
322.907413626146;60.6181344660696
322.929027713327;60.284028781645
322.950641800508;59.9368063314389
322.972255887688;59.5971036935279
322.993869974869;59.2712714290536
323.01548406205;58.9468747343341
323.03709814923;58.6176236147868
323.058712236411;58.2884135510647
323.080326323592;57.9629293757125
323.101940410772;57.6355059180759
323.123554497953;57.3027161975875
323.145168585134;56.9723755041455
323.166782672315;56.6631229069749
323.188396759495;56.378021467702
323.210010846676;56.1079179926584
323.231624933857;55.839115233134
323.253239021037;55.5468967114162
323.274853108218;55.2288092715558
323.296467195399;54.9076188454553
323.318081282579;54.5899696902561
323.33969536976;54.2664228893782
323.361309456941;53.9248438388271
323.382923544121;53.5674601894583
323.404537631302;53.2057960834787
323.426151718483;52.8430458210854
323.447765805664;52.4819481794891
323.469379892844;52.1366560367601
323.490993980025;51.835479174062
323.512608067206;51.5823797691114
323.534222154386;51.3637159788548
323.555836241567;51.1813980848552
323.577450328748;51.0473304333691
323.599064415928;50.970447311632
323.620678503109;50.9508979437656
323.64229259029;50.983739176208
323.66390667747;51.0650603064463
323.685520764651;51.1931493193941
323.707134851832;51.3667808688059
323.728748939013;51.5786193512929
323.750363026193;51.8142118612744
323.771977113374;52.0590350107777
323.793591200555;52.3036373031462
323.815205287735;52.5421988327379
323.836819374916;52.7641094083049
323.858433462097;52.9463929310772
323.880047549277;53.0796276104647
323.901661636458;53.1594888817352
323.923275723639;53.1768488110285
323.94488981082;53.1317464309923
323.966503898;53.0283074192035
323.988117985181;52.8716149913735
324.009732072362;52.6729726378592
324.031346159542;52.4561058011092
324.052960246723;52.242900380354
324.074574333904;52.0370296461633
324.096188421084;51.8349748467225
324.117802508265;51.6468585142968
324.139416595446;51.4983123185468
324.161030682627;51.4045620472398
324.182644769807;51.3582047706659
324.204258856988;51.355821370887
324.225872944169;51.3879260208139
324.247487031349;51.4434089123907
324.26910111853;51.5090636326441
324.290715205711;51.5661693185017
324.312329292891;51.6144023556692
324.333943380072;51.6564992496126
324.355557467253;51.6768521292817
324.377171554433;51.6670020340095
324.398785641614;51.6354680173875
324.420399728795;51.5943678443766
324.442013815976;51.5532956647959
324.463627903156;51.5188080880262
324.485241990337;51.4970332264083
324.506856077518;51.4898067718697
324.528470164698;51.493958297131
324.550084251879;51.5062814230566
324.57169833906;51.5192213434086
324.59331242624;51.5262396176125
324.614926513421;51.5215223379313
324.636540600602;51.5001295391103
324.658154687782;51.4581766568179
324.679768774963;51.3926729669802
324.701382862144;51.3040306980589
324.722996949325;51.2006954479094
324.744611036505;51.0979558227594
324.766225123686;51.0061099638766
