Name;ESR_BC_1_359s_Z_gon_180dg_result

Recipe
Accumulations;5;Number of accumulations
RetryCount;0;Number of retries on error
AbortOnError;True;Abort on error
EnableQFactorMeasurement;False;Enable/Disable q-Factor measurement
Bfrom;313;B from
Bto;363;B to
SweepTime;60;Sweep time
Modulation;0.2;Modulation
ModulationFreq;100;Modulation
BHoldEnabled;False;B hold enabled
BHold;0;B hold
MicrowavePower;2;Microwave power
MarkerEnabled;False;
MarkerStartField;0;
MarkerEndField;0;
Mode;;
KineticGFact;0;
KineticTotalTransientTime;0;
KineticTimeResolution;0;
TempFrom;5;
TempUseSlope;False;
TempTo;5;
TempdT;1;
TempSetupTime;0;
GonFrom;0;
GonTo;180;
GonSteps;20;
XRayEnabled;False;
XRayTime;3;
XRayVoltage;40;
XRayCurrent;0.5;
UVEnabled;False;
UVIntensity;0;
UVTime;0;
UVLeadTime;0;
UVWavelength;0;
PowSweepFrom;1;
PowSweepTo;5;
PowSweepSteps;5;
AmpModSweepFrom;0;
AmpModSweepTo;1;
AmpModSweepSteps;10;
ExtTriggerEnabled;False;
ExtTrigLeadTime;0;
ExtTrigOnTime;5;

Meas
BField [mT];MW_Absorption []
313.024327163696;83.2084082269588
313.045951375458;82.7069673248587
313.067575587219;82.218406530091
313.08919979898;81.750605024652
313.110824010742;81.3342691322839
313.132448222503;80.9584279076939
313.154072434264;80.6096883372017
313.175696646026;80.3027255769326
313.197320857787;80.041261534717
313.218945069548;79.8253809341551
313.24056928131;79.6530425301299
313.262193493071;79.5308164239934
313.283817704832;79.4589993674568
313.305441916594;79.4235735379111
313.327066128355;79.41602389576
313.348690340116;79.4381575470235
313.370314551878;79.4885417722123
313.391938763639;79.5581870560604
313.4135629754;79.6455562749063
313.435187187162;79.7530298957342
313.456811398923;79.8719997401752
313.478435610684;79.9876467298994
313.500059822446;80.0848441739062
313.521684034207;80.1564319247609
313.543308245968;80.2093899522088
313.56493245773;80.2441793362958
313.586556669491;80.2412990529547
313.608180881253;80.1854712348731
313.629805093014;80.0807960651553
313.651429304775;79.9366550915798
313.673053516537;79.7641059792111
313.694677728298;79.564700742725
313.716301940059;79.3435313614843
313.737926151821;79.1198686273479
313.759550363582;78.9085257431467
313.781174575343;78.7210044863078
313.802798787105;78.5664532501992
313.824422998866;78.447972864228
313.846047210627;78.3678450805216
313.867671422389;78.3363739733346
313.88929563415;78.3568169806481
313.910919845911;78.4176108336558
313.932544057673;78.5078766026563
313.954168269434;78.6263555063207
313.975792481195;78.7713424695357
313.997416692957;78.9304656336919
314.019040904718;79.0931144697666
314.040665116479;79.2545158306956
314.062289328241;79.4129082793854
314.083913540002;79.5519039534488
314.105537751763;79.6573523471747
314.127161963525;79.728427583342
314.148786175286;79.7650409847219
314.170410387047;79.7525022885896
314.192034598809;79.6838265337513
314.21365881057;79.5706238979911
314.235283022331;79.4193391125674
314.256907234093;79.225696367767
314.278531445854;78.9882124720423
314.300155657616;78.7300005676591
314.321779869377;78.4623913535265
314.343404081138;78.1886138036945
314.3650282929;77.9243057293183
314.386652504661;77.6807678845478
314.408276716422;77.4661753035342
314.429900928184;77.2975010836474
314.451525139945;77.1907574631542
314.473149351706;77.1639479970076
314.494773563468;77.2051865075739
314.516397775229;77.289457245851
314.53802198699;77.420174175049
314.559646198752;77.6068683799379
314.581270410513;77.8555885815781
314.602894622274;78.1593342419699
314.624518834036;78.4540842355227
314.646143045797;78.7191046129719
314.667767257558;78.9766115562466
314.68939146932;79.2495468405038
314.711015681081;79.528117577554
314.732639892842;79.7744342623841
314.754264104604;79.9897008977344
314.775888316365;80.1972942606754
314.797512528126;80.411025503511
314.819136739888;80.632844571551
314.840760951649;80.857572432384
314.86238516341;81.0881531358515
314.884009375172;81.333068627334
314.905633586933;81.5916925573687
314.927257798694;81.8477665491643
314.948882010456;82.0898378690293
314.970506222217;82.3234466282008
314.992130433978;82.5550849008533
315.01375464574;82.7788896933202
315.035378857501;82.9745319646236
315.057003069262;83.119357371801
315.078627281024;83.2087931155437
315.100251492785;83.234948475358
315.121875704546;83.193049466405
315.143499916308;83.0877150339346
315.165124128069;82.9287292700433
315.186748339831;82.7287601307051
315.208372551592;82.4901882858834
315.229996763353;82.2119108502543
315.251620975115;81.8956384127901
315.273245186876;81.5548672297646
315.294869398637;81.2038705669712
315.316493610399;80.8522914003094
315.33811782216;80.5083338748875
315.359742033921;80.1769327870801
315.381366245683;79.8626528250671
315.402990457444;79.5749037499207
315.424614669205;79.3227591062982
315.446238880967;79.1155572216318
315.467863092728;78.9669627196769
315.489487304489;78.8879646693147
315.511111516251;78.8698159730527
315.532735728012;78.9088834746086
315.554359939773;79.0079244788697
315.575984151535;79.1754745611638
315.597608363296;79.4184340173695
315.619232575057;79.7349680710119
315.640856786819;80.0960558769215
315.66248099858;80.4819770944813
315.684105210341;80.8788162721629
315.705729422103;81.2763467213241
315.727353633864;81.6599810603349
315.748977845625;82.0200335299548
315.770602057387;82.3458931605622
315.792226269148;82.6205205575734
315.813850480909;82.833185951102
315.835474692671;82.9786743504088
315.857098904432;83.0497045250137
315.878723116194;83.0486343910642
315.900347327955;82.9936998717382
315.921971539716;82.8950321187682
315.943595751478;82.7537424860971
315.965219963239;82.5718014129924
315.986844175;82.3598833276529
316.008468386762;82.1329737946694
316.030092598523;81.8985315924465
316.051716810284;81.6562928267269
316.073341022046;81.4008494938875
316.094965233807;81.1184921204398
316.116589445568;80.8152333797288
316.13821365733;80.5089446785914
316.159837869091;80.2027240262342
316.181462080852;79.8818814100109
316.203086292614;79.5436398895433
316.224710504375;79.2061729557585
316.246334716136;78.8787167549343
316.267958927898;78.5574621931115
316.289583139659;78.2346552273787
316.31120735142;77.8998063657247
316.332831563182;77.5282942116277
316.354455774943;77.1054998473562
316.376079986704;76.6454326896505
316.397704198466;76.1893265966302
316.419328410227;75.7474789764964
316.440952621988;75.3110900822198
316.46257683375;74.8800703289491
316.484201045511;74.4627362820257
316.505825257272;74.0632917033103
316.527449469034;73.6889311171089
316.549073680795;73.3635849408299
316.570697892556;73.1168988979517
316.592322104318;72.954432764978
316.613946316079;72.8604338933332
316.63557052784;72.8205833706065
316.657194739602;72.8413606783925
316.678818951363;72.9472080178764
316.700443163125;73.1444784932409
316.722067374886;73.3948766607043
316.743691586647;73.656640239051
316.765315798409;73.92116287294
316.78694001017;74.1896834528059
316.808564221931;74.4615411186606
316.830188433693;74.7339079576779
316.851812645454;75.0067490779863
316.873436857215;75.2778048872903
316.895061068977;75.5347285087497
316.916685280738;75.7572046520424
316.938309492499;75.9345900731244
316.959933704261;76.073505983867
316.981557916022;76.1714599712071
317.003182127783;76.2144249216146
317.024806339545;76.2018120999378
317.046430551306;76.1527140860712
317.068054763067;76.0785222102347
317.089678974829;75.9801648353888
317.11130318659;75.8639603573092
317.132927398351;75.7334938386785
317.154551610113;75.6014344814394
317.176175821874;75.4819604646345
317.197800033635;75.3815139491621
317.219424245397;75.2993008671675
317.241048457158;75.2365346137017
317.262672668919;75.1918784416457
317.284296880681;75.1660803937166
317.305921092442;75.1520525820712
317.327545304203;75.1377787352912
317.349169515965;75.0978230047048
317.370793727726;75.0113000562283
317.392417939487;74.9162666882934
317.414042151249;74.8161996937777
317.43566636301;74.6972366228935
317.457290574771;74.545487974787
317.478914786533;74.362170542209
317.500538998294;74.1636251685976
317.522163210056;73.9545734302098
317.543787421817;73.7421957645915
317.565411633578;73.5335609778773
317.58703584534;73.340382478147
317.608660057101;73.1642898086201
317.630284268862;73.0097611607133
317.651908480624;72.8827925578509
317.673532692385;72.7814893522873
317.695156904146;72.6963159062392
317.716781115908;72.6183757365219
317.738405327669;72.5582565129776
317.76002953943;72.5424007762506
317.781653751192;72.5695509978092
317.803277962953;72.6153106908095
317.824902174714;72.6790344706052
317.846526386476;72.7743678537531
317.868150598237;72.9061267503845
317.889774809998;73.0766935823271
317.91139902176;73.2866587536994
317.933023233521;73.5272561538477
317.954647445282;73.7879168333233
317.976271657044;74.0674838891522
317.997895868805;74.3581600505241
318.019520080566;74.6545799683611
318.041144292328;74.9556312501278
318.062768504089;75.2563562132756
318.08439271585;75.5486374926106
318.106016927612;75.8236391739155
318.127641139373;76.0818435198752
318.149265351134;76.3295754370404
318.170889562896;76.5612268756792
318.192513774657;76.762659599662
318.214137986419;76.9289097562703
318.23576219818;77.065543796676
318.257386409941;77.1735774851624
318.279010621703;77.2464849977267
318.300634833464;77.2766540997516
318.322259045225;77.2576983918758
318.343883256987;77.1861200252678
318.365507468748;77.0668097405296
318.387131680509;76.8988839975997
318.408755892271;76.6717448832814
318.430380104032;76.382762834496
318.452004315793;76.0436090235304
318.473628527555;75.6735044006468
318.495252739316;75.2778096364912
318.516876951077;74.8617343769416
318.538501162839;74.4414462457814
318.5601253746;74.0298795066625
318.581749586361;73.6377166831946
318.603373798123;73.2719723656927
318.624998009884;72.9347193186213
318.646622221645;72.6341252347646
318.668246433407;72.3696198105112
318.689870645168;72.1384621783771
318.711494856929;71.9697850833112
318.733119068691;71.878608725786
318.754743280452;71.8286777282878
318.776367492213;71.8056402622222
318.797991703975;71.8194065022897
318.819615915736;71.8758540409392
318.841240127497;71.9725006983778
318.862864339259;72.1044048158317
318.88448855102;72.2725207936936
318.906112762781;72.4738438922165
318.927736974543;72.7063519474528
318.949361186304;72.9737100302903
318.970985398065;73.2546524416217
318.992609609827;73.527881030801
319.014233821588;73.7997670796663
319.035858033349;74.0779995358483
319.057482245111;74.3553752666021
319.079106456872;74.6186717615042
319.100730668634;74.8620814519531
319.122354880395;75.0826684678183
319.143979092156;75.2807998066594
319.165603303918;75.4642955932653
319.187227515679;75.6367298337953
319.20885172744;75.7842999316817
319.230475939202;75.9044019924306
319.252100150963;75.9983130973468
319.273724362724;76.0650661704594
319.295348574486;76.1008751634334
319.316972786247;76.1033672941792
319.338596998008;76.0780151681515
319.36022120977;76.0307014042713
319.381845421531;75.9607327824791
319.403469633292;75.8699318868129
319.425093845054;75.759606567967
319.446718056815;75.6243970192245
319.468342268576;75.4657287420881
319.489966480338;75.2956474974911
319.511590692099;75.1164282546628
319.53321490386;74.9267485641737
319.554839115622;74.7260854875857
319.576463327383;74.5205907471454
319.598087539144;74.3196072998423
319.619711750906;74.1233057057459
319.641335962667;73.926518830198
319.662960174428;73.74144351206
319.68458438619;73.5918756011393
319.706208597951;73.4675992344343
319.727832809712;73.3502267120509
319.749457021474;73.2404529862507
319.771081233235;73.1424285300085
319.792705444997;73.0389710881399
319.814329656758;72.9069236221634
319.835953868519;72.7439658050901
319.857578080281;72.5480735491084
319.879202292042;72.3260468445905
319.900826503803;72.0892266755111
319.922450715565;71.8362144848813
319.944074927326;71.5716204045013
319.965699139087;71.3115692585999
319.987323350849;71.0741671132089
320.00894756261;70.8652392895406
320.030571774371;70.6877370772175
320.052195986133;70.5581369260219
320.073820197894;70.4937511091876
320.095444409655;70.4988973807637
320.117068621417;70.5711881393008
320.138692833178;70.6921600599118
320.160317044939;70.8400685134474
320.181941256701;71.0170646333455
320.203565468462;71.2286295586622
320.225189680223;71.4640119174344
320.246813891985;71.704235323306
320.268438103746;71.9415710381803
320.290062315507;72.1713434798034
320.311686527269;72.388132801398
320.33331073903;72.5934666185832
320.354934950791;72.7885328642987
320.376559162553;72.9603083321213
320.398183374314;73.1086894953568
320.419807586075;73.2347058090202
320.441431797837;73.3313119399171
320.463056009598;73.3926334356194
320.484680221359;73.4198614949364
320.506304433121;73.4217499178056
320.527928644882;73.4013672031996
320.549552856643;73.3509405173568
320.571177068405;73.2685918110935
320.592801280166;73.1589156395507
320.614425491928;73.0223147662655
320.636049703689;72.8663839611733
320.65767391545;72.7075334064183
320.679298127212;72.5549840863536
320.700922338973;72.4072014084212
320.722546550734;72.2669810826012
320.744170762496;72.148681123765
320.765794974257;72.0673451816864
320.787419186018;72.0333914656748
320.80904339778;72.0537301017028
320.830667609541;72.1392891817592
320.852291821302;72.2968820417295
320.873916033064;72.5223209421543
320.895540244825;72.8037191241577
320.917164456586;73.1330369687862
320.938788668348;73.4962432659365
320.960412880109;73.8720593721301
320.98203709187;74.2427757939394
321.003661303632;74.5997550370277
321.025285515393;74.9400940631915
321.046909727154;75.2484916139853
321.068533938916;75.5005759640639
321.090158150677;75.6813870766208
321.111782362438;75.7849408940418
321.1334065742;75.8038614411459
321.155030785961;75.7399183281475
321.176654997722;75.6057805662634
321.198279209484;75.409684514211
321.219903421245;75.1585582443397
321.241527633006;74.8569639938661
321.263151844768;74.5143499221685
321.284776056529;74.147836578287
321.30640026829;73.7698022350415
321.328024480052;73.3863090805842
321.349648691813;73.0022088294432
321.371272903574;72.618422577693
321.392897115336;72.2360439157469
321.414521327097;71.8561656584677
321.436145538859;71.476663646379
321.45776975062;71.0916776997784
321.479393962381;70.6925573989088
321.501018174143;70.2704606430925
321.522642385904;69.836514413877
321.544266597665;69.4132658941456
321.565890809427;68.9954382608889
321.587515021188;68.5643296671978
321.609139232949;68.1164581052032
321.630763444711;67.6751787478482
321.652387656472;67.2557511527732
321.674011868233;66.8553891595011
321.695636079995;66.4734760231569
321.717260291756;66.1145314303993
321.738884503517;65.7856936904676
321.760508715279;65.4891861374293
321.78213292704;65.2182029730787
321.803757138801;64.9520728031986
321.825381350563;64.676353104771
321.847005562324;64.4371349125652
321.868629774085;64.2523378811616
321.890253985847;64.085603267197
321.911878197608;63.922586008848
321.933502409369;63.7752094909112
321.955126621131;63.6585957801162
321.976750832892;63.5778599385449
321.998375044653;63.5366056961805
322.019999256415;63.528266519092
322.041623468176;63.548378521081
322.063247679937;63.6068098753125
322.084871891699;63.717876905267
322.10649610346;63.8845484915878
322.128120315222;64.0986153536042
322.149744526983;64.351353618934
322.171368738744;64.6297726622568
322.192992950506;64.9283741055096
322.214617162267;65.246643831808
322.236241374028;65.5727428905477
322.25786558579;65.884271847393
322.279489797551;66.1728847919492
322.301114009312;66.4386653528444
322.322738221074;66.6815440810186
322.344362432835;66.9004943321486
322.365986644596;67.0920649185339
322.387610856358;67.2524291573952
322.409235068119;67.3842702801508
322.43085927988;67.4923123217547
322.452483491642;67.577745650069
322.474107703403;67.6360469304935
322.495731915164;67.6594053034926
322.517356126926;67.6370024037878
322.538980338687;67.5574583659396
322.560604550448;67.4176837591382
322.58222876221;67.2123448264263
322.603852973971;66.9380930954238
322.625477185732;66.6022884665333
322.647101397494;66.2139272927242
322.668725609255;65.7844918039112
322.690349821016;65.3125081731615
322.711974032778;64.7988799634531
322.733598244539;64.2508294259236
322.7552224563;63.7070995359408
322.776846668062;63.2297643899275
322.798470879823;62.8319083968125
322.820095091584;62.4867694441554
322.841719303346;62.1942483371347
322.863343515107;61.9655044500525
322.884967726868;61.8101508002399
322.90659193863;61.7245216713633
322.928216150391;61.7008928799652
322.949840362152;61.7324507393888
322.971464573914;61.8085030920484
322.993088785675;61.9168571055356
323.014712997437;62.0391618861098
323.036337209198;62.1629825905971
323.057961420959;62.2841757813431
323.079585632721;62.4081937797524
323.101209844482;62.5169744270762
323.122834056243;62.5873897358635
323.144458268005;62.6115274773666
323.166082479766;62.5839269306472
323.187706691527;62.4902325745313
323.209330903289;62.3032583454485
323.23095511505;62.0288763479911
323.252579326811;61.6894682684431
323.274203538573;61.2984425783767
323.295827750334;60.843302974923
323.317451962095;60.3183828473669
323.339076173857;59.754780869252
323.360700385618;59.1736836159575
323.382324597379;58.5695491631057
323.403948809141;57.9423396467425
323.425573020902;57.318484064097
323.447197232663;56.7116229587348
323.468821444425;56.1116704938081
323.490445656186;55.5174634569221
323.512069867947;54.9542048623899
323.533694079709;54.4174367368425
323.55531829147;53.9064983187549
323.576942503231;53.4314032346488
323.598566714993;53.0040467882291
323.620190926754;52.6233481452167
323.641815138515;52.292634057957
323.663439350277;52.0083096657093
323.685063562038;51.7635284574094
323.7066877738;51.5676400192417
323.728311985561;51.4199167855409
323.749936197322;51.3058762990271
323.771560409084;51.2189299436803
323.793184620845;51.1558217877398
323.814808832606;51.1195142808846
323.836433044368;51.1099004889618
323.858057256129;51.1226561611991
323.87968146789;51.1371155691663
323.901305679652;51.1443988320266
323.922929891413;51.1547340372283
323.944554103174;51.1778131061267
323.966178314936;51.2120841340706
323.987802526697;51.265871636334
324.009426738458;51.3425836785665
324.03105095022;51.4432740942956
324.052675161981;51.5733035264613
324.074299373742;51.7407569435885
324.095923585504;51.9463966082883
324.117547797265;52.183827498871
324.139172009026;52.4462152423298
324.160796220788;52.7344617189813
324.182420432549;53.035447615495
324.20404464431;53.3322619722922
324.225668856072;53.6272312596798
324.247293067833;53.9086281110911
324.268917279594;54.158679303075
324.290541491356;54.3773129016401
324.312165703117;54.5648590787701
324.333789914878;54.7225928149909
324.35541412664;54.8480930068727
324.377038338401;54.9398700002815
324.398662550162;54.9925001631928
324.420286761924;55.0161843420493
324.441910973685;55.0258745742714
324.463535185446;55.0321427393076
324.485159397208;55.0394881748635
324.506783608969;55.0441959911473
324.52840782073;55.0487517075305
324.550032032492;55.0609383450059
324.571656244253;55.0924685650045
324.593280456015;55.1497124454912
324.614904667776;55.2331744851062
324.636528879537;55.3422969465604
324.658153091299;55.4680354119622
324.67977730306;55.6047410911204
324.701401514821;55.7513006609747
324.723025726583;55.8954930081212
324.744649938344;56.0241498142163
324.766274150105;56.1315005317571
324.787898361867;56.2089715399627
