Name;ESR_BC_1_3600s_Z_gon_140dg_result

Recipe
Accumulations;5;Number of accumulations
RetryCount;0;Number of retries on error
AbortOnError;True;Abort on error
EnableQFactorMeasurement;False;Enable/Disable q-Factor measurement
Bfrom;313;B from
Bto;363;B to
SweepTime;60;Sweep time
Modulation;0.2;Modulation
ModulationFreq;100;Modulation
BHoldEnabled;False;B hold enabled
BHold;0;B hold
MicrowavePower;2;Microwave power
MarkerEnabled;False;
MarkerStartField;0;
MarkerEndField;0;
Mode;;
KineticGFact;0;
KineticTotalTransientTime;0;
KineticTimeResolution;0;
TempFrom;5;
TempUseSlope;False;
TempTo;5;
TempdT;1;
TempSetupTime;0;
GonFrom;0;
GonTo;180;
GonSteps;20;
XRayEnabled;False;
XRayTime;3;
XRayVoltage;40;
XRayCurrent;0.5;
UVEnabled;False;
UVIntensity;0;
UVTime;0;
UVLeadTime;0;
UVWavelength;0;
PowSweepFrom;1;
PowSweepTo;5;
PowSweepSteps;5;
AmpModSweepFrom;0;
AmpModSweepTo;1;
AmpModSweepSteps;10;
ExtTriggerEnabled;False;
ExtTrigLeadTime;0;
ExtTrigOnTime;5;

Meas
BField [mT];MW_Absorption []
313.015375671387;78.9753706663122
313.036998174082;78.2850096298537
313.058620676778;77.7278490321463
313.080243179473;77.3101461468252
313.101865682169;77.0216509518045
313.123488184864;76.8544234338993
313.14511068756;76.8048803840791
313.166733190255;76.8751416466248
313.188355692951;77.0620418957411
313.209978195646;77.351228829008
313.231600698341;77.7226750956353
313.253223201037;78.1505373571929
313.274845703732;78.6127540491149
313.296468206428;79.1027667235968
313.318090709123;79.6121703033972
313.339713211819;80.1148254773208
313.361335714514;80.5768354802653
313.38295821721;81.000025437253
313.404580719905;81.3964295868632
313.426203222601;81.7737409316125
313.447825725296;82.135754912473
313.469448227992;82.4808726392071
313.491070730687;82.7940955628546
313.512693233383;83.05880256123
313.534315736078;83.2784313373079
313.555938238774;83.4594574166399
313.577560741469;83.6004151210976
313.599183244165;83.6947539735035
313.62080574686;83.739614794601
313.642428249556;83.7342136746601
313.664050752251;83.6839769629149
313.685673254946;83.5927369731873
313.707295757642;83.4491624742979
313.728918260337;83.2551628955699
313.750540763033;83.0181520810064
313.772163265728;82.7555380405992
313.793785768424;82.4884826327005
313.815408271119;82.2314973715127
313.837030773815;81.9961539169473
313.85865327651;81.7961536773037
313.880275779206;81.6366985485241
313.901898281901;81.5196154945132
313.923520784597;81.4516636548664
313.945143287292;81.4390902460449
313.966765789988;81.4843823338143
313.988388292683;81.5807128012567
314.010010795379;81.713311608536
314.031633298074;81.8711314447171
314.05325580077;82.0497031298066
314.074878303465;82.241727397546
314.096500806161;82.4234144053933
314.118123308856;82.5762771532225
314.139745811552;82.7031719584395
314.161368314247;82.7961035402571
314.182990816942;82.8616187380177
314.204613319638;82.9003700434318
314.226235822333;82.9094019418436
314.247858325029;82.8952900064798
314.269480827724;82.8620620844504
314.29110333042;82.8138034885993
314.312725833115;82.7625261898954
314.334348335811;82.7176618051296
314.355970838506;82.6847831642772
314.377593341202;82.6683510381041
314.399215843897;82.6694110367152
314.420838346593;82.6810726526237
314.442460849288;82.6989256515775
314.464083351984;82.7201501587241
314.485705854679;82.7407366989352
314.507328357375;82.7468858673811
314.52895086007;82.7302609413893
314.550573362766;82.693111828912
314.572195865461;82.6348046907225
314.593818368157;82.5446752004649
314.615440870852;82.4034951351781
314.637063373548;82.2138211118207
314.658685876243;81.9952375377313
314.680308378938;81.7659454308128
314.701930881634;81.5373649754246
314.723553384329;81.3193531249164
314.745175887025;81.1230053630553
314.76679838972;80.951498780836
314.788420892416;80.7986507091897
314.810043395111;80.6626295859299
314.831665897807;80.5516013612207
314.853288400502;80.4640200249149
314.874910903198;80.3865936339469
314.896533405893;80.3157737387983
314.918155908589;80.2478817497362
314.939778411284;80.1711850714281
314.96140091398;80.0672330572341
314.983023416675;79.920306749808
315.004645919371;79.7307150694884
315.026268422066;79.5018888776921
315.047890924762;79.234808323262
315.069513427457;78.929766539001
315.091135930153;78.6051527988731
315.112758432848;78.2839140065153
315.134380935544;77.9760556329654
315.156003438239;77.6875735327019
315.177625940934;77.4342329622771
315.19924844363;77.2274292473571
315.220870946325;77.0752330327468
315.242493449021;76.9841254975943
315.264115951716;76.9475930188475
315.285738454412;76.9553438640272
315.307360957107;77.0004621644344
315.328983459803;77.0822944696238
315.350605962498;77.1906944809114
315.372228465194;77.3224477084832
315.393850967889;77.4771239931594
315.415473470585;77.6527755997904
315.43709597328;77.8416358813248
315.458718475976;78.0470170745741
315.480340978671;78.2870596768712
315.501963481367;78.5533440321049
315.523585984062;78.8282911080606
315.545208486758;79.1218428225169
315.566830989453;79.4477314682448
315.588453492149;79.807538879582
315.610075994844;80.1804011419934
315.631698497539;80.5416362818354
315.653321000235;80.8831179701293
315.67494350293;81.1971237222348
315.696566005626;81.4641334790264
315.718188508321;81.6689840796987
315.739811011017;81.8097163353607
315.761433513712;81.8870759182414
315.783056016408;81.9006276225316
315.804678519103;81.8509157884239
315.826301021799;81.7411068873067
315.847923524494;81.5787322705017
315.86954602719;81.3760350714149
315.891168529885;81.1421607171714
315.912791032581;80.8790349937188
315.934413535276;80.5876039839653
315.956036037972;80.2937836990469
315.977658540667;80.0186660834568
315.999281043363;79.7626128197012
316.020903546058;79.520112972952
316.042526048754;79.2859123563081
316.064148551449;79.0618131330524
316.085771054145;78.8598704586029
316.10739355684;78.6890627721623
316.129016059535;78.5432904001548
316.150638562231;78.4208843062379
316.172261064926;78.3121909320863
316.193883567622;78.2036480206582
316.215506070317;78.0926284853859
316.237128573013;77.9832191234959
316.258751075708;77.8731435456461
316.280373578404;77.7573557549704
316.301996081099;77.6407462704224
316.323618583795;77.5291961122378
316.34524108649;77.42652331048
316.366863589186;77.3319413597484
316.388486091881;77.2411503777635
316.410108594577;77.1607264105502
316.431731097272;77.1001766702417
316.453353599968;77.0615863419052
316.474976102663;77.040865466161
316.496598605359;77.0364021206507
316.518221108054;77.0451272730234
316.53984361075;77.0574732655946
316.561466113445;77.0658259884929
316.58308861614;77.0719730249917
316.604711118836;77.0739479964196
316.626333621531;77.0601696641957
316.647956124227;77.019796120869
316.669578626922;76.9524488500794
316.691201129618;76.868043500288
316.712823632313;76.7710071856737
316.734446135009;76.6663229293261
316.756068637704;76.5586408580793
316.7776911404;76.4639629944178
316.799313643095;76.3912335845007
316.820936145791;76.348564022537
316.842558648486;76.3487743170709
316.864181151182;76.3917932757537
316.885803653877;76.4833187239743
316.907426156573;76.6220945865216
316.929048659268;76.7913925518456
316.950671161964;76.9724128011863
316.972293664659;77.1530560318937
316.993916167355;77.3200664456579
317.01553867005;77.4644296099001
317.037161172746;77.5792525239395
317.058783675441;77.656807130379
317.080406178136;77.6824092286069
317.102028680832;77.6436752729351
317.123651183527;77.5475360708065
317.145273686223;77.4001275807403
317.166896188918;77.2073358206319
317.188518691614;76.9841538879802
317.210141194309;76.7487585833281
317.231763697005;76.4830461786475
317.2533861997;76.1809174154167
317.275008702396;75.8530396771964
317.296631205091;75.5167069612199
317.318253707787;75.1878138710995
317.339876210482;74.8772083956411
317.361498713178;74.5882169875465
317.383121215873;74.3248754427018
317.404743718569;74.0867916756723
317.426366221264;73.8691144750314
317.44798872396;73.6666703783029
317.469611226655;73.4781735181648
317.491233729351;73.3023083049064
317.512856232046;73.1304965270045
317.534478734741;72.9532800438564
317.556101237437;72.7713738609476
317.577723740132;72.5904165224307
317.599346242828;72.4083334836337
317.620968745523;72.2207138577667
317.642591248219;72.0269926510717
317.664213750914;71.8386481504748
317.68583625361;71.6807319291711
317.707458756305;71.5746302062838
317.729081259001;71.5281009613416
317.750703761696;71.5438212826627
317.772326264392;71.6254259240821
317.793948767087;71.767936637419
317.815571269783;71.9617213268518
317.837193772478;72.1970866948512
317.858816275174;72.4662515557463
317.880438777869;72.7695779305304
317.902061280565;73.1153805063606
317.92368378326;73.4936563007149
317.945306285956;73.8770468920099
317.966928788651;74.2418666178205
317.988551291346;74.5757400023031
318.010173794042;74.8733692405024
318.031796296737;75.1289881791119
318.053418799433;75.3378149947396
318.075041302128;75.5037330038586
318.096663804824;75.6293446372274
318.118286307519;75.7150665609617
318.139908810215;75.7630426480697
318.16153131291;75.7757197821802
318.183153815606;75.7557492718028
318.204776318301;75.7050825671866
318.226398820997;75.6293735729868
318.248021323692;75.532730545982
318.269643826388;75.4116746760632
318.291266329083;75.2687598394018
318.312888831779;75.1084569827591
318.334511334474;74.9321395463508
318.35613383717;74.7363380459007
318.377756339865;74.5204237957747
318.399378842561;74.2870129772287
318.421001345256;74.0425889235165
318.442623847952;73.7833348094587
318.464246350647;73.4981938630897
318.485868853342;73.1744448449304
318.507491356038;72.8160157403471
318.529113858733;72.4407659142449
318.550736361429;72.0580622383483
318.572358864124;71.6824816783486
318.59398136682;71.3255070132119
318.615603869515;70.986637668728
318.637226372211;70.6527534753912
318.658848874906;70.3196496662245
318.680471377602;70.0066260882116
318.702093880297;69.749758962153
318.723716382993;69.5460519294281
318.745338885688;69.3814882657374
318.766961388384;69.2531004182445
318.788583891079;69.1590162680059
318.810206393775;69.0969306409363
318.83182889647;69.0666854694976
318.853451399166;69.0600686552574
318.875073901861;69.0626706190966
318.896696404557;69.0644241767683
318.918318907252;69.0520023086314
318.939941409947;69.0186658768052
318.961563912643;68.969677078142
318.983186415338;68.9017984693949
319.004808918034;68.8171676359522
319.026431420729;68.7173181852249
319.048053923425;68.5936751211537
319.06967642612;68.4459394687387
319.091298928816;68.2857278839612
319.112921431511;68.1271010392316
319.134543934207;67.9778959653735
319.156166436902;67.8429638601711
319.177788939598;67.734265170138
319.199411442293;67.6516520440644
319.221033944989;67.5851878692783
319.242656447684;67.5324605273716
319.26427895038;67.4915380529625
319.285901453075;67.4496692884031
319.307523955771;67.389810514374
319.329146458466;67.3016760460813
319.350768961162;67.1970206860629
319.372391463857;67.0862357446747
319.394013966553;66.9747050334411
319.415636469248;66.8705610999548
319.437258971943;66.7945264069701
319.458881474639;66.7655888055512
319.480503977334;66.773039918066
319.50212648003;66.8082527635662
319.523748982725;66.8793377354502
319.545371485421;66.9962128254254
319.566993988116;67.1545896931831
319.588616490812;67.3406306496411
319.610238993507;67.5413654713439
319.631861496203;67.7387259943496
319.653483998898;67.9180198212927
319.675106501594;68.077491019666
319.696729004289;68.2140759949945
319.718351506985;68.3142817290522
319.73997400968;68.3710766175561
319.761596512376;68.3889163894657
319.783219015071;68.3770128135991
319.804841517767;68.3463067816704
319.826464020462;68.3044052467061
319.848086523158;68.2466549530142
319.869709025853;68.1642175288882
319.891331528549;68.0561197196426
319.912954031244;67.9210207463427
319.934576533939;67.7686812202124
319.956199036635;67.6117412445552
319.97782153933;67.4487548298631
319.999444042026;67.2718043146338
320.021066544721;67.0778668453769
320.042689047417;66.8672991027937
320.064311550112;66.6397096434475
320.085934052808;66.3985654982541
320.107556555503;66.1522982705276
320.129179058199;65.9037557554045
320.150801560894;65.6510038724087
320.17242406359;65.391660123772
320.194046566285;65.1236549228059
320.215669068981;64.8445945323268
320.237291571676;64.5511906015013
320.258914074372;64.2424913636246
320.280536577067;63.9274494810503
320.302159079763;63.6252836462697
320.323781582458;63.3478407073
320.345404085154;63.0895219361217
320.367026587849;62.8449400509692
320.388649090545;62.6266739276198
320.41027159324;62.4531080590412
320.431894095935;62.3372769495016
320.453516598631;62.2816064335725
320.475139101326;62.2740725215633
320.496761604022;62.3072327181613
320.518384106717;62.3788194917595
320.540006609413;62.4888432276037
320.561629112108;62.640038669245
320.583251614804;62.8440041574249
320.604874117499;63.0999846692319
320.626496620195;63.3890688471381
320.64811912289;63.7101011011919
320.669741625586;64.0750101169279
320.691364128281;64.4811935549749
320.712986630977;64.9052819611977
320.734609133672;65.3317098593938
320.756231636368;65.7592249878744
320.777854139063;66.1808469808615
320.799476641759;66.5851963865111
320.821099144454;66.9789001044215
320.84272164715;67.369178287267
320.864344149845;67.7355828900107
320.88596665254;68.0465147597644
320.907589155236;68.3131717228478
320.929211657931;68.5503130297917
320.950834160627;68.7687333284257
320.972456663322;68.9570923188648
320.994079166018;69.0933807934758
321.015701668713;69.1795498192858
321.037324171409;69.2282432176326
321.058946674104;69.2446081771002
321.0805691768;69.2249065973677
321.102191679495;69.1605312669786
321.123814182191;69.0431923636631
321.145436684886;68.8670404860473
321.167059187582;68.618780917427
321.188681690277;68.2941816935265
321.210304192973;67.9212378163597
321.231926695668;67.5195722502769
321.253549198364;67.0937316821925
321.275171701059;66.6443369198974
321.296794203755;66.166357038232
321.31841670645;65.6559114261945
321.340039209145;65.1553276129938
321.361661711841;64.6825210328971
321.383284214536;64.2474586357977
321.404906717232;63.8447564103326
321.426529219927;63.4587456424119
321.448151722623;63.0817821732738
321.469774225318;62.720531756971
321.491396728014;62.3870413635143
321.513019230709;62.0753558161633
321.534641733405;61.7778535124776
321.5562642361;61.4961512266051
321.577886738796;61.2405177210022
321.599509241491;61.0150420837822
321.621131744187;60.8141507612449
321.642754246882;60.6317519023776
321.664376749578;60.4630910713233
321.685999252273;60.3060198565802
321.707621754969;60.1586649673855
321.729244257664;60.0150547778053
321.75086676036;59.8693884625301
321.772489263055;59.7194595173502
321.794111765751;59.553136081662
321.815734268446;59.3614106938389
321.837356771141;59.1460609692526
321.858979273837;58.905516191842
321.880601776532;58.64560446482
321.902224279228;58.3824794392738
321.923846781923;58.1255553785167
321.945469284619;57.8749153166739
321.967091787314;57.6137180415867
321.98871429001;57.3282465566382
322.010336792705;57.0420793895218
322.031959295401;56.7962333558678
322.053581798096;56.5864036640422
322.075204300792;56.3900262866656
322.096826803487;56.1910412983258
322.118449306183;55.9937723349176
322.140071808878;55.8201607769573
322.161694311574;55.6824575697337
322.183316814269;55.5714916774635
322.204939316965;55.477556286716
322.22656181966;55.3982112422151
322.248184322356;55.341191873285
322.269806825051;55.3094671286994
322.291429327746;55.291257552084
322.313051830442;55.2769996578287
322.334674333137;55.2592313851214
322.356296835833;55.2350308100058
322.377919338528;55.2014875950015
322.399541841224;55.1456147520827
322.421164343919;55.0600039819989
322.442786846615;54.9379104939828
322.46440934931;54.761184287058
322.486031852006;54.5268421738378
322.507654354701;54.2542930990522
322.529276857397;53.9505631198607
322.550899360092;53.6112428385365
322.572521862788;53.2377720680702
322.594144365483;52.8318858793513
322.615766868179;52.3948617509141
322.637389370874;51.9436515374788
322.65901187357;51.5012873252532
322.680634376265;51.0751448931757
322.702256878961;50.6783517631119
322.723879381656;50.3331700298673
322.745501884351;50.0486603476201
322.767124387047;49.8289605177161
322.788746889742;49.6785152748193
322.810369392438;49.5997139457283
322.831991895133;49.5943721113097
322.853614397829;49.6620077725659
322.875236900524;49.8202653402608
322.89685940322;50.0457455751493
322.918481905915;50.3037224790019
322.940104408611;50.5865065607277
322.961726911306;50.8933045021863
322.983349414002;51.2176392103189
323.004971916697;51.5542489847983
323.026594419393;51.8887772383341
323.048216922088;52.2175288614091
323.069839424784;52.5380227799604
323.091461927479;52.8332381923803
323.113084430175;53.0895992117916
323.13470693287;53.311267650377
323.156329435566;53.4994212060001
323.177951938261;53.6474193786188
323.199574440957;53.7471031290589
323.221196943652;53.798840183741
323.242819446347;53.8034267062812
323.264441949043;53.7579502767325
323.286064451738;53.6743957916371
323.307686954434;53.5631333804862
323.329309457129;53.4279432347369
323.350931959825;53.2773930589448
323.37255446252;53.1188020726006
323.394176965216;52.9572011429829
323.415799467911;52.8068653360618
323.437421970607;52.6716863661225
323.459044473302;52.5398896416601
323.480666975998;52.4003544733059
323.502289478693;52.2492877941096
323.523911981389;52.0835773632245
323.545534484084;51.9016284468205
323.56715698678;51.707682433903
323.588779489475;51.5047490493934
323.610401992171;51.291417420212
323.632024494866;51.0653255952703
323.653646997562;50.8339593657958
323.675269500257;50.6073863287891
323.696892002953;50.3888396325927
323.718514505648;50.1789240358158
323.740137008343;49.983388819
323.761759511039;49.8068721729732
323.783382013734;49.6470643245477
323.80500451643;49.5015214466852
323.826627019125;49.3690792627772
323.848249521821;49.2415072752181
323.869872024516;49.1175134860713
323.891494527212;48.9907550521311
323.913117029907;48.8438287630082
323.934739532603;48.6606046679554
323.956362035298;48.455182697534
323.977984537994;48.2373864889581
323.999607040689;48.0041216818728
324.021229543385;47.7665311351238
324.04285204608;47.5259956202535
324.064474548776;47.269458482718
324.086097051471;47.0043422743745
324.107719554167;46.7443491925965
324.129342056862;46.4955626505889
324.150964559558;46.2708342710672
324.172587062253;46.0738314674934
324.194209564948;45.9082292541795
324.215832067644;45.7778111319419
324.237454570339;45.675906651519
324.259077073035;45.5961351702509
324.28069957573;45.5364517165393
324.302322078426;45.4949434446497
324.323944581121;45.4686952555163
324.345567083817;45.4591994497754
324.367189586512;45.4729665094468
324.388812089208;45.5147876408076
324.410434591903;45.577894046955
324.432057094599;45.6503986059396
324.453679597294;45.7429184320247
324.47530209999;45.8662329155108
324.496924602685;46.0065177111783
324.518547105381;46.1513716918075
324.540169608076;46.2976301626933
324.561792110772;46.4444357611727
324.583414613467;46.5866308654932
324.605037116163;46.7133722730915
324.626659618858;46.8169278091444
324.648282121554;46.8940243004785
324.669904624249;46.9420994775967
324.691527126944;46.9674130651659
324.71314962964;46.9765494439967
324.734772132335;46.9748335598877
324.756394635031;46.9659743954365
