Name;ESR_BC_1_29min_Y_gon_120dg_result

Recipe
Accumulations;5;Number of accumulations
RetryCount;0;Number of retries on error
AbortOnError;True;Abort on error
EnableQFactorMeasurement;False;Enable/Disable q-Factor measurement
Bfrom;313;B from
Bto;363;B to
SweepTime;60;Sweep time
Modulation;0.2;Modulation
ModulationFreq;100;Modulation
BHoldEnabled;False;B hold enabled
BHold;0;B hold
MicrowavePower;2;Microwave power
MarkerEnabled;False;
MarkerStartField;0;
MarkerEndField;0;
Mode;;
KineticGFact;0;
KineticTotalTransientTime;0;
KineticTimeResolution;0;
TempFrom;5;
TempUseSlope;False;
TempTo;5;
TempdT;1;
TempSetupTime;0;
GonFrom;0;
GonTo;180;
GonSteps;20;
XRayEnabled;False;
XRayTime;3;
XRayVoltage;40;
XRayCurrent;0.5;
UVEnabled;False;
UVIntensity;0;
UVTime;0;
UVLeadTime;0;
UVWavelength;0;
PowSweepFrom;1;
PowSweepTo;5;
PowSweepSteps;5;
AmpModSweepFrom;0;
AmpModSweepTo;1;
AmpModSweepSteps;10;
ExtTriggerEnabled;False;
ExtTrigLeadTime;0;
ExtTrigOnTime;5;

Meas
BField [mT];MW_Absorption []
313.021661148071;162.969464656213
313.043287223254;162.49692390966
313.064913298438;161.918570624145
313.086539373621;161.224072138289
313.108165448804;160.423960723466
313.129791523987;159.54173617987
313.15141759917;158.602937914593
313.173043674353;157.649974268986
313.194669749537;156.710190605322
313.21629582472;155.7692105152
313.237921899903;154.803369378521
313.259547975086;153.857482910503
313.281174050269;153.020572004174
313.302800125452;152.34229635394
313.324426200636;151.803540125071
313.346052275819;151.364510430101
313.367678351002;151.030884787657
313.389304426185;150.816090252341
313.410930501368;150.710879035767
313.432556576551;150.71231167275
313.454182651734;150.826610533506
313.475808726918;151.037688481582
313.497434802101;151.318545817646
313.519060877284;151.658149390367
313.540686952467;152.044647557346
313.56231302765;152.474158153099
313.583939102833;152.903228923027
313.605565178017;153.309173718846
313.6271912532;153.688580847724
313.648817328383;154.048656679473
313.670443403566;154.379730921383
313.692069478749;154.666671142496
313.713695553932;154.90423228011
313.735321629116;155.065314343364
313.756947704299;155.15457576538
313.778573779482;155.19980582013
313.800199854665;155.217420674828
313.821825929848;155.197609666846
313.843452005031;155.151327858177
313.865078080214;155.072661835782
313.886704155398;154.938146354783
313.908330230581;154.750133599469
313.929956305764;154.533649481441
313.951582380947;154.301912702749
313.97320845613;154.054534472969
313.994834531313;153.786562763426
314.016460606497;153.501672403598
314.03808668168;153.219029764754
314.059712756863;152.953030211717
314.081338832046;152.711845275946
314.102964907229;152.498364950351
314.124590982412;152.315838476399
314.146217057596;152.167191401949
314.167843132779;152.04736167941
314.189469207962;151.96147646085
314.211095283145;151.914793580761
314.232721358328;151.894387731457
314.254347433511;151.885180342985
314.275973508695;151.882552032916
314.297599583878;151.878950716389
314.319225659061;151.863447251779
314.340851734244;151.829550832242
314.362477809427;151.782630393201
314.38410388461;151.72518879924
314.405729959793;151.654628832993
314.427356034977;151.57047560613
314.44898211016;151.484379725989
314.470608185343;151.409128668243
314.492234260526;151.349678381267
314.513860335709;151.309599618649
314.535486410892;151.27501399388
314.557112486076;151.245036705004
314.578738561259;151.239047178483
314.600364636442;151.266037164194
314.621990711625;151.329906184601
314.643616786808;151.419664826247
314.665242861991;151.518687939802
314.686868937174;151.620298188246
314.708495012358;151.718035143443
314.730121087541;151.804145605774
314.751747162724;151.869880143712
314.773373237907;151.905734256052
314.79499931309;151.905634101102
314.816625388273;151.868746770547
314.838251463457;151.791613345003
314.85987753864;151.665584402407
314.881503613823;151.484465110282
314.903129689006;151.251175387393
314.924755764189;150.965760437309
314.946381839372;150.631859615251
314.968007914556;150.264198196006
314.989633989739;149.869131691085
315.011260064922;149.448711633027
315.032886140105;149.009071119092
315.054512215288;148.547895861372
315.076138290471;148.066788097289
315.097764365654;147.583393940465
315.119390440838;147.114070729172
315.141016516021;146.662823824129
315.162642591204;146.224191372944
315.184268666387;145.79477920003
315.20589474157;145.382991186959
315.227520816753;145.003866732207
315.249146891937;144.672876688914
315.27077296712;144.39514953707
315.292399042303;144.170551950444
315.314025117486;143.998934977919
315.335651192669;143.888222189172
315.357277267852;143.847686488619
315.378903343036;143.883178012648
315.400529418219;143.987025691767
315.422155493402;144.139649021594
315.443781568585;144.320509939894
315.465407643768;144.517366120715
315.487033718951;144.725535763639
315.508659794135;144.937368772024
315.530285869318;145.140144899336
315.551911944501;145.326458059347
315.573538019684;145.493931220092
315.595164094867;145.630562978845
315.61679017005;145.731413046765
315.638416245233;145.811394574275
315.660042320417;145.88303613435
315.6816683956;145.944659673568
315.703294470783;145.995749500929
315.724920545966;146.03654847241
315.746546621149;146.064523299226
315.768172696332;146.08107761817
315.789798771516;146.084026041112
315.811424846699;146.069999747733
315.833050921882;146.039914650471
315.854676997065;145.996633958963
315.876303072248;145.936565273823
315.897929147431;145.85963543345
315.919555222615;145.767752469215
315.941181297798;145.658117122295
315.962807372981;145.526428938279
315.984433448164;145.375574316296
316.006059523347;145.207726053364
316.02768559853;145.022634281884
316.049311673713;144.825723105345
316.070937748897;144.620346113537
316.09256382408;144.401472546326
316.114189899263;144.161368851382
316.135815974446;143.900461348186
316.157442049629;143.62584031917
316.179068124812;143.338425264978
316.200694199996;143.036404154346
316.222320275179;142.720027905571
316.243946350362;142.387688794467
316.265572425545;142.034764908321
316.287198500728;141.6637754175
316.308824575911;141.294688009257
316.330450651095;140.941098373573
316.352076726278;140.612856338415
316.373702801461;140.308783061246
316.395328876644;140.014483467969
316.416954951827;139.716564508105
316.43858102701;139.417814268678
316.460207102193;139.131371274459
316.481833177377;138.85815765883
316.50345925256;138.601464164951
316.525085327743;138.361846953211
316.546711402926;138.130467059279
316.568337478109;137.9009776949
316.589963553292;137.673804048498
316.611589628476;137.438285612104
316.633215703659;137.186814768217
316.654841778842;136.914673331624
316.676467854025;136.616086152048
316.698093929208;136.287518693544
316.719720004391;135.934604044112
316.741346079575;135.574442802327
316.762972154758;135.210508503315
316.784598229941;134.826772700565
316.806224305124;134.424571843584
316.827850380307;134.02489784443
316.84947645549;133.641116008362
316.871102530674;133.296169937918
316.892728605857;132.988452458839
316.91435468104;132.708469218829
316.935980756223;132.45361851045
316.957606831406;132.241367557936
316.979232906589;132.079536234665
317.000858981772;131.951841258451
317.022485056956;131.838102024634
317.044111132139;131.731839139326
317.065737207322;131.62790841192
317.087363282505;131.525144253816
317.108989357688;131.423666580062
317.130615432871;131.31024534401
317.152241508055;131.181658033151
317.173867583238;131.051258884658
317.195493658421;130.924459654885
317.217119733604;130.798670967987
317.238745808787;130.678617685485
317.26037188397;130.576738362815
317.281997959154;130.498362370124
317.303624034337;130.443821679622
317.32525010952;130.409188916592
317.346876184703;130.398053602157
317.368502259886;130.410985201127
317.390128335069;130.45551960172
317.411754410252;130.531315229646
317.433380485436;130.632145590584
317.455006560619;130.763634349771
317.476632635802;130.931236106734
317.498258710985;131.136158516801
317.519884786168;131.373643168497
317.541510861351;131.630505743688
317.563136936535;131.890088875191
317.584763011718;132.135991260705
317.606389086901;132.353324550692
317.628015162084;132.528016615994
317.649641237267;132.652723451678
317.67126731245;132.72710299272
317.692893387633;132.742531517202
317.714519462817;132.6923849092
317.736145538;132.581644693775
317.757771613183;132.41515814564
317.779397688366;132.203953404788
317.801023763549;131.970456094853
317.822649838732;131.730400527184
317.844275913916;131.488816878558
317.865901989099;131.252915780725
317.887528064282;131.033593716074
317.909154139465;130.84415604322
317.930780214648;130.694466856747
317.952406289831;130.584522937228
317.974032365015;130.51702222327
317.995658440198;130.499355366179
318.017284515381;130.527746853168
318.038910590564;130.592006761979
318.060536665747;130.689781431371
318.08216274093;130.820791406646
318.103788816113;130.986433571516
318.125414891297;131.183133936222
318.14704096648;131.396338326026
318.168667041663;131.607022605936
318.190293116846;131.80813213369
318.211919192029;132.006526894894
318.233545267212;132.205348428764
318.255171342396;132.399164921064
318.276797417579;132.5869052078
318.298423492762;132.766821020734
318.320049567945;132.939327080928
318.341675643128;133.112555109739
318.363301718311;133.282209007996
318.384927793495;133.432875004246
318.406553868678;133.557563463375
318.428179943861;133.658254435
318.449806019044;133.731382224036
318.471432094227;133.770071058466
318.49305816941;133.766032194236
318.514684244594;133.72380305306
318.536310319777;133.647229226532
318.55793639496;133.539265327534
318.579562470143;133.406957509477
318.601188545326;133.250412803249
318.622814620509;133.06187577348
318.644440695692;132.842100475063
318.666066770876;132.60191290451
318.687692846059;132.344971680534
318.709318921242;132.062612635825
318.730944996425;131.746436375732
318.752571071608;131.421782656882
318.774197146791;131.089020942015
318.795823221975;130.732515924293
318.817449297158;130.342834233696
318.839075372341;129.924622170123
318.860701447524;129.496672828295
318.882327522707;129.09820575863
318.90395359789;128.749955869703
318.925579673074;128.443770135792
318.947205748257;128.165957922635
318.96883182344;127.936742026574
318.990457898623;127.768842601882
319.012083973806;127.658675996941
319.033710048989;127.601420616227
319.055336124172;127.590706697025
319.076962199356;127.628459989813
319.098588274539;127.710812781063
319.120214349722;127.822809908033
319.141840424905;127.948468636126
319.163466500088;128.073148927869
319.185092575271;128.188401488218
319.206718650455;128.289043144818
319.228344725638;128.373250345768
319.249970800821;128.436834003254
319.271596876004;128.467832844685
319.293222951187;128.472527780424
319.31484902637;128.460789253021
319.336475101554;128.442216161637
319.358101176737;128.419416005959
319.37972725192;128.395369498933
319.401353327103;128.370301714731
319.422979402286;128.334799377012
319.444605477469;128.28645988413
319.466231552652;128.229951011807
319.487857627836;128.166738302738
319.509483703019;128.089568113228
319.531109778202;127.983813431894
319.552735853385;127.841822648953
319.574361928568;127.657915773875
319.595988003751;127.427874999987
319.617614078935;127.153793858787
319.639240154118;126.833846978393
319.660866229301;126.459850044743
319.682492304484;126.033166474038
319.704118379667;125.566615369698
319.72574445485;125.075453717387
319.747370530034;124.56273223297
319.768996605217;124.021347998193
319.7906226804;123.460501384829
319.812248755583;122.910780651608
319.833874830766;122.402209434512
319.855500905949;121.94882677812
319.877126981133;121.545287597768
319.898753056316;121.193304158304
319.920379131499;120.902513305708
319.942005206682;120.684054103296
319.963631281865;120.543382419049
319.985257357048;120.480665198508
320.006883432231;120.491027262411
320.028509507415;120.562585896423
320.050135582598;120.688498358593
320.071761657781;120.868042205719
320.093387732964;121.087027127317
320.115013808147;121.31776275361
320.13663988333;121.555635400501
320.158265958514;121.810562436413
320.179892033697;122.08541668321
320.20151810888;122.373469361041
320.223144184063;122.658235987556
320.244770259246;122.920715583745
320.266396334429;123.163117604602
320.288022409612;123.397299472571
320.309648484796;123.625348200066
320.331274559979;123.847607574507
320.352900635162;124.062032987747
320.374526710345;124.264110868658
320.396152785528;124.458540004933
320.417778860711;124.653855962263
320.439404935895;124.859021170721
320.461031011078;125.077786436648
320.482657086261;125.308640724834
320.504283161444;125.545621338233
320.525909236627;125.778409669717
320.54753531181;126.004943049274
320.569161386994;126.239836228104
320.590787462177;126.478490512158
320.61241353736;126.679920194547
320.634039612543;126.829684841677
320.655665687726;126.945846172029
320.677291762909;127.039121457373
320.698917838092;127.10766674211
320.720543913276;127.145372438028
320.742169988459;127.144981647374
320.763796063642;127.110957417626
320.785422138825;127.067297759174
320.807048214008;127.019164950673
320.828674289191;126.960094508191
320.850300364375;126.886102268484
320.871926439558;126.790609452377
320.893552514741;126.666745268143
320.915178589924;126.523600943379
320.936804665107;126.373490550205
320.95843074029;126.212612584726
320.980056815474;126.040323942521
321.001682890657;125.870778621131
321.02330896584;125.712310596719
321.044935041023;125.571306171777
321.066561116206;125.467858050124
321.088187191389;125.410787692143
321.109813266573;125.408583192693
321.131439341756;125.476159352102
321.153065416939;125.614278814945
321.174691492122;125.807998018907
321.196317567305;126.048725634819
321.217943642488;126.336674203996
321.239569717671;126.67390701682
321.261195792855;127.038042009526
321.282821868038;127.383766666802
321.304447943221;127.681699369303
321.326074018404;127.921676805959
321.347700093587;128.096871020599
321.36932616877;128.19203627557
321.390952243954;128.184942384719
321.412578319137;128.06244196736
321.43420439432;127.833227931758
321.455830469503;127.520295408942
321.477456544686;127.146508634919
321.499082619869;126.721452284359
321.520708695053;126.26263125017
321.542334770236;125.78505121862
321.563960845419;125.289528361806
321.585586920602;124.795644114581
321.607212995785;124.319455289537
321.628839070968;123.857764657123
321.650465146151;123.412292634783
321.672091221335;123.013373020237
321.693717296518;122.672412392402
321.715343371701;122.376599946201
321.736969446884;122.117673327218
321.758595522067;121.8821460417
321.78022159725;121.660776809261
321.801847672434;121.449521819274
321.823473747617;121.246491896221
321.8450998228;121.044413478275
321.866725897983;120.832444801248
321.888351973166;120.596537099905
321.909978048349;120.337835961522
321.931604123533;120.061140876861
321.953230198716;119.75624398575
321.974856273899;119.422358178161
321.996482349082;119.084016764646
322.018108424265;118.741390796177
322.039734499448;118.387318409066
322.061360574631;118.020057804255
322.082986649815;117.649458771235
322.104612724998;117.289575602159
322.126238800181;116.956551321968
322.147864875364;116.665017857026
322.169490950547;116.430587774354
322.19111702573;116.25529268064
322.212743100914;116.137830872818
322.234369176097;116.084794471573
322.25599525128;116.103015231177
322.277621326463;116.211376316962
322.299247401646;116.379098993623
322.320873476829;116.571809537924
322.342499552013;116.790226724633
322.364125627196;117.037012509283
322.385751702379;117.29134432951
322.407377777562;117.536253811451
322.429003852745;117.777330373756
322.450629927928;118.013952344136
322.472256003112;118.235026526441
322.493882078295;118.432299655283
322.515508153478;118.603712720013
322.537134228661;118.745629945967
322.558760303844;118.845264696166
322.580386379027;118.894437307275
322.60201245421;118.89174555629
322.623638529394;118.838063721933
322.645264604577;118.727761025412
322.66689067976;118.572600780536
322.688516754943;118.375949136205
322.710142830126;118.13014370581
322.731768905309;117.844344807291
322.753394980493;117.547385681438
322.775021055676;117.25172843306
322.796647130859;116.955074214309
322.818273206042;116.662343258323
322.839899281225;116.376694687728
322.861525356408;116.09583924874
322.883151431592;115.826233611538
322.904777506775;115.568169356053
322.926403581958;115.309325063637
322.948029657141;115.054474578643
322.969655732324;114.82283069812
322.991281807507;114.613473213305
323.01290788269;114.409827041224
323.034533957874;114.198131417513
323.056160033057;113.964788963162
323.07778610824;113.70257292759
323.099412183423;113.422989329891
323.121038258606;113.149038329869
323.142664333789;112.884531667016
323.164290408973;112.617842141
323.185916484156;112.328661957541
323.207542559339;112.02017773574
323.229168634522;111.702362711145
323.250794709705;111.378470794879
323.272420784888;111.059316742162
323.294046860071;110.751256940349
323.315672935255;110.439963462931
323.337299010438;110.1116355195
323.358925085621;109.770387804285
323.380551160804;109.433240308105
323.402177235987;109.112308203973
323.42380331117;108.801684794858
323.445429386354;108.493307838144
323.467055461537;108.189653441006
323.48868153672;107.890297455172
323.510307611903;107.590445650337
323.531933687086;107.291395328146
323.553559762269;106.990755330103
323.575185837453;106.684840164858
323.596811912636;106.362221576189
323.618437987819;106.013362620195
323.640064063002;105.645265200822
323.661690138185;105.275592032678
323.683316213368;104.914256131723
323.704942288552;104.549960439961
323.726568363735;104.184774959031
323.748194438918;103.831757574206
323.769820514101;103.49642248435
323.791446589284;103.179885627365
323.813072664467;102.887904537725
323.83469873965;102.632995349691
323.856324814834;102.424939028641
323.877950890017;102.262529216949
323.8995769652;102.142952485966
323.921203040383;102.067179841611
323.942829115566;102.04091780762
323.964455190749;102.058534266003
323.986081265933;102.112232472177
324.007707341116;102.199787774551
324.029333416299;102.319969750577
324.050959491482;102.454380016989
324.072585566665;102.575501023305
324.094211641848;102.676154519261
324.115837717032;102.753810061406
324.137463792215;102.806978357711
324.159089867398;102.837488600871
324.180715942581;102.847216597177
324.202342017764;102.833393623534
324.223968092947;102.786597366404
324.24559416813;102.702006637448
324.267220243314;102.589072242103
324.288846318497;102.459592037238
324.31047239368;102.326502658378
324.332098468863;102.206347852971
324.353724544046;102.097761193693
324.375350619229;102.004065276722
324.396976694413;101.928264398406
324.418602769596;101.863141097441
324.440228844779;101.801046248322
324.461854919962;101.742009827049
324.483480995145;101.684177867852
324.505107070328;101.618016335169
324.526733145512;101.535187645951
324.548359220695;101.431041907678
324.569985295878;101.305765872293
324.591611371061;101.15983641734
324.613237446244;100.993945194266
324.634863521427;100.804189349611
324.65648959661;100.58760289687
324.678115671794;100.357322590045
324.699741746977;100.146415422348
324.72136782216;99.9680621590204
324.742993897343;99.8152152209805
324.764619972526;99.6752876245809
324.786246047709;99.5431948517716
