Name;ESR_BC_1_3600s_Z_gon_180dg_result

Recipe
Accumulations;5;Number of accumulations
RetryCount;0;Number of retries on error
AbortOnError;True;Abort on error
EnableQFactorMeasurement;False;Enable/Disable q-Factor measurement
Bfrom;313;B from
Bto;363;B to
SweepTime;60;Sweep time
Modulation;0.2;Modulation
ModulationFreq;100;Modulation
BHoldEnabled;False;B hold enabled
BHold;0;B hold
MicrowavePower;2;Microwave power
MarkerEnabled;False;
MarkerStartField;0;
MarkerEndField;0;
Mode;;
KineticGFact;0;
KineticTotalTransientTime;0;
KineticTimeResolution;0;
TempFrom;5;
TempUseSlope;False;
TempTo;5;
TempdT;1;
TempSetupTime;0;
GonFrom;0;
GonTo;180;
GonSteps;20;
XRayEnabled;False;
XRayTime;3;
XRayVoltage;40;
XRayCurrent;0.5;
UVEnabled;False;
UVIntensity;0;
UVTime;0;
UVLeadTime;0;
UVWavelength;0;
PowSweepFrom;1;
PowSweepTo;5;
PowSweepSteps;5;
AmpModSweepFrom;0;
AmpModSweepTo;1;
AmpModSweepSteps;10;
ExtTriggerEnabled;False;
ExtTrigLeadTime;0;
ExtTrigOnTime;5;

Meas
BField [mT];MW_Absorption []
313.011906433105;85.0620585570187
313.03353292745;84.2838308633245
313.055159421794;83.5912490687619
313.076785916139;83.0020036503675
313.098412410484;82.5230909395761
313.120038904828;82.1342084162687
313.141665399173;81.8175906865987
313.163291893517;81.5668029369667
313.184918387862;81.3712938916162
313.206544882206;81.221111291395
313.228171376551;81.1102565958689
313.249797870895;81.0373055849041
313.27142436524;81.0108141146489
313.293050859584;81.0306471409782
313.314677353929;81.0896058212538
313.336303848273;81.1835167799213
313.357930342618;81.3062708964941
313.379556836962;81.4580766702171
313.401183331307;81.646916061087
313.422809825651;81.8774895546876
313.444436319996;82.1379026842928
313.46606281434;82.419521774417
313.487689308685;82.7253241630496
313.509315803029;83.0380199437992
313.530942297374;83.3500845051685
313.552568791718;83.663067377605
313.574195286063;83.9647986591337
313.595821780407;84.2512640796923
313.617448274752;84.5125186075819
313.639074769096;84.7489261110004
313.660701263441;84.9698775741828
313.682327757785;85.1717363156001
313.70395425213;85.3503042025337
313.725580746475;85.505044077126
313.747207240819;85.6403539610017
313.768833735164;85.7547197119717
313.790460229508;85.8415297342367
313.812086723853;85.8998655498498
313.833713218197;85.934905413307
313.855339712542;85.9486509476765
313.876966206886;85.9422083017317
313.898592701231;85.9160881384873
313.920219195575;85.8638971528248
313.94184568992;85.7829574991799
313.963472184264;85.6831323641845
313.985098678609;85.5644829392953
314.006725172953;85.4174086580077
314.028351667298;85.2418297012927
314.049978161642;85.0374629494381
314.071604655987;84.8087386213734
314.093231150331;84.5653480243334
314.114857644676;84.3171835141959
314.13648413902;84.0754818135112
314.158110633365;83.8399586742511
314.179737127709;83.60748857618
314.201363622054;83.3792308704981
314.222990116398;83.161851112182
314.244616610743;82.9676833376853
314.266243105087;82.7991040635782
314.287869599432;82.646894296191
314.309496093776;82.5077042447623
314.331122588121;82.3947186201434
314.352749082465;82.3151859097354
314.37437557681;82.2631465894446
314.396002071155;82.2318709303488
314.417628565499;82.2162205920798
314.439255059844;82.2225021369069
314.460881554188;82.2564393341889
314.482508048533;82.310832931589
314.504134542877;82.3768288902939
314.525761037222;82.4514101421957
314.547387531566;82.5262149096715
314.569014025911;82.5899040566457
314.590640520255;82.631020701939
314.6122670146;82.6355877123904
314.633893508944;82.5946785008486
314.655520003289;82.5053470586442
314.677146497633;82.3604023033929
314.698772991978;82.1475827482938
314.720399486322;81.8530709855371
314.742025980667;81.4882028267099
314.763652475011;81.0777702618038
314.785278969356;80.6286196783786
314.8069054637;80.1476879959309
314.828531958045;79.6275886578447
314.850158452389;79.0857854182796
314.871784946734;78.5762933529657
314.893411441078;78.1265945132653
314.915037935423;77.7328908208059
314.936664429767;77.3791350556292
314.958290924112;77.0600107283307
314.979917418456;76.784749823427
315.001543912801;76.5699711059411
315.023170407145;76.4157080136021
315.04479690149;76.3109339214551
315.066423395834;76.2585262061898
315.088049890179;76.2636602857237
315.109676384523;76.3150821688323
315.131302878868;76.4033302927903
315.152929373213;76.5267084963195
315.174555867557;76.6874657432101
315.196182361902;76.8854327223485
315.217808856246;77.1160695261602
315.239435350591;77.3746006115286
315.261061844935;77.6548460046627
315.28268833928;77.9556355656403
315.304314833624;78.2836829001533
315.325941327969;78.6266005307189
315.347567822313;78.9409371357986
315.369194316658;79.1913452959727
315.390820811002;79.3884357336144
315.412447305347;79.551594655886
315.434073799691;79.6813499320201
315.455700294036;79.7490889179309
315.47732678838;79.7255342466726
315.498953282725;79.6080865932163
315.520579777069;79.424234385246
315.542206271414;79.189844273782
315.563832765758;78.9052265018283
315.585459260103;78.5751194145783
315.607085754447;78.2034462850479
315.628712248792;77.791952265387
315.650338743136;77.3437725295858
315.671965237481;76.8864915898225
315.693591731825;76.4530370892035
315.71521822617;76.0589938002493
315.736844720514;75.7230168543357
315.758471214859;75.4516131444783
315.780097709204;75.2452687181324
315.801724203548;75.1069350753331
315.823350697893;75.0429897809074
315.844977192237;75.0691468500774
315.866603686582;75.1846983060391
315.888230180926;75.3876538834538
315.909856675271;75.6618640167313
315.931483169615;75.9830578073199
315.95310966396;76.3340938983866
315.974736158304;76.7044540484893
315.996362652649;77.0880424471778
316.017989146993;77.4793712966552
316.039615641338;77.8641443293654
316.061242135682;78.2322524125733
316.082868630027;78.5655023006475
316.104495124371;78.84524757632
316.126121618716;79.0646358474034
316.14774811306;79.2270613049882
316.169374607405;79.3271520555873
316.191001101749;79.3585195246424
316.212627596094;79.3272837496048
316.234254090438;79.234486477878
316.255880584783;79.0753623083657
316.277507079127;78.8547547488107
316.299133573472;78.5927777470725
316.320760067816;78.3110387553512
316.342386562161;78.0267952002362
316.364013056505;77.7542081994904
316.38563955085;77.4970945316063
316.407266045194;77.2546544046063
316.428892539539;77.041639885248
316.450519033884;76.8774217155455
316.472145528228;76.7666119238329
316.493772022573;76.7031949956768
316.515398516917;76.6761599753141
316.537025011262;76.682735023855
316.558651505606;76.7265737874526
316.580277999951;76.8057609331055
316.601904494295;76.9089446344271
316.62353098864;77.0212695907693
316.645157482984;77.1331035724063
316.666783977329;77.241717075414
316.688410471673;77.3389706512433
316.710036966018;77.4157830662178
316.731663460362;77.4646980313986
316.753289954707;77.4865469729844
316.774916449051;77.4820964160805
316.796542943396;77.4492036109008
316.81816943774;77.3876130954931
316.839795932085;77.3005043740463
316.861422426429;77.197950034025
316.883048920774;77.0840226199988
316.904675415118;76.9558289085257
316.926301909463;76.8283592194929
316.947928403807;76.7190872116322
316.969554898152;76.6202644486679
316.991181392496;76.5212848801994
317.012807886841;76.4227650273596
317.034434381185;76.3402282776727
317.05606087553;76.280330129528
317.077687369874;76.222265095544
317.099313864219;76.147745671306
317.120940358563;76.0606655236154
317.142566852908;75.9603860122271
317.164193347252;75.8364840164986
317.185819841597;75.6768946678224
317.207446335942;75.4731256697171
317.229072830286;75.2410309543797
317.250699324631;74.9978816389905
317.272325818975;74.756905209709
317.29395231332;74.5305562797324
317.315578807664;74.318128845315
317.337205302009;74.1131667098385
317.358831796353;73.9280741142566
317.380458290698;73.7687085838156
317.402084785042;73.6419695721017
317.423711279387;73.5619032474076
317.445337773731;73.5318607864535
317.466964268076;73.5466380026186
317.48859076242;73.6052827919971
317.510217256765;73.7098046628839
317.531843751109;73.8542233169265
317.553470245454;74.0375738654681
317.575096739798;74.2738397247298
317.596723234143;74.576166768857
317.618349728487;74.9341800952929
317.639976222832;75.3213326583236
317.661602717176;75.7217978761182
317.683229211521;76.1295502588476
317.704855705865;76.5527532657369
317.72648220021;76.9849915220177
317.748108694554;77.3985378621641
317.769735188899;77.77932740561
317.791361683243;78.1295500137827
317.812988177588;78.4293950593163
317.834614671932;78.6576907932274
317.856241166277;78.8261741304259
317.877867660622;78.9511892793806
317.899494154966;79.0447587309477
317.921120649311;79.1110430467509
317.942747143655;79.1395290929663
317.964373638;79.1331235233496
317.986000132344;79.1092655329697
318.007626626689;79.0798063303769
318.029253121033;79.0469426167319
318.050879615378;79.0061987031212
318.072506109722;78.9592397340975
318.094132604067;78.9059872028109
318.115759098411;78.8417151203843
318.137385592756;78.7676867720692
318.1590120871;78.6975664948306
318.180638581445;78.6502578132937
318.202265075789;78.6328655699961
318.223891570134;78.6472218785267
318.245518064478;78.691631326908
318.267144558823;78.76041393007
318.288771053167;78.8442339410319
318.310397547512;78.9376245805122
318.332024041856;79.0323594680755
318.353650536201;79.1190038034593
318.375277030545;79.1889651608437
318.39690352489;79.2380502406237
318.418530019234;79.2647645261183
318.440156513579;79.2601252973134
318.461783007923;79.2222191261824
318.483409502268;79.1498749282042
318.505035996612;79.0441176240135
318.526662490957;78.9037397329355
318.548288985302;78.7350854897854
318.569915479646;78.5545745041022
318.591541973991;78.3635567754842
318.613168468335;78.1606805539986
318.63479496268;77.9511577925973
318.656421457024;77.7398826273762
318.678047951369;77.532105258023
318.699674445713;77.337288962761
318.721300940058;77.1645547655919
318.742927434402;77.0148518000089
318.764553928747;76.8912586989202
318.786180423091;76.7995198497914
318.807806917436;76.744420332156
318.82943341178;76.7201404182262
318.851059906125;76.7106280479197
318.872686400469;76.6976023009071
318.894312894814;76.6746938521797
318.915939389158;76.63873279178
318.937565883503;76.5800528111444
318.959192377847;76.4867280458632
318.980818872192;76.3548963647393
319.002445366536;76.1831642602012
319.024071860881;75.9618649643464
319.045698355225;75.6825280248267
319.06732484957;75.3451890667799
319.088951343914;74.966978698641
319.110577838259;74.5567092678316
319.132204332603;74.1145666632617
319.153830826948;73.6509245231441
319.175457321292;73.1811426631745
319.197083815637;72.7242094070429
319.218710309981;72.2855332752449
319.240336804326;71.8579033933709
319.261963298671;71.466637821388
319.283589793015;71.1545291617194
319.30521628736;70.924242197861
319.326842781704;70.7685571592147
319.348469276049;70.6945676948049
319.370095770393;70.7056524909097
319.391722264738;70.7975652974393
319.413348759082;70.956978793737
319.434975253427;71.1716213792707
319.456601747771;71.4391663907299
319.478228242116;71.7657730839252
319.49985473646;72.1410441013471
319.521481230805;72.5263492754719
319.543107725149;72.9013998576141
319.564734219494;73.266831293553
319.586360713838;73.6333106727762
319.607987208183;74.0046202547632
319.629613702527;74.3737970686955
319.651240196872;74.7257290031223
319.672866691216;75.0456595304344
319.694493185561;75.3233114567864
319.716119679905;75.5662278820239
319.73774617425;75.779968522855
319.759372668594;75.9531054634879
319.780999162939;76.0830387698774
319.802625657283;76.1757700220896
319.824252151628;76.233845663205
319.845878645972;76.2624247252049
319.867505140317;76.2683251256146
319.889131634661;76.2555354821441
319.910758129006;76.223800654236
319.932384623351;76.1755483501512
319.954011117695;76.1183512703219
319.97563761204;76.0472657328976
319.997264106384;75.9591140384384
320.018890600729;75.8579590185255
320.040517095073;75.7523520138375
320.062143589418;75.6405490467012
320.083770083762;75.527758482414
320.105396578107;75.4190108803484
320.127023072451;75.3125527364374
320.148649566796;75.2033282176587
320.17027606114;75.0925884565032
320.191902555485;74.9878607939605
320.213529049829;74.8953697008752
320.235155544174;74.821415023852
320.256782038518;74.7690946084665
320.278408532863;74.7394642034932
320.300035027207;74.7340699373901
320.321661521552;74.7467137828451
320.343288015896;74.7683562265073
320.364914510241;74.7931593904926
320.386541004585;74.8163744395282
320.40816749893;74.8242263209635
320.429793993274;74.8177592786857
320.451420487619;74.8053008693881
320.473046981963;74.7857076403506
320.494673476308;74.7551705086258
320.516299970652;74.7093090738268
320.537926464997;74.6413728598898
320.559552959341;74.5505812857088
320.581179453686;74.4358647875135
320.60280594803;74.2996282495276
320.624432442375;74.1536205414244
320.64605893672;74.0090087899956
320.667685431064;73.8640632262779
320.689311925409;73.7076109486981
320.710938419753;73.5276652758786
320.732564914098;73.3302430483813
320.754191408442;73.1372727111864
320.775817902787;72.954521921544
320.797444397131;72.7739169353617
320.819070891476;72.589779650697
320.84069738582;72.4051025348166
320.862323880165;72.2290144033175
320.883950374509;72.0711364391129
320.905576868854;71.9401697198914
320.927203363198;71.8388569324902
320.948829857543;71.7710518477597
320.970456351887;71.7518289955436
320.992082846232;71.7927605503568
321.013709340576;71.8883369077837
321.035335834921;72.0264174601583
321.056962329265;72.2090771165421
321.07858882361;72.4354577446658
321.100215317954;72.6855003801142
321.121841812299;72.9355859208571
321.143468306643;73.168755788955
321.165094800988;73.3684051972859
321.186721295332;73.5180547165102
321.208347789677;73.6099831284778
321.229974284021;73.6421222491059
321.251600778366;73.6090599416901
321.27322727271;73.5074177516219
321.294853767055;73.3479994791365
321.3164802614;73.1393804147787
321.338106755744;72.8815249283067
321.359733250089;72.5831108523585
321.381359744433;72.2688541636782
321.402986238778;71.9566861365846
321.424612733122;71.6507545647617
321.446239227467;71.3634480792783
321.467865721811;71.108239630699
321.489492216156;70.8867150281236
321.5111187105;70.6980432231682
321.532745204845;70.5392440743257
321.554371699189;70.4104484656243
321.575998193534;70.3299461889205
321.597624687878;70.3019506471335
321.619251182223;70.3133656194799
321.640877676567;70.3546678073821
321.662504170912;70.4236946150278
321.684130665256;70.5095168942296
321.705757159601;70.5962716666401
321.727383653945;70.6694985220095
321.74901014829;70.7155606594977
321.770636642634;70.7189690594735
321.792263136979;70.6659391542823
321.813889631323;70.5491298817005
321.835516125668;70.3639536119368
321.857142620012;70.1111245777724
321.878769114357;69.802596922405
321.900395608701;69.4463886127033
321.922022103046;69.0689069283974
321.94364859739;68.6865342727642
321.965275091735;68.3123328577343
321.98690158608;67.9597889516687
322.008528080424;67.628230308859
322.030154574769;67.305267668616
322.051781069113;66.9948454742948
322.073407563458;66.730746612186
322.095034057802;66.5236383881696
322.116660552147;66.3510241931111
322.138287046491;66.1896823275708
322.159913540836;66.0346341859335
322.18154003518;65.8922195758546
322.203166529525;65.7554641297415
322.224793023869;65.6069303719251
322.246419518214;65.442489203907
322.268046012558;65.2703476132527
322.289672506903;65.0843617687331
322.311299001247;64.8814247973962
322.332925495592;64.6761337934159
322.354551989936;64.4760092256058
322.376178484281;64.2776623262477
322.397804978625;64.0732253407374
322.41943147297;63.8773513046064
322.441057967314;63.7029861176634
322.462684461659;63.5324703513884
322.484310956003;63.3630469468304
322.505937450348;63.2082786098985
322.527563944692;63.075987146869
322.549190439037;62.9532408547541
322.570816933381;62.8303885849908
322.592443427726;62.7040980198223
322.61406992207;62.5684208910298
322.635696416415;62.4214730964565
322.657322910759;62.2617924482131
322.678949405104;62.0853423158892
322.700575899448;61.8940689393247
322.722202393793;61.6800655655088
322.743828888138;61.4366123773314
322.765455382482;61.1758712519472
322.787081876827;60.9195629772997
322.808708371171;60.6807014022405
322.830334865516;60.4511260175886
322.85196135986;60.2286390406692
322.873587854205;60.0313496525049
322.895214348549;59.8653780455898
322.916840842894;59.7315409517459
322.938467337238;59.6292507432656
322.960093831583;59.550990475459
322.981720325927;59.4992479593528
323.003346820272;59.4653417719438
323.024973314616;59.4378127085695
323.046599808961;59.4096822545551
323.068226303305;59.3698548232998
323.08985279765;59.3095698284891
323.111479291994;59.2347113137803
323.133105786339;59.1432154189536
323.154732280683;59.0278985417453
323.176358775028;58.8841281877743
323.197985269372;58.7085242205282
323.219611763717;58.533532434543
323.241238258061;58.3867383708833
323.262864752406;58.2725104619718
323.28449124675;58.197341129312
323.306117741095;58.1606009321828
323.327744235439;58.1711424080068
323.349370729784;58.2405115831654
323.370997224128;58.3712004027879
323.392623718473;58.5494421470265
323.414250212818;58.7601942452228
323.435876707162;59.0033287345461
323.457503201507;59.2733834012758
323.479129695851;59.5587840065195
323.500756190196;59.8442236136277
323.52238268454;60.1120114061072
323.544009178885;60.3526391266264
323.565635673229;60.5540371973281
323.587262167574;60.7133788637179
323.608888661918;60.8376645930164
323.630515156263;60.9285061732553
323.652141650607;60.9691013784767
323.673768144952;60.9524380109735
323.695394639296;60.8823445532935
323.717021133641;60.7763243647217
323.738647627985;60.6371030866475
323.76027412233;60.4570275827221
323.781900616674;60.2301120391504
323.803527111019;59.9684226644338
323.825153605363;59.6967798912037
323.846780099708;59.4374722035678
323.868406594052;59.1903304564531
323.890033088397;58.9502713517172
323.911659582741;58.7258101919805
323.933286077086;58.5330757116919
323.95491257143;58.3795156597722
323.976539065775;58.2663786446164
323.998165560119;58.1909924419738
324.019792054464;58.1476763911152
324.041418548809;58.1236199223292
324.063045043153;58.1126375331372
324.084671537498;58.1129392962275
324.106298031842;58.1189109005873
324.127924526187;58.1136443428266
324.149551020531;58.0857291927112
324.171177514876;58.0294179604544
324.19280400922;57.9402234300271
324.214430503565;57.8213432915773
324.236056997909;57.6610713487276
324.257683492254;57.4517263881934
324.279309986598;57.2078562088459
324.300936480943;56.9563842277757
324.322562975287;56.7020166093156
324.344189469632;56.4490889490062
324.365815963976;56.2094212325648
324.387442458321;56.0026016028003
324.409068952665;55.838728293507
324.43069544701;55.720696527906
324.452321941354;55.6511741442346
324.473948435699;55.6268884432366
324.495574930043;55.6384074557113
324.517201424388;55.6802761687637
324.538827918732;55.7499266919935
324.560454413077;55.8419660220765
324.582080907421;55.951682300244
324.603707401766;56.0833332784269
324.62533389611;56.2406679750531
324.646960390455;56.4030081367043
324.668586884799;56.5440503151104
324.690213379144;56.6687602976503
324.711839873488;56.7916787777749
324.733466367833;56.90856280578
324.755092862177;57.0063319779211
324.776719356522;57.0811622337577
