Name;ESR_BC_1_89s_Y_gon_0dg_result

Recipe
Accumulations;5;Number of accumulations
RetryCount;0;Number of retries on error
AbortOnError;True;Abort on error
EnableQFactorMeasurement;False;Enable/Disable q-Factor measurement
Bfrom;313;B from
Bto;363;B to
SweepTime;60;Sweep time
Modulation;0.2;Modulation
ModulationFreq;100;Modulation
BHoldEnabled;False;B hold enabled
BHold;0;B hold
MicrowavePower;2;Microwave power
MarkerEnabled;False;
MarkerStartField;0;
MarkerEndField;0;
Mode;;
KineticGFact;0;
KineticTotalTransientTime;0;
KineticTimeResolution;0;
TempFrom;5;
TempUseSlope;False;
TempTo;5;
TempdT;1;
TempSetupTime;0;
GonFrom;0;
GonTo;180;
GonSteps;20;
XRayEnabled;False;
XRayTime;3;
XRayVoltage;40;
XRayCurrent;0.5;
UVEnabled;False;
UVIntensity;0;
UVTime;0;
UVLeadTime;0;
UVWavelength;0;
PowSweepFrom;1;
PowSweepTo;5;
PowSweepSteps;5;
AmpModSweepFrom;0;
AmpModSweepTo;1;
AmpModSweepSteps;10;
ExtTriggerEnabled;False;
ExtTrigLeadTime;0;
ExtTrigOnTime;5;

Meas
BField [mT];MW_Absorption []
313.01658821106;172.785020495421
313.038211940716;172.251292896763
313.059835670372;171.70101420118
313.081459400028;171.124256706649
313.103083129685;170.493514189272
313.124706859341;169.773780532345
313.146330588997;168.96253963917
313.167954318653;168.085848305986
313.18957804831;167.146657824744
313.211201777966;166.16206724942
313.232825507622;165.171029573187
313.254449237278;164.180836955162
313.276072966935;163.166833560584
313.297696696591;162.121467794795
313.319320426247;161.089697258356
313.340944155904;160.087684764167
313.36256788556;159.133740064756
313.384191615216;158.260658849933
313.405815344872;157.479844995374
313.427439074529;156.789508591337
313.449062804185;156.195768776298
313.470686533841;155.690209671984
313.492310263497;155.263810967551
313.513933993154;154.908412938311
313.53555772281;154.615602099356
313.557181452466;154.389639871572
313.578805182122;154.206494422539
313.600428911779;154.032941658374
313.622052641435;153.845980836434
313.643676371091;153.621920210388
313.665300100748;153.345131521728
313.686923830404;153.029689788898
313.70854756006;152.687761970832
313.730171289716;152.303998593832
313.751795019373;151.858268444189
313.773418749029;151.365510635212
313.795042478685;150.862534569106
313.816666208341;150.36239872516
313.838289937998;149.860499791202
313.859913667654;149.349042464442
313.88153739731;148.818367785837
313.903161126967;148.272710648717
313.924784856623;147.735479511214
313.946408586279;147.219921232492
313.968032315935;146.727948493139
313.989656045592;146.262840544145
314.011279775248;145.822762589041
314.032903504904;145.398583004308
314.05452723456;144.982232098558
314.076150964217;144.584652023338
314.097774693873;144.224207055123
314.119398423529;143.893246640627
314.141022153186;143.578840287797
314.162645882842;143.277713650501
314.184269612498;142.986708046077
314.205893342154;142.698195899019
314.227517071811;142.397445906613
314.249140801467;142.068246853287
314.270764531123;141.707252362935
314.292388260779;141.320905208651
314.314011990436;140.907888763066
314.335635720092;140.457702175416
314.357259449748;139.969632831763
314.378883179404;139.460734956606
314.400506909061;138.967875414046
314.422130638717;138.504617953623
314.443754368373;138.067377720953
314.46537809803;137.645844597294
314.487001827686;137.241950722195
314.508625557342;136.8722927379
314.530249286998;136.528398452569
314.551873016655;136.185368273308
314.573496746311;135.837543228115
314.595120475967;135.522441780668
314.616744205623;135.237057983599
314.63836793528;134.96218703437
314.659991664936;134.683823382735
314.681615394592;134.393783293294
314.703239124249;134.07677940296
314.724862853905;133.729586345411
314.746486583561;133.365489537686
314.768110313217;132.988769550458
314.789734042874;132.611166225239
314.81135777253;132.253267669724
314.832981502186;131.917261357629
314.854605231842;131.596745252155
314.876228961499;131.290720769047
314.897852691155;130.9896182053
314.919476420811;130.683083276203
314.941100150467;130.382571650795
314.962723880124;130.109055578452
314.98434760978;129.874913441294
315.005971339436;129.672369842551
315.027595069093;129.490362859365
315.049218798749;129.318822979839
315.070842528405;129.147765545819
315.092466258061;128.990713290221
315.114089987718;128.869981428715
315.135713717374;128.787781421643
315.15733744703;128.740970006707
315.178961176686;128.729029667128
315.200584906343;128.743194868039
315.222208635999;128.773526671315
315.243832365655;128.816307498588
315.265456095311;128.876642248333
315.287079824968;128.956469417444
315.308703554624;129.049236807946
315.33032728428;129.147105193209
315.351951013937;129.244744551839
315.373574743593;129.339976323496
315.395198473249;129.424286902385
315.416822202905;129.483302937634
315.438445932562;129.514738240437
315.460069662218;129.52523583765
315.481693391874;129.516764961467
315.50331712153;129.489997023941
315.524940851187;129.435020373043
315.546564580843;129.335084888331
315.568188310499;129.184983920548
315.589812040156;128.998881419264
315.611435769812;128.784006092306
315.633059499468;128.52900614614
315.654683229124;128.224194274893
315.676306958781;127.869118434955
315.697930688437;127.463765585652
315.719554418093;127.030332176932
315.741178147749;126.576151858556
315.762801877406;126.109858767074
315.784425607062;125.649721399866
315.806049336718;125.200306813204
315.827673066374;124.762331185119
315.849296796031;124.347014959869
315.870920525687;123.961536292258
315.892544255343;123.608137173888
315.914167985;123.305547786294
315.935791714656;123.077831460889
315.957415444312;122.928943555547
315.979039173968;122.854849961422
316.000662903625;122.859200242199
316.022286633281;122.93711393473
316.043910362937;123.080589511214
316.065534092593;123.278830523129
316.08715782225;123.516014185686
316.108781551906;123.783703504442
316.130405281562;124.067348087349
316.152029011219;124.348036170608
316.173652740875;124.620073751064
316.195276470531;124.874025006125
316.216900200187;125.096715105867
316.238523929844;125.282237159631
316.2601476595;125.430337757922
316.281771389156;125.537048247898
316.303395118812;125.582946265957
316.325018848469;125.553014573486
316.346642578125;125.4565563539
316.368266307781;125.325663089943
316.389890037438;125.168116070688
316.411513767094;124.979290422209
316.43313749675;124.74363107857
316.454761226406;124.448399505917
316.476384956063;124.091379908646
316.498008685719;123.681384287034
316.519632415375;123.241571646762
316.541256145031;122.781870181209
316.562879874688;122.297194779044
316.584503604344;121.775232340476
316.606127334;121.20112461425
316.627751063656;120.562359938304
316.649374793313;119.895040093787
316.670998522969;119.226455824193
316.692622252625;118.557871658236
316.714245982282;117.877337151195
316.735869711938;117.195031185475
316.757493441594;116.534030979656
316.77911717125;115.922751443368
316.800740900907;115.36713198144
316.822364630563;114.857074987701
316.843988360219;114.385460844525
316.865612089875;113.947112799148
316.887235819532;113.551367228192
316.908859549188;113.204506687323
316.930483278844;112.90041613718
316.9521070085;112.627251781955
316.973730738157;112.392995236557
316.995354467813;112.201442748466
317.016978197469;112.046678868697
317.038601927126;111.922180254264
317.060225656782;111.823737629985
317.081849386438;111.747533413759
317.103473116094;111.695555687248
317.125096845751;111.662527438058
317.146720575407;111.637684671443
317.168344305063;111.617903654158
317.189968034719;111.600634837956
317.211591764376;111.580694323525
317.233215494032;111.556904647903
317.254839223688;111.523328573774
317.276462953344;111.47615627487
317.298086683001;111.42615308705
317.319710412657;111.386660339256
317.341334142313;111.367042578021
317.36295787197;111.375280831053
317.384581601626;111.416989404198
317.406205331282;111.497621741084
317.427829060938;111.626761133683
317.449452790595;111.811742544024
317.471076520251;112.045812993186
317.492700249907;112.308557466255
317.514323979563;112.580647726256
317.53594770922;112.847442641704
317.557571438876;113.10057704894
317.579195168532;113.331274138992
317.600818898189;113.520001418951
317.622442627845;113.640592550744
317.644066357501;113.687129348262
317.665690087157;113.675029582653
317.687313816814;113.615516863539
317.70893754647;113.514560471972
317.730561276126;113.380472385439
317.752185005782;113.230375415099
317.773808735439;113.083298796152
317.795432465095;112.950735759222
317.817056194751;112.840969865188
317.838679924408;112.764602058571
317.860303654064;112.728240475544
317.88192738372;112.72696152002
317.903551113376;112.748341011306
317.925174843033;112.781114749171
317.946798572689;112.815778875839
317.968422302345;112.835859181146
317.990046032001;112.825208874967
318.011669761658;112.773082531641
318.033293491314;112.677977975031
318.05491722097;112.539731455271
318.076540950626;112.360385452377
318.098164680283;112.151963968241
318.119788409939;111.928537395626
318.141412139595;111.687522465329
318.163035869252;111.420254731466
318.184659598908;111.136334787037
318.206283328564;110.857802921675
318.22790705822;110.599312417479
318.249530787877;110.352104050102
318.271154517533;110.10578514736
318.292778247189;109.870468413857
318.314401976845;109.670579493072
318.336025706502;109.514055034298
318.357649436158;109.383738518064
318.379273165814;109.274721152481
318.400896895471;109.199402546888
318.422520625127;109.160176670313
318.444144354783;109.156644048823
318.465768084439;109.192526484981
318.487391814096;109.260171229911
318.509015543752;109.347880358871
318.530639273408;109.451445494569
318.552263003064;109.578525816258
318.573886732721;109.729522163372
318.595510462377;109.894166727943
318.617134192033;110.057333443308
318.638757921689;110.194367009334
318.660381651346;110.28508279309
318.682005381002;110.340606040306
318.703629110658;110.358755972683
318.725252840315;110.328924391504
318.746876569971;110.246638279414
318.768500299627;110.103741340789
318.790124029283;109.894552197304
318.81174775894;109.648779118111
318.833371488596;109.372906605107
318.854995218252;109.077470174993
318.876618947908;108.776160014499
318.898242677565;108.478035287262
318.919866407221;108.186483514491
318.941490136877;107.920645010194
318.963113866533;107.69461952763
318.98473759619;107.513834291239
319.006361325846;107.383015646733
319.027985055502;107.291565138742
319.049608785159;107.239865868238
319.071232514815;107.223644208499
319.092856244471;107.22579287019
319.114479974127;107.233823557611
319.136103703784;107.237541375207
319.15772743344;107.222369393118
319.179351163096;107.177599941102
319.200974892752;107.097413811742
319.222598622409;106.981987045875
319.244222352065;106.826583017439
319.265846081721;106.633613613025
319.287469811378;106.410550032512
319.309093541034;106.161544617298
319.33071727069;105.889768634545
319.352341000346;105.607496743559
319.373964730003;105.32320570518
319.395588459659;105.033751203412
319.417212189315;104.741486985233
319.438835918971;104.453012917422
319.460459648628;104.188176678468
319.482083378284;103.953882595179
319.50370710794;103.74497786886
319.525330837596;103.553799329637
319.546954567253;103.381428655722
319.568578296909;103.247787502329
319.590202026565;103.156514916991
319.611825756222;103.093176135661
319.633449485878;103.042877661078
319.655073215534;102.993381380601
319.67669694519;102.937104119429
319.698320674847;102.866844091612
319.719944404503;102.777556616582
319.741568134159;102.664770598299
319.763191863815;102.534710141796
319.784815593472;102.389558933762
319.806439323128;102.2280391498
319.828063052784;102.049684501283
319.849686782441;101.859637511481
319.871310512097;101.66397871028
319.892934241753;101.467655616541
319.914557971409;101.267757691611
319.936181701066;101.061863660774
319.957805430722;100.845690141852
319.979429160378;100.611470085695
320.001052890034;100.348726298008
320.022676619691;100.047112520917
320.044300349347;99.7025006806658
320.065924079003;99.3261811948317
320.08754780866;98.9356969958871
320.109171538316;98.5341599013194
320.130795267972;98.1113005476187
320.152418997628;97.6563663779229
320.174042727285;97.171247312258
320.195666456941;96.6832384008722
320.217290186597;96.2213110480295
320.238913916253;95.795186384152
320.26053764591;95.4105913046307
320.282161375566;95.07395303049
320.303785105222;94.7907755976398
320.325408834878;94.5639561782981
320.347032564535;94.3947322181327
320.368656294191;94.2928905991422
320.390280023847;94.261738871443
320.411903753504;94.2834157919119
320.43352748316;94.3410931822948
320.455151212816;94.4337338525894
320.476774942472;94.5565068592734
320.498398672129;94.687841778887
320.520022401785;94.810240763241
320.541646131441;94.9244136511024
320.563269861097;95.0396020421602
320.584893590754;95.1579780584064
320.60651732041;95.2738886284945
320.628141050066;95.3881339268442
320.649764779722;95.5105605809701
320.671388509379;95.6481251815714
320.693012239035;95.8055692786146
320.714635968691;95.9862953531721
320.736259698348;96.191870561569
320.757883428004;96.4145379343759
320.77950715766;96.6429283908847
320.801130887316;96.874420847425
320.822754616973;97.0993511074491
320.844378346629;97.3083057608871
320.866002076285;97.5033764784572
320.887625805941;97.6882715857092
320.909249535598;97.8496403370911
320.930873265254;97.9723942126715
320.95249699491;98.0582496184361
320.974120724567;98.1132675681006
320.995744454223;98.1421931882975
321.017368183879;98.1526968353397
321.038991913535;98.1475406370529
321.060615643192;98.121334217778
321.082239372848;98.0754837201077
321.103863102504;98.0210072466271
321.12548683216;97.9701443204171
321.147110561817;97.9176455521989
321.168734291473;97.8512085950434
321.190358021129;97.7947710150976
321.211981750785;97.7632146995004
321.233605480442;97.7530586333558
321.255229210098;97.7536457247231
321.276852939754;97.7725953461897
321.298476669411;97.8142776595577
321.320100399067;97.8750085563883
321.341724128723;97.9514212308323
321.363347858379;98.0347293402228
321.384971588036;98.1150439319639
321.406595317692;98.1987175033315
321.428219047348;98.2830021835582
321.449842777004;98.3580240255702
321.471466506661;98.4252619037978
321.493090236317;98.4856028802059
321.514713965973;98.527808353559
321.53633769563;98.5379907080348
321.557961425286;98.5024805221013
321.579585154942;98.4364023672379
321.601208884598;98.3508481219037
321.622832614255;98.2365405998511
321.644456343911;98.0882347678812
321.666080073567;97.9020185133595
321.687703803223;97.6724598111771
321.70932753288;97.3986042787287
321.730951262536;97.0874539865676
321.752574992192;96.7455567322749
321.774198721849;96.369801607687
321.795822451505;95.9614271951027
321.817446181161;95.541452085795
321.839069910817;95.1267601844813
321.860693640474;94.7180141270149
321.88231737013;94.3200238183344
321.903941099786;93.9268657502554
321.925564829442;93.5257711226327
321.947188559099;93.1107837227912
321.968812288755;92.6855438774775
321.990436018411;92.2574160922286
322.012059748067;91.8172200216027
322.033683477724;91.3584108564325
322.05530720738;90.8900471608076
322.076930937036;90.4384466853702
322.098554666693;90.0274128101248
322.120178396349;89.6397439819806
322.141802126005;89.2279952008595
322.163425855661;88.798434301126
322.185049585318;88.4003048192556
322.206673314974;88.0292514529942
322.22829704463;87.6727878008284
322.249920774286;87.3272056082515
322.271544503943;86.9965854057816
322.293168233599;86.6714614602999
322.314791963255;86.3503027215694
322.336415692911;86.0444519373472
322.358039422568;85.7688728546827
322.379663152224;85.5167311599318
322.40128688188;85.280393020683
322.422910611537;85.0553645309203
322.444534341193;84.8451860576317
322.466158070849;84.6690314397488
322.487781800505;84.5297768929327
322.509405530162;84.4160795420454
322.531029259818;84.3176194004832
322.552652989474;84.2285593705309
322.57427671913;84.1427479274496
322.595900448787;84.070075286003
322.617524178443;84.0228319717039
322.639147908099;83.9980778511921
322.660771637755;83.9917676721903
322.682395367412;83.9923932778716
322.704019097068;83.9899735701961
322.725642826724;83.9904331285349
322.747266556381;84.0006675078868
322.768890286037;84.0233241233862
322.790514015693;84.0562309454258
322.812137745349;84.0768193204741
322.833761475006;84.0756395818376
322.855385204662;84.0621019849864
322.877008934318;84.0490848969826
322.898632663974;84.0377923227387
322.920256393631;84.0203001819267
322.941880123287;83.9963345586345
322.963503852943;83.9663925727707
322.9851275826;83.9284247157971
323.006751312256;83.8766432739924
323.028375041912;83.8034995855373
323.049998771568;83.7124630555561
323.071622501225;83.6126431643429
323.093246230881;83.5043250549187
323.114869960537;83.3856834790805
323.136493690193;83.2588239980536
323.15811741985;83.1251232479252
323.179741149506;82.9851268434299
323.201364879162;82.8413869309538
323.222988608819;82.6929864950657
323.244612338475;82.5372869671601
323.266236068131;82.3748777871766
323.287859797787;82.2120263127551
323.309483527444;82.0465264309756
323.3311072571;81.8587931260403
323.352730986756;81.6392690672422
323.374354716412;81.4050553095556
323.395978446069;81.1601204285915
323.417602175725;80.8974422470918
323.439225905381;80.6152518155518
323.460849635037;80.3200077614813
323.482473364694;80.0136773959631
323.50409709435;79.6959841857874
323.525720824006;79.3697800361453
323.547344553663;79.04050018727
323.568968283319;78.7088885234125
323.590592012975;78.3765206002044
323.612215742631;78.0494373725081
323.633839472288;77.7322070620766
323.655463201944;77.4183684914471
323.6770869316;77.097804737436
323.698710661256;76.7771585776023
323.720334390913;76.4676156464141
323.741958120569;76.1662365973994
323.763581850225;75.8631493446503
323.785205579882;75.5543298173214
323.806829309538;75.2371255298601
323.828453039194;74.9139923324941
323.85007676885;74.5887022766505
323.871700498507;74.2582451995759
323.893324228163;73.924326090483
323.914947957819;73.608058714714
323.936571687475;73.3213516365876
323.958195417132;73.0600484812552
323.979819146788;72.8259032781042
324.001442876444;72.6315682912822
324.0230666061;72.4888318625872
324.044690335757;72.4009159849097
324.066314065413;72.3686959468506
324.087937795069;72.3821594104851
324.109561524726;72.4250032736661
324.131185254382;72.482449752728
324.152808984038;72.544512270648
324.174432713694;72.5943107448151
324.196056443351;72.6159359000831
324.217680173007;72.6049899981769
324.239303902663;72.5623039132091
324.260927632319;72.4842632183705
324.282551361976;72.3695790521928
324.304175091632;72.2241279031024
324.325798821288;72.0596194775084
324.347422550944;71.8775021503154
324.369046280601;71.6734421540221
324.390670010257;71.4497861853781
324.412293739913;71.2112956852052
324.43391746957;70.9608965795836
324.455541199226;70.7088776779417
324.477164928882;70.4745754012353
324.498788658538;70.2707153728037
324.520412388195;70.0952768506785
324.542036117851;69.9407253604928
324.563659847507;69.8011682725807
324.585283577163;69.6784812545498
324.60690730682;69.5788313652509
324.628531036476;69.4993793568687
324.650154766132;69.4304484872867
324.671778495789;69.3718281881836
324.693402225445;69.3317381091264
324.715025955101;69.2966043241295
324.736649684757;69.2525910349257
324.758273414414;69.1939892572475
324.77989714407;69.1176800939252
