Name;ESR_BC_1_7200s_X_gon_160dg_result

Recipe
Accumulations;5;Number of accumulations
RetryCount;0;Number of retries on error
AbortOnError;True;Abort on error
EnableQFactorMeasurement;False;Enable/Disable q-Factor measurement
Bfrom;313;B from
Bto;363;B to
SweepTime;60;Sweep time
Modulation;0.2;Modulation
ModulationFreq;100;Modulation
BHoldEnabled;False;B hold enabled
BHold;0;B hold
MicrowavePower;2;Microwave power
MarkerEnabled;False;
MarkerStartField;0;
MarkerEndField;0;
Mode;;
KineticGFact;0;
KineticTotalTransientTime;0;
KineticTimeResolution;0;
TempFrom;5;
TempUseSlope;False;
TempTo;5;
TempdT;1;
TempSetupTime;0;
GonFrom;0;
GonTo;180;
GonSteps;20;
XRayEnabled;False;
XRayTime;3;
XRayVoltage;40;
XRayCurrent;0.5;
UVEnabled;False;
UVIntensity;0;
UVTime;0;
UVLeadTime;0;
UVWavelength;0;
PowSweepFrom;1;
PowSweepTo;5;
PowSweepSteps;5;
AmpModSweepFrom;0;
AmpModSweepTo;1;
AmpModSweepSteps;10;
ExtTriggerEnabled;False;
ExtTrigLeadTime;0;
ExtTrigOnTime;5;

Meas
BField [mT];MW_Absorption []
313.021223373413;659.035444575049
313.042846669581;658.302139341157
313.064469965749;657.543869572862
313.086093261917;656.750167435461
313.107716558085;655.940263844305
313.129339854253;655.146704001087
313.150963150421;654.368610822925
313.172586446589;653.574779955112
313.194209742757;652.763405545115
313.215833038925;651.944200609045
313.237456335093;651.120130885506
313.25907963126;650.282057365722
313.280702927428;649.402892282217
313.302326223596;648.454601944114
313.323949519764;647.465574368942
313.345572815932;646.476135851919
313.3671961121;645.473965135546
313.388819408268;644.440538469691
313.410442704436;643.375379347609
313.432066000604;642.287343676164
313.453689296772;641.18715468089
313.47531259294;640.109457084282
313.496935889108;639.043548230268
313.518559185276;637.988900044301
313.540182481444;636.983209498347
313.561805777612;636.006247636086
313.58342907378;635.037215107741
313.605052369948;634.064388332798
313.626675666115;633.109310447131
313.648298962283;632.173208145431
313.669922258451;631.22575694104
313.691545554619;630.233804358013
313.713168850787;629.185886893191
313.734792146955;628.10943922314
313.756415443123;627.053296463744
313.778038739291;626.016946727237
313.799662035459;624.950956899788
313.821285331627;623.839668724779
313.842908627795;622.73180862369
313.864531923963;621.673351882593
313.886155220131;620.658877023528
313.907778516299;619.673705305502
313.929401812467;618.730130628049
313.951025108635;617.840095499048
313.972648404803;617.024051759912
313.994271700971;616.289733236897
314.015894997139;615.608930789451
314.037518293306;614.955198754875
314.059141589474;614.317129008872
314.080764885642;613.706009257676
314.10238818181;613.151743632431
314.124011477978;612.654682280309
314.145634774146;612.196263601748
314.167258070314;611.759794409954
314.188881366482;611.336845475172
314.21050466265;610.927654785488
314.232127958818;610.537314080283
314.253751254986;610.158725421287
314.275374551154;609.777353484546
314.296997847322;609.383455072057
314.31862114349;608.964098377555
314.340244439658;608.499134723441
314.361867735826;607.979182967751
314.383491031994;607.408689246787
314.405114328161;606.80029875342
314.426737624329;606.164216136617
314.448360920497;605.485434129331
314.469984216665;604.745834845888
314.491607512833;603.953910616166
314.513230809001;603.123324219658
314.534854105169;602.252368554752
314.556477401337;601.348789305989
314.578100697505;600.408831589261
314.599723993673;599.413711626309
314.621347289841;598.380242973315
314.642970586009;597.308890272536
314.664593882177;596.172063761497
314.686217178345;594.951628642511
314.707840474513;593.720133980739
314.729463770681;592.526586212481
314.751087066849;591.335727619157
314.772710363016;590.104963246065
314.794333659184;588.84742047314
314.815956955352;587.5827312096
314.83758025152;586.343254253983
314.859203547688;585.149183190264
314.880826843856;584.006846785618
314.902450140024;582.921496842423
314.924073436192;581.904616975042
314.94569673236;580.962381425308
314.967320028528;580.071067943231
314.988943324696;579.21823137704
315.010566620864;578.419428996293
315.032189917032;577.66700896485
315.0538132132;576.931363034278
315.075436509368;576.191850430163
315.097059805536;575.46169901632
315.118683101704;574.774851610773
315.140306397872;574.135212314368
315.161929694039;573.51551909023
315.183552990207;572.898788718913
315.205176286375;572.278295250985
315.226799582543;571.64390222185
315.248422878711;570.992572359915
315.270046174879;570.33524210744
315.291669471047;569.685021261269
315.313292767215;569.01640461748
315.334916063383;568.320217175521
315.356539359551;567.604742706764
315.378162655719;566.859305490545
315.399785951887;566.096279160049
315.421409248055;565.33711570184
315.443032544223;564.580071426753
315.464655840391;563.813828690677
315.486279136559;563.016887059937
315.507902432727;562.164647532984
315.529525728895;561.237700898075
315.551149025062;560.23972774145
315.57277232123;559.246943434199
315.594395617398;558.30905877069
315.616018913566;557.380515165509
315.637642209734;556.448750233643
315.659265505902;555.516586952661
315.68088880207;554.590426581432
315.702512098238;553.67542845269
315.724135394406;552.7618588409
315.745758690574;551.854962555101
315.767381986742;550.998584429138
315.78900528291;550.229000339076
315.810628579078;549.54744299948
315.832251875246;548.948899360739
315.853875171414;548.420410043122
315.875498467582;547.948080446629
315.89712176375;547.553945169844
315.918745059918;547.231961179018
315.940368356085;546.949769289785
315.961991652253;546.688507875458
315.983614948421;546.45279975479
316.005238244589;546.230741015589
316.026861540757;545.999171517851
316.048484836925;545.749086734345
316.070108133093;545.470007731712
316.091731429261;545.139587715332
316.113354725429;544.741236933864
316.134978021597;544.286155236814
316.156601317765;543.786017449098
316.178224613933;543.236276537352
316.199847910101;542.629858605406
316.221471206269;541.966702589207
316.243094502437;541.261181401191
316.264717798605;540.530671319501
316.286341094773;539.781370811884
316.30796439094;539.01993907123
316.329587687108;538.255268357456
316.351210983276;537.491223346516
316.372834279444;536.731281022479
316.394457575612;535.977662508473
316.41608087178;535.234377068833
316.437704167948;534.494032633725
316.459327464116;533.741887470305
316.480950760284;532.966585784912
316.502574056452;532.158710365649
316.52419735262;531.316810862032
316.545820648788;530.451810236136
316.567443944956;529.570715267061
316.589067241124;528.637333185058
316.610690537292;527.632505803226
316.63231383346;526.613159149056
316.653937129628;525.592255908072
316.675560425796;524.534661204834
316.697183721963;523.427460103588
316.718807018131;522.338451307595
316.740430314299;521.265912037967
316.762053610467;520.193248545929
316.783676906635;519.105019920564
316.805300202803;517.994560900809
316.826923498971;516.859064369124
316.848546795139;515.69889057793
316.870170091307;514.530933629007
316.891793387475;513.362386939694
316.913416683643;512.202081570632
316.935039979811;511.090149419022
316.956663275979;510.051283297447
316.978286572147;509.110424588786
316.999909868315;508.250082209299
317.021533164483;507.438397810268
317.043156460651;506.689987337199
317.064779756819;506.005724418148
317.086403052986;505.376298791654
317.108026349154;504.792154017708
317.129649645322;504.241753989134
317.15127294149;503.711554992591
317.172896237658;503.221292071389
317.194519533826;502.800619425301
317.216142829994;502.451174735417
317.237766126162;502.1571313944
317.25938942233;501.911166156517
317.281012718498;501.726429579658
317.302636014666;501.614590287604
317.324259310834;501.570552703835
317.345882607002;501.589099604491
317.36750590317;501.660330340944
317.389129199338;501.765745967378
317.410752495506;501.896469445757
317.432375791674;502.054649590666
317.453999087841;502.226324351023
317.475622384009;502.379569198063
317.497245680177;502.48926028645
317.518868976345;502.522169859226
317.540492272513;502.444632436394
317.562115568681;502.26846698497
317.583738864849;502.010422655474
317.605362161017;501.652395593271
317.626985457185;501.165118159597
317.648608753353;500.527860295348
317.670232049521;499.720811386074
317.691855345689;498.744627512908
317.713478641857;497.643687956627
317.735101938025;496.467093163661
317.756725234193;495.224982705643
317.778348530361;493.899751396909
317.799971826529;492.4904786943
317.821595122697;490.989645077167
317.843218418864;489.392704973738
317.864841715032;487.75906133107
317.8864650112;486.154716174342
317.908088307368;484.639630552533
317.929711603536;483.212771080474
317.951334899704;481.851265150709
317.972958195872;480.560638632664
317.99458149204;479.393692306458
318.016204788208;478.373609967654
318.037828084376;477.486574318953
318.059451380544;476.702859299553
318.081074676712;475.993882467851
318.10269797288;475.348319758634
318.124321269048;474.771935229094
318.145944565216;474.260876374337
318.167567861384;473.818876938267
318.189191157552;473.443400300339
318.210814453719;473.1159345875
318.232437749887;472.822806475508
318.254061046055;472.565041875498
318.275684342223;472.343450232066
318.297307638391;472.146236340489
318.318930934559;471.958741180904
318.340554230727;471.77577762493
318.362177526895;471.591281556635
318.383800823063;471.393624761489
318.405424119231;471.1751934639
318.427047415399;470.927650177808
318.448670711567;470.643709533798
318.470294007735;470.325126967672
318.491917303903;469.970616307671
318.513540600071;469.576095835984
318.535163896239;469.142294239247
318.556787192407;468.677579803327
318.578410488575;468.203001332657
318.600033784742;467.720386215173
318.62165708091;467.209899159896
318.643280377078;466.655976105167
318.664903673246;466.061367281501
318.686526969414;465.437613794007
318.708150265582;464.797370823916
318.72977356175;464.136878219425
318.751396857918;463.445985883294
318.773020154086;462.712145090481
318.794643450254;461.95824345448
318.816266746422;461.180383485009
318.83789004259;460.38022924052
318.859513338758;459.617576427143
318.881136634926;458.894725913956
318.902759931094;458.18575167854
318.924383227262;457.482569090964
318.94600652343;456.783613814152
318.967629819598;456.07351259416
318.989253115765;455.329541326652
319.010876411933;454.565432804393
319.032499708101;453.830588629628
319.054123004269;453.129186051876
319.075746300437;452.444701320973
319.097369596605;451.718950907103
319.118992892773;450.967761984369
319.140616188941;450.22529073422
319.162239485109;449.479243628993
319.183862781277;448.693535051924
319.205486077445;447.844656834568
319.227109373613;446.972238867689
319.248732669781;446.145554056585
319.270355965949;445.359531923794
319.291979262117;444.604194554063
319.313602558285;443.886353824969
319.335225854453;443.216948663952
319.356849150621;442.603149141702
319.378472446788;442.041809245044
319.400095742956;441.519392202007
319.421719039124;441.036585469364
319.443342335292;440.617763222174
319.46496563146;440.25118852093
319.486588927628;439.909893627753
319.508212223796;439.571952036402
319.529835519964;439.237070372399
319.551458816132;438.925174293332
319.5730821123;438.630019679152
319.594705408468;438.335736613606
319.616328704636;438.043658526876
319.637952000804;437.755235017752
319.659575296972;437.467561840886
319.68119859314;437.186916193212
319.702821889308;436.927730459289
319.724445185476;436.696366618305
319.746068481643;436.49702296447
319.767691777811;436.323912443301
319.789315073979;436.16359062433
319.810938370147;436.001280365197
319.832561666315;435.832904458944
319.854184962483;435.65765020625
319.875808258651;435.473576542
319.897431554819;435.282214512294
319.919054850987;435.077714190519
319.940678147155;434.851295720669
319.962301443323;434.60335749968
319.983924739491;434.342745592385
320.005548035659;434.077988489115
320.027171331827;433.825713225275
320.048794627995;433.592561844104
320.070417924163;433.381486111802
320.092041220331;433.203773099031
320.113664516498;433.073874221586
320.135287812666;432.995631610743
320.156911108834;432.961671110037
320.178534405002;432.964907063684
320.20015770117;433.017238599227
320.221780997338;433.136249289492
320.243404293506;433.319838038289
320.265027589674;433.543043059833
320.286650885842;433.773363194297
320.30827418201;433.990299567531
320.329897478178;434.179194235301
320.351520774346;434.312397139717
320.373144070514;434.350995325758
320.394767366682;434.27159932021
320.41639066285;434.056399160094
320.438013959018;433.669222501687
320.459637255186;433.066636661687
320.481260551354;432.228784589469
320.502883847522;431.192238200591
320.524507143689;430.003512455949
320.546130439857;428.653106921908
320.567753736025;427.09491447335
320.589377032193;425.356205802659
320.611000328361;423.522349813168
320.632623624529;421.65230100629
320.654246920697;419.783553651482
320.675870216865;417.93393402975
320.697493513033;416.129903829289
320.719116809201;414.373207067005
320.740740105369;412.654362398762
320.762363401537;410.99346351799
320.783986697705;409.448548614305
320.805609993873;408.073936508823
320.827233290041;406.862708921923
320.848856586209;405.755235204354
320.870479882377;404.691764230203
320.892103178544;403.644541645332
320.913726474712;402.603652243361
320.93534977088;401.549862938018
320.956973067048;400.447072733605
320.978596363216;399.25836793336
321.000219659384;398.012017430936
321.021842955552;396.75303640715
321.04346625172;395.438493640577
321.065089547888;394.04559765108
321.086712844056;392.578477656139
321.108336140224;391.045812516474
321.129959436392;389.484096826049
321.15158273256;387.925450123204
321.173206028728;386.387874675942
321.194829324896;384.868260820979
321.216452621064;383.3777987262
321.238075917232;381.963205177973
321.2596992134;380.655634544136
321.281322509567;379.458007692287
321.302945805735;378.357023381451
321.324569101903;377.382614570262
321.346192398071;376.566640076069
321.367815694239;375.92866052448
321.389438990407;375.468242707228
321.411062286575;375.178911091912
321.432685582743;375.043838383791
321.454308878911;375.034393427467
321.475932175079;375.126296776118
321.497555471247;375.297479218251
321.519178767415;375.527408346425
321.540802063583;375.798480361343
321.562425359751;376.08990135393
321.584048655919;376.362810208068
321.605671952087;376.592093752725
321.627295248255;376.770977974425
321.648918544422;376.910824192126
321.67054184059;376.996491437599
321.692165136758;377.013620578805
321.713788432926;376.965553156106
321.735411729094;376.858042966067
321.757035025262;376.710852541948
321.77865832143;376.537819449604
321.800281617598;376.345296525266
321.821904913766;376.130529381338
321.843528209934;375.890266804658
321.865151506102;375.622417558813
321.88677480227;375.326806675124
321.908398098438;375.013080152788
321.930021394606;374.685998660318
321.951644690774;374.35248200394
321.973267986942;374.019357707073
321.99489128311;373.662552340933
322.016514579278;373.263659899699
322.038137875446;372.831751440638
322.059761171613;372.388034535117
322.081384467781;371.935538982489
322.103007763949;371.445955461183
322.124631060117;370.901277642454
322.146254356285;370.307918950274
322.167877652453;369.68738228699
322.189500948621;369.033780581292
322.211124244789;368.324739352767
322.232747540957;367.568506870502
322.254370837125;366.782792198197
322.275994133293;365.937513063349
322.297617429461;365.046640972706
322.319240725629;364.156671861023
322.340864021797;363.275109140746
322.362487317965;362.387378463824
322.384110614133;361.489958619544
322.405733910301;360.601566928442
322.427357206468;359.721866583017
322.448980502636;358.860721260042
322.470603798804;358.042661262832
322.492227094972;357.259656026384
322.51385039114;356.485626554468
322.535473687308;355.690886323839
322.557096983476;354.883425407434
322.578720279644;354.11094409409
322.600343575812;353.372229558385
322.62196687198;352.64721194456
322.643590168148;351.934116049787
322.665213464316;351.218360593477
322.686836760484;350.477704038204
322.708460056652;349.744219724397
322.73008335282;349.02565608001
322.751706648988;348.335348136627
322.773329945156;347.691780679498
322.794953241324;347.080211603125
322.816576537491;346.479531474522
322.838199833659;345.886510270675
322.859823129827;345.32278083381
322.881446425995;344.81196421951
322.903069722163;344.322084479573
322.924693018331;343.836864456661
322.946316314499;343.362151751596
322.967939610667;342.902246816075
322.989562906835;342.444894831948
323.011186203003;341.976798563376
323.032809499171;341.492590373231
323.054432795339;340.976072764042
323.076056091507;340.400946737395
323.097679387675;339.764924707723
323.119302683843;339.08763093092
323.140925980011;338.3988946518
323.162549276179;337.696294893349
323.184172572346;336.966018216433
323.205795868514;336.215276972014
323.227419164682;335.424867500748
323.24904246085;334.569945771094
323.270665757018;333.64247090712
323.292289053186;332.696140474741
323.313912349354;331.800639027489
323.335535645522;330.946646663044
323.35715894169;330.089296913112
323.378782237858;329.221869572608
323.400405534026;328.397213073685
323.422028830194;327.625338770327
323.443652126362;326.866931573372
323.46527542253;326.107341463801
323.486898718698;325.359316994149
323.508522014866;324.618216242678
323.530145311034;323.869579920542
323.551768607202;323.09937487223
323.573391903369;322.299961401242
323.595015199537;321.471553037132
323.616638495705;320.623686625698
323.638261791873;319.780323589814
323.659885088041;318.944289038158
323.681508384209;318.099318990593
323.703131680377;317.240603765488
323.724754976545;316.393687784481
323.746378272713;315.574194004791
323.768001568881;314.780098903081
323.789624865049;314.00825808739
323.811248161217;313.273958075305
323.832871457385;312.626569032931
323.854494753553;312.077125522975
323.876118049721;311.593566797177
323.897741345889;311.161847202993
323.919364642057;310.786249665231
323.940987938225;310.455984441047
323.962611234392;310.147481913526
323.98423453056;309.846279205967
324.005857826728;309.547126422469
324.027481122896;309.228893391833
324.049104419064;308.873230010548
324.070727715232;308.481218711158
324.0923510114;308.040638585585
324.113974307568;307.527516184153
324.135597603736;306.917034863467
324.157220899904;306.19728561008
324.178844196072;305.38985778493
324.20046749224;304.526250212059
324.222090788408;303.626616101558
324.243714084576;302.693639175389
324.265337380744;301.701960211425
324.286960676912;300.62169910157
324.30858397308;299.464147266344
324.330207269247;298.253298914997
324.351830565415;296.995021202812
324.373453861583;295.73340487126
324.395077157751;294.496685777907
324.416700453919;293.261299150631
324.438323750087;292.036838808493
324.459947046255;290.823208882638
324.481570342423;289.608023499309
324.503193638591;288.362534448632
324.524816934759;287.055510858295
324.546440230927;285.685728328318
324.568063527095;284.286610920488
324.589686823263;282.856389125001
324.611310119431;281.408206933745
324.632933415599;279.955247625496
324.654556711767;278.503747123272
324.676180007935;277.055924007895
324.697803304103;275.590989443907
324.71942660027;274.104682512504
324.741049896438;272.634905096513
324.762673192606;271.20717230321
324.784296488774;269.843215019111
