Name;ESR_BC_1_14400s_Z_gon_60dg_result

Recipe
Accumulations;5;Number of accumulations
RetryCount;0;Number of retries on error
AbortOnError;True;Abort on error
EnableQFactorMeasurement;False;Enable/Disable q-Factor measurement
Bfrom;313;B from
Bto;363;B to
SweepTime;60;Sweep time
Modulation;0.2;Modulation
ModulationFreq;100;Modulation
BHoldEnabled;False;B hold enabled
BHold;0;B hold
MicrowavePower;2;Microwave power
MarkerEnabled;False;
MarkerStartField;0;
MarkerEndField;0;
Mode;;
KineticGFact;0;
KineticTotalTransientTime;0;
KineticTimeResolution;0;
TempFrom;5;
TempUseSlope;False;
TempTo;5;
TempdT;1;
TempSetupTime;0;
GonFrom;0;
GonTo;180;
GonSteps;20;
XRayEnabled;False;
XRayTime;3;
XRayVoltage;40;
XRayCurrent;0.5;
UVEnabled;False;
UVIntensity;0;
UVTime;0;
UVLeadTime;0;
UVWavelength;0;
PowSweepFrom;1;
PowSweepTo;5;
PowSweepSteps;5;
AmpModSweepFrom;0;
AmpModSweepTo;1;
AmpModSweepSteps;10;
ExtTriggerEnabled;False;
ExtTrigLeadTime;0;
ExtTrigOnTime;5;

Meas
BField [mT];MW_Absorption []
313.021278686523;84.7703200479166
313.042899011092;84.2198031425252
313.06451933566;83.374333818809
313.086139660228;82.6065626330959
313.107759984797;81.9513699373973
313.129380309365;81.4087408883543
313.151000633933;80.9868479060655
313.172620958502;80.6937999639879
313.19424128307;80.5166937845333
313.215861607638;80.4360063942998
313.237481932207;80.4387975981983
313.259102256775;80.5128624395014
313.280722581343;80.6380812330948
313.302342905912;80.7741570821747
313.32396323048;80.8843882664029
313.345583555048;80.9647333107422
313.367203879616;81.0120367470437
313.388824204185;81.0177479483112
313.410444528753;80.9724101274483
313.432064853321;80.8645073852813
313.45368517789;80.6854761492005
313.475305502458;80.4488672216641
313.496925827026;80.1770602452648
313.518546151595;79.884099622986
313.540166476163;79.5724264331521
313.561786800731;79.2503764590971
313.5834071253;78.9333000135936
313.605027449868;78.6386835455517
313.626647774436;78.3774881485468
313.648268099005;78.1482834354597
313.669888423573;77.9492334620476
313.691508748141;77.7854746314294
313.71312907271;77.6769533427878
313.734749397278;77.6333916134668
313.756369721846;77.64711142061
313.777990046414;77.7114016803564
313.799610370983;77.8228895212936
313.821230695551;77.9739623082172
313.842851020119;78.1538709636718
313.864471344688;78.3559022066519
313.886091669256;78.5731936040393
313.907711993824;78.8064512761283
313.929332318393;79.0537717817447
313.950952642961;79.298112940042
313.972572967529;79.5373290638427
313.994193292098;79.7789262705356
314.015813616666;80.0271055979699
314.037433941234;80.280813266487
314.059054265803;80.530635218773
314.080674590371;80.7662729961365
314.102294914939;80.9936836745496
314.123915239507;81.2248644469822
314.145535564076;81.4608569211748
314.167155888644;81.7029723218908
314.188776213212;81.968927794249
314.210396537781;82.2671378840405
314.232016862349;82.5895964590307
314.253637186917;82.916201415681
314.275257511486;83.2346487478522
314.296877836054;83.5498350011161
314.318498160622;83.8673154239044
314.340118485191;84.183886301233
314.361738809759;84.489495599561
314.383359134327;84.7634213064558
314.404979458896;85.0015659654379
314.426599783464;85.2072047785341
314.448220108032;85.3638411930658
314.469840432601;85.4566114361289
314.491460757169;85.4809883606534
314.513081081737;85.4353295735345
314.534701406305;85.3316138882591
314.556321730874;85.1875019322561
314.577942055442;85.0072392177638
314.59956238001;84.7785523248014
314.621182704579;84.5056413515334
314.642803029147;84.2230433144286
314.664423353715;83.9407678810228
314.686043678284;83.650300206484
314.707664002852;83.3561007327871
314.72928432742;83.0883704762726
314.750904651989;82.8782371286868
314.772524976557;82.7300443726559
314.794145301125;82.6345296277247
314.815765625694;82.590686720693
314.837385950262;82.6035540761494
314.85900627483;82.6712833742418
314.880626599399;82.7803132660705
314.902246923967;82.9085424102639
314.923867248535;83.0383818540745
314.945487573103;83.1617696405239
314.967107897672;83.2820295492638
314.98872822224;83.4030802570189
315.010348546808;83.5061845016331
315.031968871377;83.5523934691768
315.053589195945;83.5462084324124
315.075209520513;83.5087840503011
315.096829845082;83.4457006466175
315.11845016965;83.3525774985992
315.140070494218;83.2183618512358
315.161690818787;83.0373510231597
315.183311143355;82.7976411914562
315.204931467923;82.4825580591915
315.226551792492;82.1099498800481
315.24817211706;81.7114617803362
315.269792441628;81.2849496948028
315.291412766197;80.8305999839524
315.313033090765;80.3509570284496
315.334653415333;79.8460582332258
315.356273739901;79.3063827680212
315.37789406447;78.7249451447956
315.399514389038;78.1196004779089
315.421134713606;77.4985109509766
315.442755038175;76.8649231638643
315.464375362743;76.2652303357681
315.485995687311;75.7258896628288
315.50761601188;75.242985555803
315.529236336448;74.8048017817627
315.550856661016;74.4107218777736
315.572476985585;74.0600911440572
315.594097310153;73.7429700855054
315.615717634721;73.4769595960164
315.63733795929;73.2673000362763
315.658958283858;73.1117862960072
315.680578608426;73.0133721178863
315.702198932994;72.9755006622862
315.723819257563;73.0013771175204
315.745439582131;73.0986589623156
315.767059906699;73.2689811685633
315.788680231268;73.5118378993436
315.810300555836;73.8310379404219
315.831920880404;74.2192833580114
315.853541204973;74.6629714881889
315.875161529541;75.1610614856552
315.896781854109;75.7267007831375
315.918402178678;76.3625599597187
315.940022503246;77.0369462981537
315.961642827814;77.707953681398
315.983263152383;78.3554303833013
316.004883476951;78.9894598196513
316.026503801519;79.6083861954691
316.048124126088;80.1711518602019
316.069744450656;80.6663438203908
316.091364775224;81.1090224031026
316.112985099792;81.47917441136
316.134605424361;81.754510790601
316.156225748929;81.9406123788349
316.177846073497;82.0466830512994
316.199466398066;82.0711212094459
316.221086722634;82.01710854316
316.242707047202;81.8955892883241
316.264327371771;81.710163207953
316.285947696339;81.4569339182408
316.307568020907;81.1265409811394
316.329188345476;80.7304381103395
316.350808670044;80.2888835065092
316.372428994612;79.8096353253597
316.394049319181;79.2984567565043
316.415669643749;78.759792676472
316.437289968317;78.2123093766941
316.458910292885;77.689062686425
316.480530617454;77.1847912364553
316.502150942022;76.6924731835621
316.52377126659;76.2290498501687
316.545391591159;75.8149151490717
316.567011915727;75.4598362237182
316.588632240295;75.16019303217
316.610252564864;74.9109309021306
316.631872889432;74.7059167788262
316.653493214;74.5482530005905
316.675113538569;74.4495316066922
316.696733863137;74.3965479612289
316.718354187705;74.3718976467231
316.739974512274;74.3891569816434
316.761594836842;74.4516793073689
316.78321516141;74.5507231722841
316.804835485979;74.6785174636006
316.826455810547;74.8307285451001
316.848076135115;74.9989586809982
316.869696459684;75.1823485440893
316.891316784252;75.3786847420347
316.91293710882;75.5820440702292
316.934557433388;75.7908978165815
316.956177757957;75.9930781474734
316.977798082525;76.1696044634039
316.999418407093;76.3272256986398
317.021038731662;76.4794705391531
317.04265905623;76.6333832916747
317.064279380798;76.7820678846735
317.085899705367;76.90381591977
317.107520029935;77.0003671671805
317.129140354503;77.0665723565691
317.150760679072;77.0990907720668
317.17238100364;77.1060487273977
317.194001328208;77.086625277329
317.215621652777;77.0385938881204
317.237241977345;76.9590658578923
317.258862301913;76.8425385394318
317.280482626482;76.6843900176859
317.30210295105;76.4834519281161
317.323723275618;76.2518952746217
317.345343600186;76.0034047696056
317.366963924755;75.7453776466606
317.388584249323;75.4829844329223
317.410204573891;75.2200358323665
317.43182489846;74.9636676901179
317.453445223028;74.724838191577
317.475065547596;74.5143687008992
317.496685872165;74.3346986581422
317.518306196733;74.1861814509276
317.539926521301;74.0732018234183
317.56154684587;73.9913248651923
317.583167170438;73.9280318324523
317.604787495006;73.8734261016068
317.626407819575;73.8179908311216
317.648028144143;73.7611767370022
317.669648468711;73.7119437708596
317.691268793279;73.6688307320258
317.712889117848;73.6227135889393
317.734509442416;73.5652769163786
317.756129766984;73.4971936348753
317.777750091553;73.4198885060845
317.799370416121;73.3278126385223
317.820990740689;73.2218826847157
317.842611065258;73.1176975437049
317.864231389826;73.0342969124743
317.885851714394;72.9719001095676
317.907472038963;72.9236346145615
317.929092363531;72.8748882845295
317.950712688099;72.8396962412954
317.972333012668;72.8421936668015
317.993953337236;72.8795140016306
318.015573661804;72.9400767566014
318.037193986373;73.0250197787933
318.058814310941;73.1355670615205
318.080434635509;73.2623529132932
318.102054960077;73.4017963601907
318.123675284646;73.5496018100654
318.145295609214;73.7108023996748
318.166915933782;73.8931084895846
318.188536258351;74.0871965442263
318.210156582919;74.2629637137156
318.231776907487;74.410091845196
318.253397232056;74.5345276379274
318.275017556624;74.6316508990681
318.296637881192;74.6975973579578
318.318258205761;74.7351856685477
318.339878530329;74.7529438892219
318.361498854897;74.7487114374582
318.383119179466;74.7173093604176
318.404739504034;74.6577482484929
318.426359828602;74.5793597382574
318.44798015317;74.480767229315
318.469600477739;74.3572072426627
318.491220802307;74.2216342629632
318.512841126875;74.0791223664653
318.534461451444;73.9269478768609
318.556081776012;73.7705963130085
318.57770210058;73.618400455067
318.599322425149;73.4727925997716
318.620942749717;73.3350298755105
318.642563074285;73.1990482501769
318.664183398854;73.0642279617159
318.685803723422;72.9336367954402
318.70742404799;72.8109828519146
318.729044372559;72.7008555218954
318.750664697127;72.6124052196878
318.772285021695;72.5451698789345
318.793905346264;72.5009574490006
318.815525670832;72.4814177248865
318.8371459954;72.4827936411889
318.858766319968;72.5082189057396
318.880386644537;72.5660272762021
318.902006969105;72.656788426154
318.923627293673;72.7765452838873
318.945247618242;72.9234021844522
318.96686794281;73.0963325382463
318.988488267378;73.2928386917454
319.010108591947;73.5129524487482
319.031728916515;73.7547355488809
319.053349241083;74.0152985238568
319.074969565652;74.2781964771883
319.09658989022;74.5334552552137
319.118210214788;74.776237918217
319.139830539357;75.0047502787002
319.161450863925;75.2077205059931
319.183071188493;75.3692954260764
319.204691513062;75.4865797963142
319.22631183763;75.5649078461745
319.247932162198;75.6076082645677
319.269552486766;75.6065707558134
319.291172811335;75.5549697794513
319.312793135903;75.4522228159263
319.334413460471;75.2935935646354
319.35603378504;75.0764109119464
319.377654109608;74.8042306342151
319.399274434176;74.4951569029675
319.420894758745;74.153335628711
319.442515083313;73.7562774376019
319.464135407881;73.3117943876469
319.48575573245;72.853779017872
319.507376057018;72.3969714979295
319.528996381586;71.9355671698055
319.550616706155;71.4742917583741
319.572237030723;71.0257321897534
319.593857355291;70.5996239975514
319.61547767986;70.209068560658
319.637098004428;69.8602048326785
319.658718328996;69.5478150059152
319.680338653564;69.2664197357091
319.701958978133;69.014746613814
319.723579302701;68.7946331956471
319.745199627269;68.6069669664683
319.766819951838;68.4438555152953
319.788440276406;68.3016280412756
319.810060600974;68.1903248625136
319.831680925543;68.1132609734979
319.853301250111;68.0628928535246
319.874921574679;68.0338995941894
319.896541899248;68.0209281179731
319.918162223816;68.0189275754152
319.939782548384;68.0254871588884
319.961402872953;68.0410106683716
319.983023197521;68.0648411218539
320.004643522089;68.0942518894154
320.026263846658;68.1268069918424
320.047884171226;68.1596045501144
320.069504495794;68.1885771485377
320.091124820362;68.2085658052766
320.112745144931;68.2152184007435
320.134365469499;68.2129232215418
320.155985794067;68.2111943805631
320.177606118636;68.1903439867677
320.199226443204;68.1281431634621
320.220846767772;68.0300468671841
320.242467092341;67.9106221920341
320.264087416909;67.7701687590336
320.285707741477;67.6025177025452
320.307328066046;67.4099822709351
320.328948390614;67.2011342826
320.350568715182;66.9793085950345
320.372189039751;66.7427119826061
320.393809364319;66.497216049692
320.415429688887;66.2533237334419
320.437050013455;66.0088541233168
320.458670338024;65.7587703966953
320.480290662592;65.5049710328728
320.50191098716;65.2672580582177
320.523531311729;65.0689874430961
320.545151636297;64.9225195344163
320.566771960865;64.8295726705976
320.588392285434;64.7783853165176
320.610012610002;64.7670656196318
320.63163293457;64.7999014962429
320.653253259139;64.8797923664087
320.674873583707;65.0075933670943
320.696493908275;65.1781375557993
320.718114232844;65.3836404320973
320.739734557412;65.6196717979453
320.76135488198;65.8711265362953
320.782975206548;66.1290852670936
320.804595531117;66.3900178773659
320.826215855685;66.6525795765181
320.847836180253;66.9185361793851
320.869456504822;67.1836035352996
320.89107682939;67.4534690775062
320.912697153958;67.7380493001346
320.934317478527;68.0282351347163
320.955937803095;68.298061331724
320.977558127663;68.5362879179224
320.999178452232;68.7376842943655
321.0207987768;68.8903855215952
321.042419101368;68.9882655353087
321.064039425937;69.037138243187
321.085659750505;69.0359695731888
321.107280075073;68.974531680841
321.128900399642;68.8350040139406
321.15052072421;68.6104902619825
321.172141048778;68.3135797818008
321.193761373346;67.9471997166839
321.215381697915;67.5109073548868
321.237002022483;67.0132463467162
321.258622347051;66.4632431019005
321.28024267162;65.8596796514503
321.301862996188;65.2301991208369
321.323483320756;64.5835639874317
321.345103645325;63.921296949506
321.366723969893;63.2658807336887
321.388344294461;62.6332869083591
321.40996461903;62.0367762623556
321.431584943598;61.4845013770697
321.453205268166;60.9869035302442
321.474825592735;60.5358319745471
321.496445917303;60.1317532464491
321.518066241871;59.7923195789009
321.53968656644;59.5340007466981
321.561306891008;59.3446840032696
321.582927215576;59.1948080918021
321.604547540144;59.0657264126104
321.626167864713;58.9445842862908
321.647788189281;58.83153041303
321.669408513849;58.7360508298763
321.691028838418;58.6437768728609
321.712649162986;58.5403387184915
321.734269487554;58.4182868875788
321.755889812123;58.2786825307567
321.777510136691;58.1246138737214
321.799130461259;57.9500993876895
321.820750785828;57.7471017624369
321.842371110396;57.5216699654386
321.863991434964;57.2812706670976
321.885611759533;57.0175001727112
321.907232084101;56.7180459999208
321.928852408669;56.3889159792568
321.950472733238;56.0540257225597
321.972093057806;55.7229096298661
321.993713382374;55.3931812582273
322.015333706942;55.0588324595898
322.036954031511;54.7358795220756
322.058574356079;54.4559732195014
322.080194680647;54.2268153754461
322.101815005216;54.0458307402217
322.123435329784;53.9062441561426
322.145055654352;53.8082143226996
322.166675978921;53.7465241334836
322.188296303489;53.7215655921276
322.209916628057;53.736751054169
322.231536952626;53.7869885422588
322.253157277194;53.8627819094766
322.274777601762;53.9613665074421
322.296397926331;54.0787604914374
322.318018250899;54.2083476368597
322.339638575467;54.3481217531772
322.361258900036;54.4930636690355
322.382879224604;54.6204947508861
322.404499549172;54.7125459156694
322.42611987374;54.7673109481887
322.447740198309;54.7899177156385
322.469360522877;54.781955273326
322.490980847445;54.730120939208
322.512601172014;54.6236866629891
322.534221496582;54.4601218978282
322.55584182115;54.2504315065854
322.577462145719;54.0144101749141
322.599082470287;53.7636256759717
322.620702794855;53.5086004044418
322.642323119424;53.2656271955612
322.663943443992;53.0425330741143
322.68556376856;52.8473910212512
322.707184093129;52.6919015921596
322.728804417697;52.5757690550398
322.750424742265;52.5011648325445
322.772045066833;52.4748718752748
322.793665391402;52.4921545756551
322.81528571597;52.5392839714829
322.836906040538;52.6117273067223
322.858526365107;52.7065063806232
322.880146689675;52.8149451969308
322.901767014243;52.9184510282514
322.923387338812;52.9863106072616
322.94500766338;53.0095508425302
322.966627987948;52.9862771824113
322.988248312517;52.9099538204347
323.009868637085;52.7690829692292
323.031488961653;52.5562019074594
323.053109286222;52.2641813083143
323.07472961079;51.9293935473528
323.096349935358;51.5728299920883
323.117970259927;51.2057642342502
323.139590584495;50.8527566215308
323.161210909063;50.5110541849657
323.182831233631;50.1770703921648
323.2044515582;49.8764144706674
323.226071882768;49.6434413244094
323.247692207336;49.4750484337427
323.269312531905;49.3737280291902
323.290932856473;49.3422849986344
323.312553181041;49.3682276961526
323.33417350561;49.4456775779841
323.355793830178;49.5685309214039
323.377414154746;49.7201999663
323.399034479315;49.8924406034606
323.420654803883;50.0806912411057
323.442275128451;50.2690362678503
323.46389545302;50.4503455236335
323.485515777588;50.6315164726585
323.507136102156;50.8229447802067
323.528756426725;51.0296476388191
323.550376751293;51.2553555309355
323.571997075861;51.5135180032355
323.593617400429;51.7989320890212
323.615237724998;52.1009150096764
323.636858049566;52.4136794337571
323.658478374134;52.7388937760259
323.680098698703;53.0790721898285
323.701719023271;53.4221424649049
323.723339347839;53.7500264471062
323.744959672408;54.0550061819446
323.766579996976;54.318581267627
323.788200321544;54.5204045033479
323.809820646113;54.6534636632326
323.831440970681;54.7130566711858
323.853061295249;54.6924891319998
323.874681619818;54.5936127262291
323.896301944386;54.4229510950865
323.917922268954;54.1805101506533
323.939542593523;53.8699733062416
323.961162918091;53.5161301817351
323.982783242659;53.127092636135
324.004403567227;52.7189552696417
324.026023891796;52.2983020747727
324.047644216364;51.860629015157
324.069264540932;51.4035033789142
324.090884865501;50.9280147977118
324.112505190069;50.4430732303478
324.134125514637;49.9616931823347
324.155745839206;49.4983438638541
324.177366163774;49.0736814439065
324.198986488342;48.7043092242107
324.220606812911;48.3946095133981
324.242227137479;48.1255380071943
324.263847462047;47.8902124647943
324.285467786616;47.7087041496078
324.307088111184;47.5876276949703
324.328708435752;47.524924586278
324.350328760321;47.5224122054334
324.371949084889;47.5808033096171
324.393569409457;47.6825372205838
324.415189734025;47.8035821908852
324.436810058594;47.943102655566
324.458430383162;48.1063489969864
324.48005070773;48.2837667386643
324.501671032299;48.4657115821712
324.523291356867;48.6483667585938
324.544911681435;48.8318988030572
324.566532006004;49.0006309328923
324.588152330572;49.1252248672931
324.60977265514;49.2088775879962
324.631392979709;49.2630679814541
324.653013304277;49.2883141716356
324.674633628845;49.2790643145426
324.696253953414;49.2390566490357
324.717874277982;49.1780110617896
324.73949460255;49.0999113570309
324.761114927118;49.0039308512545
