Name;ESR_BC_1_89s_X_gon_160dg_result

Recipe
Accumulations;5;Number of accumulations
RetryCount;0;Number of retries on error
AbortOnError;True;Abort on error
EnableQFactorMeasurement;False;Enable/Disable q-Factor measurement
Bfrom;313;B from
Bto;363;B to
SweepTime;60;Sweep time
Modulation;0.2;Modulation
ModulationFreq;100;Modulation
BHoldEnabled;False;B hold enabled
BHold;0;B hold
MicrowavePower;2;Microwave power
MarkerEnabled;False;
MarkerStartField;0;
MarkerEndField;0;
Mode;;
KineticGFact;0;
KineticTotalTransientTime;0;
KineticTimeResolution;0;
TempFrom;5;
TempUseSlope;False;
TempTo;5;
TempdT;1;
TempSetupTime;0;
GonFrom;0;
GonTo;180;
GonSteps;20;
XRayEnabled;False;
XRayTime;3;
XRayVoltage;40;
XRayCurrent;0.5;
UVEnabled;False;
UVIntensity;0;
UVTime;0;
UVLeadTime;0;
UVWavelength;0;
PowSweepFrom;1;
PowSweepTo;5;
PowSweepSteps;5;
AmpModSweepFrom;0;
AmpModSweepTo;1;
AmpModSweepSteps;10;
ExtTriggerEnabled;False;
ExtTrigLeadTime;0;
ExtTrigOnTime;5;

Meas
BField [mT];MW_Absorption []
313.024026489258;637.152744197313
313.045650048921;636.465700224961
313.067273608583;635.806491621479
313.088897168246;635.15036271235
313.110520727909;634.4614131842
313.132144287572;633.751687023537
313.153767847235;633.052240573302
313.175391406897;632.356058084247
313.19701496656;631.636443645073
313.218638526223;630.875405396266
313.240262085886;630.072209022018
313.261885645548;629.226540665401
313.283509205211;628.323757886061
313.305132764874;627.350224863609
313.326756324537;626.308042703379
313.3483798842;625.214573048657
313.370003443862;624.06445197286
313.391627003525;622.8350163521
313.413250563188;621.538252569104
313.434874122851;620.198603543686
313.456497682514;618.81026619324
313.478121242176;617.36623308898
313.499744801839;615.876055767802
313.521368361502;614.339026052482
313.542991921165;612.789698803506
313.564615480828;611.262851155556
313.58623904049;609.762526398562
313.607862600153;608.307488924452
313.629486159816;606.890002400665
313.651109719479;605.464678007372
313.672733279141;604.029376593499
313.694356838804;602.71238112144
313.715980398467;601.574424465865
313.73760395813;600.556189363656
313.759227517793;599.618638538064
313.780851077455;598.763807631002
313.802474637118;598.011026370441
313.824098196781;597.369793578928
313.845721756444;596.820067596802
313.867345316107;596.336509495061
313.888968875769;595.904276613118
313.910592435432;595.516583381252
313.932215995095;595.158589407177
313.953839554758;594.810663872365
313.975463114421;594.463808043437
313.997086674083;594.103964318195
314.018710233746;593.712450939399
314.040333793409;593.294744506001
314.061957353072;592.855656324432
314.083580912734;592.37592705681
314.105204472397;591.82631282031
314.12682803206;591.207718725145
314.148451591723;590.534832681601
314.170075151386;589.806952470866
314.191698711048;589.011384972794
314.213322270711;588.134060212241
314.234945830374;587.156796245308
314.256569390037;586.070081078754
314.2781929497;584.869403708588
314.299816509362;583.564388963535
314.321440069025;582.188714297309
314.343063628688;580.806437617888
314.364687188351;579.424980500387
314.386310748014;577.979697825991
314.407934307676;576.498559724337
314.429557867339;575.026558054906
314.451181427002;573.565258641892
314.472804986665;572.084767997164
314.494428546328;570.642247325556
314.51605210599;569.291122509786
314.537675665653;568.025002463651
314.559299225316;566.819823445251
314.580922784979;565.647831704659
314.602546344641;564.533144628343
314.624169904304;563.538204212192
314.645793463967;562.654484370325
314.66741702363;561.885858829368
314.689040583293;561.230688570592
314.710664142955;560.653070736685
314.732287702618;560.112228754968
314.753911262281;559.605234051797
314.775534821944;559.125961248606
314.797158381607;558.670091000995
314.818781941269;558.233730028969
314.840405500932;557.803846864597
314.862029060595;557.374396387977
314.883652620258;556.944651493616
314.905276179921;556.520731122218
314.926899739583;556.111601398036
314.948523299246;555.715596537305
314.970146858909;555.329435960496
314.991770418572;554.953027211016
315.013393978234;554.593258250758
315.035017537897;554.270516073933
315.05664109756;553.994056108778
315.078264657223;553.748970660327
315.099888216886;553.519627545165
315.121511776548;553.294870344226
315.143135336211;553.058866511126
315.164758895874;552.794289511442
315.186382455537;552.490719872317
315.2080060152;552.139242478865
315.229629574862;551.737631529377
315.251253134525;551.292041546281
315.272876694188;550.814718347453
315.294500253851;550.32180307862
315.316123813514;549.811873892381
315.337747373176;549.276212379954
315.359370932839;548.716100283047
315.380994492502;548.139163943329
315.402618052165;547.552875427924
315.424241611827;546.981984544955
315.44586517149;546.412941713182
315.467488731153;545.802360025926
315.489112290816;545.149678301023
315.510735850479;544.46036476785
315.532359410141;543.718516082929
315.553982969804;542.920759779347
315.575606529467;542.080142725362
315.59723008913;541.222180290187
315.618853648793;540.348335115918
315.640477208455;539.439114169351
315.662100768118;538.499292450529
315.683724327781;537.545459331424
315.705347887444;536.577417511456
315.726971447107;535.668859126648
315.748595006769;534.868496711668
315.770218566432;534.140600260854
315.791842126095;533.448124644443
315.813465685758;532.797108000495
315.83508924542;532.202469783344
315.856712805083;531.656051991081
315.878336364746;531.157178748499
315.899959924409;530.700518951142
315.921583484072;530.281563892401
315.943207043734;529.898304890701
315.964830603397;529.539672077345
315.98645416306;529.196488888061
316.008077722723;528.86040295074
316.029701282386;528.523014265536
316.051324842048;528.176094144665
316.072948401711;527.815004045678
316.094571961374;527.439800588068
316.116195521037;527.051133334798
316.1378190807;526.647177130465
316.159442640362;526.222524061148
316.181066200025;525.767514464448
316.202689759688;525.273580900416
316.224313319351;524.7586705273
316.245936879013;524.241801234473
316.267560438676;523.726150210199
316.289183998339;523.199816180009
316.310807558002;522.650054473015
316.332431117665;522.069892490565
316.354054677327;521.455503613703
316.37567823699;520.81261890199
316.397301796653;520.163531614963
316.418925356316;519.514265753626
316.440548915979;518.848503720069
316.462172475641;518.164121330968
316.483796035304;517.471880636131
316.505419594967;516.772818117448
316.52704315463;516.06330699746
316.548666714293;515.336874623334
316.570290273955;514.612433087896
316.591913833618;513.89436374572
316.613537393281;513.175499573982
316.635160952944;512.462951505706
316.656784512607;511.757500504186
316.678408072269;511.056534701347
316.700031631932;510.350938286886
316.721655191595;509.634953225327
316.743278751258;508.923806148882
316.76490231092;508.246997604641
316.786525870583;507.606711104152
316.808149430246;506.99039759609
316.829772989909;506.398309870738
316.851396549572;505.843530674723
316.873020109234;505.343106845877
316.894643668897;504.89182392652
316.91626722856;504.473323508148
316.937890788223;504.072388509838
316.959514347886;503.704710363779
316.981137907548;503.389522285623
317.002761467211;503.123396279015
317.024385026874;502.899526429319
317.046008586537;502.711803991577
317.0676321462;502.53996400472
317.089255705862;502.358360759663
317.110879265525;502.16970925082
317.132502825188;501.979373900125
317.154126384851;501.80187967171
317.175749944513;501.643151980002
317.197373504176;501.497951498768
317.218997063839;501.359910272896
317.240620623502;501.224808033871
317.262244183165;501.092596770385
317.283867742827;500.963826850881
317.30549130249;500.832029742878
317.327114862153;500.688282440106
317.348738421816;500.535978354827
317.370361981479;500.374209237677
317.391985541141;500.187220162472
317.413609100804;499.957762752021
317.435232660467;499.682778610397
317.45685622013;499.372147207741
317.478479779793;499.034723950756
317.500103339455;498.667579553806
317.521726899118;498.256547549641
317.543350458781;497.786902327854
317.564974018444;497.253401375126
317.586597578106;496.676592700927
317.608221137769;496.059501851099
317.629844697432;495.399578249768
317.651468257095;494.698640799182
317.673091816758;493.964787797893
317.69471537642;493.223797359374
317.716338936083;492.474266262538
317.737962495746;491.691018918288
317.759586055409;490.874692233772
317.781209615072;490.044054746759
317.802833174734;489.20631079985
317.824456734397;488.357436732873
317.84608029406;487.518759656893
317.867703853723;486.733174665351
317.889327413386;485.988316266447
317.910950973048;485.25802495
317.932574532711;484.5469661786
317.954198092374;483.870022451606
317.975821652037;483.237653427714
317.997445211699;482.643667706169
318.019068771362;482.078254999401
318.040692331025;481.534702947381
318.062315890688;481.016732944155
318.083939450351;480.529533643232
318.105563010013;480.051751067881
318.127186569676;479.564892877189
318.148810129339;479.07573874297
318.170433689002;478.597199829602
318.192057248665;478.141116728288
318.213680808327;477.72048691164
318.23530436799;477.319762683752
318.256927927653;476.928791944436
318.278551487316;476.546309795109
318.300175046979;476.176114222939
318.321798606641;475.815457751062
318.343422166304;475.455959221944
318.365045725967;475.084831458139
318.38666928563;474.696501294933
318.408292845292;474.289406601287
318.429916404955;473.851414186315
318.451539964618;473.380278135536
318.473163524281;472.886283066968
318.494787083944;472.360226856927
318.516410643606;471.786373592049
318.538034203269;471.150750266819
318.559657762932;470.460386837021
318.581281322595;469.746545904892
318.602904882258;469.011172808216
318.62452844192;468.234289085901
318.646152001583;467.414994299092
318.667775561246;466.557646318632
318.689399120909;465.682834146668
318.711022680572;464.810469529507
318.732646240234;463.925777627127
318.754269799897;463.050344592637
318.77589335956;462.179533508904
318.797516919223;461.279610196909
318.819140478886;460.317277793549
318.840764038548;459.279221730232
318.862387598211;458.230390368593
318.884011157874;457.22287675615
318.905634717537;456.255809061199
318.927258277199;455.313924761331
318.948881836862;454.343398654514
318.970505396525;453.338977844134
318.992128956188;452.306445103451
319.013752515851;451.224672743114
319.035376075513;450.122117078059
319.056999635176;449.052379074253
319.078623194839;448.024609992949
319.100246754502;447.011942679524
319.121870314165;445.956418786559
319.143493873827;444.812894808219
319.16511743349;443.621607397961
319.186740993153;442.424527664598
319.208364552816;441.224358824645
319.229988112479;440.001701251096
319.251611672141;438.774091442671
319.273235231804;437.53860499987
319.294858791467;436.292353496426
319.31648235113;435.028004962745
319.338105910792;433.782335368517
319.359729470455;432.589345150957
319.381353030118;431.434426115965
319.402976589781;430.313104132503
319.424600149444;429.238004541639
319.446223709106;428.198412372272
319.467847268769;427.194933215382
319.489470828432;426.236168336455
319.511094388095;425.324040404986
319.532717947758;424.467787900653
319.55434150742;423.687867226444
319.575965067083;422.983516973657
319.597588626746;422.322325714389
319.619212186409;421.679576373215
319.640835746072;421.046428386603
319.662459305734;420.423950941284
319.684082865397;419.852707537706
319.70570642506;419.334511852216
319.727329984723;418.847421785723
319.748953544385;418.395013018955
319.770577104048;417.988607192197
319.792200663711;417.625468046468
319.813824223374;417.296501094975
319.835447783037;416.992994970516
319.857071342699;416.718194183715
319.878694902362;416.478481732264
319.900318462025;416.261362247862
319.921942021688;416.050010188599
319.943565581351;415.834986492004
319.965189141013;415.616240294545
319.986812700676;415.392873814416
320.008436260339;415.167433003876
320.030059820002;414.945384567336
320.051683379665;414.730128367078
320.073306939327;414.525176117506
320.09493049899;414.339374621908
320.116554058653;414.182024363027
320.138177618316;414.055044068575
320.159801177978;413.95444690984
320.181424737641;413.872489632944
320.203048297304;413.803790242175
320.224671856967;413.742286365137
320.24629541663;413.681671305227
320.267918976292;413.616400047278
320.289542535955;413.533048807434
320.311166095618;413.413520054244
320.332789655281;413.236416011314
320.354413214944;412.990571124819
320.376036774606;412.673083966326
320.397660334269;412.285398837772
320.419283893932;411.810943683559
320.440907453595;411.212133387897
320.462531013258;410.464428405813
320.48415457292;409.617008693844
320.505778132583;408.737285629411
320.527401692246;407.827272595504
320.549025251909;406.874798189177
320.570648811572;405.880452533809
320.592272371234;404.897725330708
320.613895930897;403.976118634323
320.63551949056;403.121502751953
320.657143050223;402.298299755635
320.678766609885;401.49662059084
320.700390169548;400.760813606606
320.722013729211;400.107593660916
320.743637288874;399.508028830173
320.765260848537;398.944413554882
320.786884408199;398.410147293451
320.808507967862;397.893280201411
320.830131527525;397.37832006312
320.851755087188;396.847136493153
320.873378646851;396.270106479688
320.895002206513;395.616707042744
320.916625766176;394.846646928331
320.938249325839;393.941737468757
320.959872885502;392.903608042795
320.981496445165;391.736174865365
321.003120004827;390.452998402219
321.02474356449;389.054188563757
321.046367124153;387.511286771314
321.067990683816;385.801277094306
321.089614243478;383.984351078366
321.111237803141;382.10853628779
321.132861362804;380.146384578912
321.154484922467;378.064040631684
321.17610848213;375.96795633326
321.197732041792;373.983952003537
321.219355601455;372.173347790214
321.240979161118;370.478837496944
321.262602720781;368.857649569824
321.284226280444;367.384568658112
321.305849840106;366.082677392575
321.327473399769;364.934481328828
321.349096959432;363.946439370733
321.370720519095;363.10718234362
321.392344078758;362.405290573925
321.41396763842;361.831468658428
321.435591198083;361.376325558213
321.457214757746;361.038669399683
321.478838317409;360.809183275081
321.500461877071;360.686361872267
321.522085436734;360.638491662821
321.543708996397;360.647381020919
321.56533255606;360.701258818428
321.586956115723;360.779610416315
321.608579675385;360.854780107628
321.630203235048;360.907434006308
321.651826794711;360.913842700573
321.673450354374;360.850440999866
321.695073914037;360.699829559062
321.716697473699;360.45410288917
321.738321033362;360.102312931122
321.759944593025;359.641256830135
321.781568152688;359.089929889931
321.803191712351;358.461963257208
321.824815272013;357.767606531416
321.846438831676;357.025915348967
321.868062391339;356.261785359701
321.889685951002;355.497421634659
321.911309510664;354.724116002087
321.932933070327;353.946799512459
321.95455662999;353.200637520942
321.976180189653;352.506346013978
321.997803749316;351.895641512451
322.019427308978;351.402443183644
322.041050868641;351.013819187596
322.062674428304;350.697584204396
322.084297987967;350.43561326789
322.10592154763;350.240521661271
322.127545107292;350.11448880135
322.149168666955;350.032257216507
322.170792226618;349.977848091285
322.192415786281;349.935069423465
322.214039345944;349.881719882561
322.235662905606;349.794558739184
322.257286465269;349.656352962043
322.278910024932;349.468061355548
322.300533584595;349.246312537178
322.322157144257;348.984285186298
322.34378070392;348.665908394422
322.365404263583;348.271359928293
322.387027823246;347.800072016924
322.408651382909;347.272472784092
322.430274942571;346.716254425096
322.451898502234;346.123955489976
322.473522061897;345.476311707053
322.49514562156;344.788386464623
322.516769181223;344.090920389113
322.538392740885;343.378684946971
322.560016300548;342.617999162391
322.581639860211;341.833190907043
322.603263419874;341.067492198529
322.624886979537;340.336577560744
322.646510539199;339.635226059884
322.668134098862;338.956255615827
322.689757658525;338.301171494809
322.711381218188;337.678561713599
322.733004777851;337.102187913252
322.754628337513;336.575558399659
322.776251897176;336.078201552278
322.797875456839;335.592249670757
322.819499016502;335.117484486097
322.841122576164;334.660728577473
322.862746135827;334.216487405653
322.88436969549;333.770716042726
322.905993255153;333.311859627286
322.927616814816;332.83195848185
322.949240374478;332.3365896441
322.970863934141;331.827102841298
322.992487493804;331.299481614711
323.014111053467;330.78001593169
323.03573461313;330.282463792374
323.057358172792;329.798517466556
323.078981732455;329.335193399308
323.100605292118;328.900116304567
323.122228851781;328.487381605502
323.143852411444;328.092069848315
323.165475971106;327.715681752096
323.187099530769;327.368012152313
323.208723090432;327.050345218357
323.230346650095;326.746008027609
323.251970209757;326.436979578703
323.27359376942;326.112113454271
323.295217329083;325.761870459857
323.316840888746;325.392896534056
323.338464448409;325.0015092151
323.360088008071;324.564365364546
323.381711567734;324.067682832532
323.403335127397;323.515907733279
323.42495868706;322.920525652557
323.446582246723;322.279712709536
323.468205806385;321.571976792468
323.489829366048;320.807786882611
323.511452925711;320.024376252625
323.533076485374;319.249587667873
323.554700045037;318.485262038464
323.576323604699;317.731423096562
323.597947164362;316.97338655894
323.619570724025;316.207137169545
323.641194283688;315.449848499778
323.66281784335;314.741562070069
323.684441403013;314.107524809425
323.706064962676;313.53339429741
323.727688522339;312.994572497266
323.749312082002;312.479210539007
323.770935641664;312.005995926556
323.792559201327;311.579913712343
323.81418276099;311.181920115315
323.835806320653;310.790969488132
323.857429880316;310.40415724946
323.879053439978;310.028137925517
323.900676999641;309.655948486244
323.922300559304;309.283602897301
323.943924118967;308.909334567371
323.96554767863;308.514777110217
323.987171238292;308.099859345417
324.008794797955;307.676568407574
324.030418357618;307.252113227365
324.052041917281;306.824720309736
324.073665476943;306.400171831074
324.095289036606;305.987566781897
324.116912596269;305.589180806848
324.138536155932;305.186367061489
324.160159715595;304.76047656661
324.181783275257;304.307618868069
324.20340683492;303.843975582845
324.225030394583;303.364108116252
324.246653954246;302.834326007341
324.268277513909;302.240201693713
324.289901073571;301.590027352357
324.311524633234;300.898038563381
324.333148192897;300.160747696071
324.35477175256;299.318761903937
324.376395312223;298.347879218165
324.398018871885;297.326296297124
324.419642431548;296.280449390084
324.441265991211;295.193360393676
324.462889550874;294.058306064802
324.484513110537;292.88267784673
324.506136670199;291.662270177579
324.527760229862;290.368517837168
324.549383789525;288.997889718518
324.571007349188;287.563943124192
324.59263090885;286.131596132578
324.614254468513;284.73827440465
324.635878028176;283.33508779575
324.657501587839;281.903443844832
324.679125147502;280.425645175863
324.700748707164;278.859292537168
324.722372266827;277.199754996848
324.74399582649;275.482767075524
324.765619386153;273.719160690853
