Name;ESR_BC_1_3600s_Y_gon_120dg_result

Recipe
Accumulations;5;Number of accumulations
RetryCount;0;Number of retries on error
AbortOnError;True;Abort on error
EnableQFactorMeasurement;False;Enable/Disable q-Factor measurement
Bfrom;313;B from
Bto;363;B to
SweepTime;60;Sweep time
Modulation;0.2;Modulation
ModulationFreq;100;Modulation
BHoldEnabled;False;B hold enabled
BHold;0;B hold
MicrowavePower;2;Microwave power
MarkerEnabled;False;
MarkerStartField;0;
MarkerEndField;0;
Mode;;
KineticGFact;0;
KineticTotalTransientTime;0;
KineticTimeResolution;0;
TempFrom;5;
TempUseSlope;False;
TempTo;5;
TempdT;1;
TempSetupTime;0;
GonFrom;0;
GonTo;180;
GonSteps;20;
XRayEnabled;False;
XRayTime;3;
XRayVoltage;40;
XRayCurrent;0.5;
UVEnabled;False;
UVIntensity;0;
UVTime;0;
UVLeadTime;0;
UVWavelength;0;
PowSweepFrom;1;
PowSweepTo;5;
PowSweepSteps;5;
AmpModSweepFrom;0;
AmpModSweepTo;1;
AmpModSweepSteps;10;
ExtTriggerEnabled;False;
ExtTrigLeadTime;0;
ExtTrigOnTime;5;

Meas
BField [mT];MW_Absorption []
313.015110321045;168.486074172627
313.036734480523;168.263879912176
313.058358640002;167.990114185791
313.07998279948;167.670528931497
313.101606958959;167.289763087228
313.123231118438;166.822510164978
313.144855277916;166.275263344427
313.166479437395;165.696039847678
313.188103596873;165.105291169727
313.209727756352;164.501459328871
313.23135191583;163.885297873442
313.252976075309;163.274314777861
313.274600234787;162.72204160445
313.296224394266;162.256381692669
313.317848553744;161.87357767326
313.339472713223;161.584354564342
313.361096872701;161.392323608276
313.38272103218;161.280959681885
313.404345191658;161.231745849697
313.425969351137;161.235481600657
313.447593510615;161.288418019098
313.469217670094;161.378964863327
313.490841829572;161.488839123422
313.512465989051;161.606133984261
313.534090148529;161.722546647785
313.555714308008;161.827593124885
313.577338467486;161.918704380271
313.598962626965;161.991472981671
313.620586786444;162.042542552986
313.642210945922;162.077902899457
313.663835105401;162.100945336661
313.685459264879;162.104403596971
313.707083424358;162.089533447999
313.728707583836;162.066990071253
313.750331743315;162.045916075338
313.771955902793;162.026968830423
313.793580062272;162.009682016377
313.81520422175;162.000968732931
313.836828381229;162.006241186541
313.858452540707;162.031226986139
313.880076700186;162.079806471409
313.901700859664;162.145010507368
313.923325019143;162.21773649526
313.944949178621;162.294909147907
313.9665733381;162.380740090924
313.988197497578;162.481444964208
314.009821657057;162.604092694929
314.031445816535;162.748104727388
314.053069976014;162.907547025885
314.074694135493;163.08356292155
314.096318294971;163.284970938488
314.11794245445;163.505355719579
314.139566613928;163.729820902751
314.161190773407;163.957783999481
314.182814932885;164.194074821375
314.204439092364;164.437080491186
314.226063251842;164.683121440605
314.247687411321;164.928419485259
314.269311570799;165.161964882807
314.290935730278;165.356541818734
314.312559889756;165.487334080871
314.334184049235;165.577101932444
314.355808208713;165.631948773599
314.377432368192;165.638727916225
314.39905652767;165.584156116983
314.420680687149;165.466614256229
314.442304846627;165.289582853975
314.463929006106;165.059713389593
314.485553165584;164.793543873763
314.507177325063;164.522296230915
314.528801484541;164.25343953189
314.55042564402;163.974556754851
314.572049803498;163.690013745215
314.593673962977;163.410486325969
314.615298122456;163.12506496616
314.636922281934;162.827775581073
314.658546441413;162.536906918975
314.680170600891;162.262486331856
314.70179476037;161.999367428513
314.723418919848;161.73227705732
314.745043079327;161.452691602005
314.766667238805;161.163533222575
314.788291398284;160.883794596039
314.809915557762;160.631993056004
314.831539717241;160.399054940699
314.853163876719;160.175707228154
314.874788036198;159.964610179814
314.896412195676;159.768510613704
314.918036355155;159.584471781432
314.939660514633;159.40750065983
314.961284674112;159.233170082338
314.98290883359;159.06265627906
315.004532993069;158.903084960042
315.026157152547;158.754199950029
315.047781312026;158.606008721438
315.069405471505;158.444951186983
315.091029630983;158.261073087018
315.112653790462;158.054212612344
315.13427794994;157.832871348949
315.155902109419;157.599504600981
315.177526268897;157.337755592107
315.199150428376;157.031631578553
315.220774587854;156.683592048682
315.242398747333;156.307162525578
315.264022906811;155.912415355491
315.28564706629;155.499948639314
315.307271225768;155.070878195602
315.328895385247;154.62848044191
315.350519544725;154.175377087508
315.372143704204;153.730459350781
315.393767863682;153.311145052171
315.415392023161;152.919423264079
315.437016182639;152.555841624601
315.458640342118;152.21991208022
315.480264501596;151.915483309073
315.501888661075;151.659311021521
315.523512820553;151.464069892696
315.545136980032;151.323152033963
315.566761139511;151.230100535707
315.588385298989;151.178759991702
315.610009458468;151.156730427043
315.631633617946;151.149058296859
315.653257777425;151.141323415616
315.674881936903;151.128407055261
315.696506096382;151.100176720913
315.71813025586;151.038743716872
315.739754415339;150.944205722316
315.761378574817;150.821399875578
315.783002734296;150.671764756108
315.804626893774;150.492480166757
315.826251053253;150.285133789625
315.847875212731;150.058366816118
315.86949937221;149.816769109909
315.891123531688;149.572018582304
315.912747691167;149.324542152666
315.934371850645;149.079183671161
315.955996010124;148.842740481234
315.977620169602;148.618060961422
315.999244329081;148.418440559645
316.020868488559;148.249579655629
316.042492648038;148.110059925443
316.064116807516;148.001753439096
316.085740966995;147.929879556664
316.107365126474;147.896144577199
316.128989285952;147.894054775912
316.150613445431;147.925101351736
316.172237604909;147.997064095241
316.193861764388;148.112897361114
316.215485923866;148.268831052401
316.237110083345;148.458820499501
316.258734242823;148.680269648784
316.280358402302;148.921734812421
316.30198256178;149.168521095217
316.323606721259;149.405111970807
316.345230880737;149.62026209944
316.366855040216;149.800727698877
316.388479199694;149.935559260006
316.410103359173;150.020635734778
316.431727518651;150.064625862243
316.45335167813;150.068817127679
316.474975837608;150.029519582369
316.496599997087;149.947284571806
316.518224156565;149.829022512414
316.539848316044;149.673205550203
316.561472475523;149.481224848632
316.583096635001;149.268648885524
316.60472079448;149.045733687318
316.626344953958;148.81243860423
316.647969113437;148.56745933369
316.669593272915;148.315332214273
316.691217432394;148.065520458757
316.712841591872;147.816006298445
316.734465751351;147.560357055917
316.756089910829;147.296287099961
316.777714070308;147.029452614506
316.799338229786;146.76828220726
316.820962389265;146.509737378444
316.842586548743;146.25653117978
316.864210708222;146.017883038412
316.8858348677;145.802156504092
316.907459027179;145.609745811444
316.929083186657;145.438790337942
316.950707346136;145.287077894298
316.972331505614;145.156311776242
316.993955665093;145.045789688973
317.015579824571;144.939558037367
317.03720398405;144.833171829988
317.058828143529;144.718712577141
317.080452303007;144.58576272129
317.102076462486;144.44033204926
317.123700621964;144.283373679559
317.145324781443;144.107510601556
317.166948940921;143.912969568678
317.1885731004;143.703149835034
317.210197259878;143.471070563154
317.231821419357;143.218343815473
317.253445578835;142.954335634337
317.275069738314;142.67851082151
317.296693897792;142.386099519261
317.318318057271;142.084492194084
317.339942216749;141.78418741481
317.361566376228;141.489933063444
317.383190535706;141.202423369641
317.404814695185;140.922474774295
317.426438854663;140.648836579266
317.448063014142;140.386653921113
317.46968717362;140.143990862807
317.491311333099;139.918078654144
317.512935492577;139.712339067079
317.534559652056;139.536530866362
317.556183811535;139.400399180079
317.577807971013;139.287182745644
317.599432130492;139.165679853609
317.62105628997;139.028569818183
317.642680449449;138.889151176763
317.664304608927;138.760945699154
317.685928768406;138.651500982973
317.707552927884;138.560320270755
317.729177087363;138.479771161771
317.750801246841;138.3916509343
317.77242540632;138.30633723921
317.794049565798;138.233397232869
317.815673725277;138.164789458435
317.837297884755;138.085760240541
317.858922044234;137.989465836385
317.880546203712;137.8820055891
317.902170363191;137.769425183232
317.923794522669;137.659092093043
317.945418682148;137.559780491998
317.967042841626;137.472482182251
317.988667001105;137.395128247754
318.010291160584;137.33254373801
318.031915320062;137.292342236891
318.053539479541;137.281948408614
318.075163639019;137.313599072772
318.096787798498;137.391779518362
318.118411957976;137.511368092837
318.140036117455;137.672012721851
318.161660276933;137.876069247881
318.183284436412;138.117012240147
318.20490859589;138.379555558887
318.226532755369;138.653421244602
318.248156914847;138.940708766553
318.269781074326;139.242010107579
318.291405233804;139.545137362673
318.313029393283;139.841500017869
318.334653552761;140.12416766078
318.35627771224;140.383375145293
318.377901871718;140.610538402639
318.399526031197;140.795907597484
318.421150190675;140.931195098551
318.442774350154;141.009002576621
318.464398509632;141.031947857519
318.486022669111;141.011265241201
318.507646828589;140.954429688495
318.529270988068;140.864509855399
318.550895147547;140.744727264603
318.572519307025;140.600970417019
318.594143466504;140.442230443011
318.615767625982;140.279031759954
318.637391785461;140.115070033984
318.659015944939;139.954261539296
318.680640104418;139.801605858817
318.702264263896;139.656461084237
318.723888423375;139.509699135144
318.745512582853;139.362898206468
318.767136742332;139.215974098323
318.78876090181;139.068093196928
318.810385061289;138.926806438529
318.832009220767;138.791259596991
318.853633380246;138.649578094977
318.875257539724;138.506382568434
318.896881699203;138.389402982825
318.918505858681;138.315134100169
318.94013001816;138.271264750557
318.961754177638;138.258900050063
318.983378337117;138.288192678083
319.005002496596;138.354011301868
319.026626656074;138.461399036529
319.048250815553;138.610054624666
319.069874975031;138.790105780878
319.09149913451;138.990803719153
319.113123293988;139.18944823259
319.134747453467;139.362943488706
319.156371612945;139.51264565043
319.177995772424;139.63456683449
319.199619931902;139.714426928463
319.221244091381;139.739067489117
319.242868250859;139.708673908375
319.264492410338;139.635977131259
319.286116569816;139.515412766577
319.307740729295;139.339979793799
319.329364888773;139.129660215463
319.350989048252;138.904669532025
319.37261320773;138.668636805609
319.394237367209;138.423048749357
319.415861526687;138.18231813331
319.437485686166;137.963220048683
319.459109845644;137.770379565351
319.480734005123;137.614648372657
319.502358164602;137.496619371265
319.52398232408;137.40561478941
319.545606483559;137.324428099879
319.567230643037;137.239869542784
319.588854802516;137.149625750344
319.610478961994;137.056449966972
319.632103121473;136.949190742491
319.653727280951;136.816301502621
319.67535144043;136.657425182972
319.696975599908;136.469833718737
319.718599759387;136.252576735209
319.740223918865;136.014106064884
319.761848078344;135.760590461189
319.783472237822;135.503932218981
319.805096397301;135.244664224782
319.826720556779;134.986810596854
319.848344716258;134.743524799736
319.869968875736;134.521348340422
319.891593035215;134.321765248299
319.913217194693;134.142076952088
319.934841354172;133.980424875052
319.95646551365;133.833521761504
319.978089673129;133.690738978432
319.999713832607;133.545051859654
320.021337992086;133.40066145762
320.042962151565;133.265173809765
320.064586311043;133.134413601668
320.086210470522;132.997868199734
320.10783463;132.844959499439
320.129458789479;132.666886625905
320.151082948957;132.459368342133
320.172707108436;132.229411662988
320.194331267914;131.982494147742
320.215955427393;131.724786514546
320.237579586871;131.465134440938
320.25920374635;131.205727754377
320.280827905828;130.944718288562
320.302452065307;130.690385806793
320.324076224785;130.461131382661
320.345700384264;130.267812367238
320.367324543742;130.107866005681
320.388948703221;129.981461807808
320.410572862699;129.892495098104
320.432197022178;129.845211792075
320.453821181656;129.843737964613
320.475445341135;129.891434786275
320.497069500614;129.990650860104
320.518693660092;130.137105299458
320.540317819571;130.317464458562
320.561941979049;130.520139816656
320.583566138528;130.740581568443
320.605190298006;130.972887663071
320.626814457485;131.206446650735
320.648438616963;131.427833415792
320.670062776442;131.629594984584
320.69168693592;131.801534638939
320.713311095399;131.931397792471
320.734935254877;132.006261211871
320.756559414356;132.023133574247
320.778183573834;131.981004604043
320.799807733313;131.876268812523
320.821431892791;131.70525528631
320.84305605227;131.476681511112
320.864680211748;131.212878233846
320.886304371227;130.918007004126
320.907928530705;130.592412874358
320.929552690184;130.260324885938
320.951176849662;129.939767835281
320.972801009141;129.636790531811
320.99442516862;129.360444029643
321.016049328098;129.12762986849
321.037673487577;128.946033649953
321.059297647055;128.825078023316
321.080921806534;128.774403432307
321.102545966012;128.786759642981
321.124170125491;128.856633506486
321.145794284969;128.992500777374
321.167418444448;129.182698043285
321.189042603926;129.390422331727
321.210666763405;129.594018514472
321.232290922883;129.798332825992
321.253915082362;130.002101426063
321.27553924184;130.18906801715
321.297163401319;130.335149800222
321.318787560797;130.429711434777
321.340411720276;130.470568517283
321.362035879754;130.455602918294
321.383660039233;130.378559442987
321.405284198711;130.234059297908
321.42690835819;130.02994954865
321.448532517668;129.772401218444
321.470156677147;129.464659576464
321.491780836626;129.110881847846
321.513404996104;128.714169539953
321.535029155583;128.271353115722
321.556653315061;127.781603473927
321.57827747454;127.251432061691
321.599901634018;126.695794733539
321.621525793497;126.13051045397
321.643149952975;125.563101732261
321.664774112454;124.996142832704
321.686398271932;124.428273532189
321.708022431411;123.859650094799
321.729646590889;123.302441748
321.751270750368;122.775842480755
321.772894909846;122.289846743926
321.794519069325;121.839520247075
321.816143228803;121.422206128833
321.837767388282;121.036704947418
321.85939154776;120.684628610491
321.881015707239;120.361469229311
321.902639866717;120.060463693228
321.924264026196;119.773121683638
321.945888185675;119.496493477572
321.967512345153;119.229155071665
321.989136504632;118.963192350516
322.01076066411;118.691748163517
322.032384823589;118.41378401201
322.054008983067;118.129794064961
322.075633142546;117.839044759841
322.097257302024;117.544568075292
322.118881461503;117.243350407159
322.140505620981;116.924618345503
322.16212978046;116.593813570285
322.183753939938;116.266526830415
322.205378099417;115.949796163194
322.227002258895;115.634155893089
322.248626418374;115.313236294925
322.270250577852;115.001094179999
322.291874737331;114.710220988783
322.313498896809;114.448446573335
322.335123056288;114.226530117278
322.356747215766;114.048132835939
322.378371375245;113.906600784516
322.399995534723;113.794186994068
322.421619694202;113.709892551491
322.44324385368;113.653613423169
322.464868013159;113.620522338742
322.486492172638;113.600758784732
322.508116332116;113.581072418887
322.529740491595;113.547727689636
322.551364651073;113.494761405285
322.572988810552;113.42287694253
322.59461297003;113.318527152856
322.616237129509;113.164495913839
322.637861288987;112.957918570133
322.659485448466;112.722910836892
322.681109607944;112.453085667599
322.702733767423;112.143171879761
322.724357926901;111.797345207417
322.74598208638;111.427001841112
322.767606245858;111.052194702427
322.789230405337;110.703482495962
322.810854564815;110.376431696129
322.832478724294;110.066574936658
322.854102883772;109.796746954206
322.875727043251;109.584471424667
322.897351202729;109.420669413562
322.918975362208;109.294201389264
322.940599521687;109.19438329653
322.962223681165;109.110329993574
322.983847840644;109.033553513125
323.005472000122;108.953827523775
323.027096159601;108.860497153984
323.048720319079;108.74919482497
323.070344478558;108.634759771143
323.091968638036;108.51864387023
323.113592797515;108.398775158162
323.135216956993;108.272221209182
323.156841116472;108.134555376344
323.17846527595;107.996152980147
323.200089435429;107.866629735615
323.221713594907;107.746181937955
323.243337754386;107.63008124451
323.264961913864;107.510293010475
323.286586073343;107.383271166772
323.308210232821;107.254532731905
323.3298343923;107.125846407625
323.351458551778;106.991374460115
323.373082711257;106.845228095733
323.394706870735;106.697362853311
323.416331030214;106.551691296128
323.437955189693;106.4056283581
323.459579349171;106.258824541749
323.48120350865;106.100805178474
323.502827668128;105.934441656859
323.524451827607;105.789161622506
323.546075987085;105.670667046193
323.567700146564;105.571350044864
323.589324306042;105.489623271851
323.610948465521;105.432587041799
323.632572624999;105.395031982848
323.654196784478;105.372396849223
323.675820943956;105.367739917116
323.697445103435;105.377920299751
323.719069262913;105.38907325318
323.740693422392;105.399954620891
323.76231758187;105.414461270502
323.783941741349;105.441804730029
323.805565900827;105.470746325867
323.827190060306;105.487384204166
323.848814219784;105.485740180341
323.870438379263;105.479065944961
323.892062538741;105.483366896773
323.91368669822;105.502729722708
323.935310857698;105.533112062762
323.956935017177;105.567090893905
323.978559176656;105.60189493406
324.000183336134;105.640070240193
324.021807495613;105.683954771054
324.043431655091;105.726221771023
324.06505581457;105.749912904818
324.086679974048;105.754467053964
324.108304133527;105.741940978683
324.129928293005;105.702125333563
324.151552452484;105.620870810363
324.173176611962;105.493455631882
324.194800771441;105.320594430136
324.216424930919;105.098650601676
324.238049090398;104.828624793969
324.259673249876;104.526165175561
324.281297409355;104.213275189667
324.302921568833;103.898037814851
324.324545728312;103.585186697742
324.34616988779;103.290913805455
324.367794047269;103.021011238218
324.389418206747;102.770908963599
324.411042366226;102.538527990276
324.432666525705;102.337772840555
324.454290685183;102.173796565897
324.475914844662;102.034705574105
324.49753900414;101.905972748503
324.519163163619;101.775396766618
324.540787323097;101.63332646799
324.562411482576;101.477205156605
324.584035642054;101.303309276767
324.605659801533;101.099897012955
324.627283961011;100.852288814528
324.64890812049;100.562968903193
324.670532279968;100.248448038656
324.692156439447;99.9171690007352
324.713780598925;99.5739394123313
324.735404758404;99.2143855641047
324.757028917882;98.8402118813207
