Name;ESR_BC_1_14400s_Z_gon_100dg_result

Recipe
Accumulations;5;Number of accumulations
RetryCount;0;Number of retries on error
AbortOnError;True;Abort on error
EnableQFactorMeasurement;False;Enable/Disable q-Factor measurement
Bfrom;313;B from
Bto;363;B to
SweepTime;60;Sweep time
Modulation;0.2;Modulation
ModulationFreq;100;Modulation
BHoldEnabled;False;B hold enabled
BHold;0;B hold
MicrowavePower;2;Microwave power
MarkerEnabled;False;
MarkerStartField;0;
MarkerEndField;0;
Mode;;
KineticGFact;0;
KineticTotalTransientTime;0;
KineticTimeResolution;0;
TempFrom;5;
TempUseSlope;False;
TempTo;5;
TempdT;1;
TempSetupTime;0;
GonFrom;0;
GonTo;180;
GonSteps;20;
XRayEnabled;False;
XRayTime;3;
XRayVoltage;40;
XRayCurrent;0.5;
UVEnabled;False;
UVIntensity;0;
UVTime;0;
UVLeadTime;0;
UVWavelength;0;
PowSweepFrom;1;
PowSweepTo;5;
PowSweepSteps;5;
AmpModSweepFrom;0;
AmpModSweepTo;1;
AmpModSweepSteps;10;
ExtTriggerEnabled;False;
ExtTrigLeadTime;0;
ExtTrigOnTime;5;

Meas
BField [mT];MW_Absorption []
313.022696609497;80.7255776001373
313.044318562495;80.0828796288803
313.065940515493;79.4347098142235
313.087562468492;78.8221743859409
313.10918442149;78.2556244054348
313.130806374488;77.7423640312371
313.152428327486;77.2799277891391
313.174050280484;76.8684408577147
313.195672233482;76.5091758657847
313.217294186481;76.1971480420389
313.238916139479;75.9381806870357
313.260538092477;75.7336469393873
313.282160045475;75.5748979006142
313.303781998473;75.4526533157909
313.325403951472;75.3605822002039
313.34702590447;75.2955167719549
313.368647857468;75.2591278398862
313.390269810466;75.2501442163306
313.411891763464;75.2662323320168
313.433513716462;75.3122942305443
313.455135669461;75.3865823717198
313.476757622459;75.4682386222671
313.498379575457;75.5501793760367
313.520001528455;75.6510993155249
313.541623481453;75.7853598760801
313.563245434451;75.937313391824
313.58486738745;76.095361989558
313.606489340448;76.2587781887623
313.628111293446;76.4264802190323
313.649733246444;76.5914357058365
313.671355199442;76.7546661870997
313.69297715244;76.9230477482414
313.714599105439;77.0934503121271
313.736221058437;77.2359654035285
313.757843011435;77.3200656253919
313.779464964433;77.3467513604139
313.801086917431;77.3378350811843
313.822708870429;77.3138783094794
313.844330823428;77.2647239809227
313.865952776426;77.1782585408871
313.887574729424;77.0651604453585
313.909196682422;76.9609262093209
313.93081863542;76.8858633974365
313.952440588419;76.8406379084391
313.974062541417;76.8335920608384
313.995684494415;76.8867894333409
314.017306447413;77.0147151012947
314.038928400411;77.2250371142187
314.060550353409;77.5165004650553
314.082172306408;77.8640478383726
314.103794259406;78.2462949829219
314.125416212404;78.6571142594076
314.147038165402;79.0798155272073
314.1686601184;79.4920596900588
314.190282071398;79.8784053420747
314.211904024397;80.229688644652
314.233525977395;80.5360326934934
314.255147930393;80.7807573945454
314.276769883391;80.9520510303948
314.298391836389;81.0605813375955
314.320013789387;81.1198237894869
314.341635742386;81.1329987344768
314.363257695384;81.1000792416958
314.384879648382;81.0263956132737
314.40650160138;80.9226682527707
314.428123554378;80.795527347673
314.449745507377;80.6462830831494
314.471367460375;80.4710802082213
314.492989413373;80.2658914714582
314.514611366371;80.0251586565388
314.536233319369;79.7470497349825
314.557855272367;79.4404816744208
314.579477225366;79.1178652740047
314.601099178364;78.7869983471989
314.622721131362;78.4507038323639
314.64434308436;78.1122751191266
314.665965037358;77.7968707197067
314.687586990356;77.522001403762
314.709208943355;77.2860627370497
314.730830896353;77.0782998604569
314.752452849351;76.8932205749224
314.774074802349;76.7379513334201
314.795696755347;76.6023337729779
314.817318708346;76.485941360473
314.838940661344;76.3863779779726
314.860562614342;76.2988467039863
314.88218456734;76.2142275944088
314.903806520338;76.1234374202695
314.925428473336;76.0188987956684
314.947050426335;75.8903726764917
314.968672379333;75.7351144152825
314.990294332331;75.5637328207224
315.011916285329;75.3783093247963
315.033538238327;75.1860759883985
315.055160191325;74.9971789319748
315.076782144324;74.8169445695697
315.098404097322;74.6467011839083
315.12002605032;74.4875407410573
315.141648003318;74.3546598438664
315.163269956316;74.26638828417
315.184891909314;74.229058000661
315.206513862313;74.2437304204259
315.228135815311;74.3095072794303
315.249757768309;74.4232252112662
315.271379721307;74.5808667086566
315.293001674305;74.7884236592642
315.314623627303;75.0381683322281
315.336245580302;75.3021081715088
315.3578675333;75.5602733923029
315.379489486298;75.8070248050285
315.401111439296;76.0408231570167
315.422733392294;76.2461853614518
315.444355345293;76.4096225697187
315.465977298291;76.5350081787854
315.487599251289;76.6329917511047
315.509221204287;76.6986654190155
315.530843157285;76.7245779355807
315.552465110283;76.7171863770454
315.574087063282;76.6938280893594
315.59570901628;76.6606241637782
315.617330969278;76.6257933863617
315.638952922276;76.5932373496909
315.660574875274;76.5578657408474
315.682196828272;76.5148656962031
315.703818781271;76.4626907287927
315.725440734269;76.3998637055551
315.747062687267;76.3208982513248
315.768684640265;76.2145861994026
315.790306593263;76.0666857999696
315.811928546261;75.8732280891989
315.83355049926;75.6476736403907
315.855172452258;75.4010450797871
315.876794405256;75.1364581384921
315.898416358254;74.8434742200426
315.920038311252;74.5129645404689
315.941660264251;74.1527660674464
315.963282217249;73.7889458309561
315.984904170247;73.4363906057816
316.006526123245;73.1057311679405
316.028148076243;72.8139841449381
316.049770029241;72.5619672380674
316.07139198224;72.3441784679387
316.093013935238;72.1545297089368
316.114635888236;71.9954118115731
316.136257841234;71.8811362611152
316.157879794232;71.8163222947294
316.17950174723;71.787468129325
316.201123700229;71.7776144246163
316.222745653227;71.7755869273507
316.244367606225;71.7812454552514
316.265989559223;71.7996513856581
316.287611512221;71.8220264501012
316.309233465219;71.8280576735366
316.330855418218;71.8093863700559
316.352477371216;71.7622526029789
316.374099324214;71.6708706588802
316.395721277212;71.5251152882209
316.41734323021;71.3302462865092
316.438965183209;71.0937734992706
316.460587136207;70.8175427724168
316.482209089205;70.5027987721541
316.503831042203;70.1743228026477
316.525452995201;69.8482571192207
316.547074948199;69.52252080149
316.568696901198;69.1963803165646
316.590318854196;68.8799694265272
316.611940807194;68.5857868424761
316.633562760192;68.313726157377
316.65518471319;68.0595746590964
316.676806666188;67.8199629965615
316.698428619187;67.5875503542192
316.720050572185;67.3555631383693
316.741672525183;67.1164389541425
316.763294478181;66.8615657983571
316.784916431179;66.5845822211063
316.806538384177;66.2846114517648
316.828160337176;65.9638654017696
316.849782290174;65.6180033935737
316.871404243172;65.2434592978573
316.89302619617;64.8566538955546
316.914648149168;64.4869805583752
316.936270102167;64.1394147013069
316.957892055165;63.8219677334608
316.979514008163;63.5512295390694
317.001135961161;63.3475043773583
317.022757914159;63.2158785748612
317.044379867157;63.1369269938903
317.066001820156;63.1029338077022
317.087623773154;63.119768154292
317.109245726152;63.1891104114335
317.13086767915;63.3026398977544
317.152489632148;63.4521066025308
317.174111585146;63.6264138196957
317.195733538145;63.812819694137
317.217355491143;64.0154258933625
317.238977444141;64.2366246467094
317.260599397139;64.4588841859938
317.282221350137;64.6728721646549
317.303843303135;64.8836172179595
317.325465256134;65.1106096764159
317.347087209132;65.3534548153958
317.36870916213;65.5845399867022
317.390331115128;65.7958395029195
317.411953068126;65.9877574606043
317.433575021125;66.1647180044919
317.455196974123;66.3289453400875
317.476818927121;66.4771499406073
317.498440880119;66.5953201123485
317.520062833117;66.6670862291324
317.541684786115;66.6850270107181
317.563306739114;66.6501641927796
317.584928692112;66.5660085639616
317.60655064511;66.4482934647464
317.628172598108;66.3040699557537
317.649794551106;66.1384595436126
317.671416504104;65.9668430726986
317.693038457103;65.805063611586
317.714660410101;65.6527978149983
317.736282363099;65.5111062584947
317.757904316097;65.3954366514295
317.779526269095;65.3247088502066
317.801148222093;65.2921909325868
317.822770175092;65.288900521269
317.84439212809;65.3189653279137
317.866014081088;65.3793041734287
317.887636034086;65.4561574100207
317.909257987084;65.5450819847286
317.930879940082;65.6394827801064
317.952501893081;65.7155960280363
317.974123846079;65.7578932060221
317.995745799077;65.7623994655597
318.017367752075;65.7267118336844
318.038989705073;65.6484485994856
318.060611658072;65.5250882428386
318.08223361107;65.3526740701925
318.103855564068;65.1385789903962
318.125477517066;64.9018029959156
318.147099470064;64.6580285714834
318.168721423062;64.4177185109748
318.190343376061;64.1827065821764
318.211965329059;63.9578027015221
318.233587282057;63.7624817510614
318.255209235055;63.6109433090921
318.276831188053;63.5219787749106
318.298453141051;63.4943595961287
318.32007509405;63.5180222764702
318.341697047048;63.5800620688179
318.363319000046;63.6719326701593
318.384940953044;63.7791594317033
318.406562906042;63.892639220741
318.428184859041;64.01297387097
318.449806812039;64.1371160107561
318.471428765037;64.2528317468214
318.493050718035;64.346215326475
318.514672671033;64.4095047010278
318.536294624031;64.4357957744464
318.55791657703;64.4264678643784
318.579538530028;64.3805608529784
318.601160483026;64.2935928451847
318.622782436024;64.1608507698235
318.644404389022;63.9926092421527
318.66602634202;63.7976248055946
318.687648295019;63.5771493689462
318.709270248017;63.3412882936887
318.730892201015;63.0968330048401
318.752514154013;62.8362036574595
318.774136107011;62.5747906832128
318.795758060009;62.326624938106
318.817380013008;62.0893756306739
318.839001966006;61.8580812482113
318.860623919004;61.6255222805771
318.882245872002;61.3873046525509
318.903867825;61.1391484055728
318.925489777999;60.8816850644824
318.947111730997;60.6183863473168
318.968733683995;60.356442290362
318.990355636993;60.0989282031473
319.011977589991;59.8433218299366
319.033599542989;59.588920660588
319.055221495988;59.3313777052628
319.076843448986;59.0751074879162
319.098465401984;58.8346669138876
319.120087354982;58.6165633573698
319.14170930798;58.4241868324769
319.163331260978;58.255196559522
319.184953213977;58.1115682736366
319.206575166975;58.0001523034323
319.228197119973;57.93055653172
319.249819072971;57.9011195404358
319.271441025969;57.9107104435814
319.293062978967;57.96599204379
319.314684931966;58.0624336788314
319.336306884964;58.1864857511555
319.357928837962;58.336608853387
319.37955079096;58.517439097708
319.401172743958;58.7275463560401
319.422794696956;58.9498464947545
319.444416649955;59.1640946956283
319.466038602953;59.3550385488387
319.487660555951;59.5057399166508
319.509282508949;59.6057981594546
319.530904461947;59.6472916760859
319.552526414946;59.6328688720742
319.574148367944;59.5606641584603
319.595770320942;59.4249497276536
319.61739227394;59.2332128263113
319.639014226938;58.9973925508761
319.660636179936;58.7091003516307
319.682258132935;58.3757776883823
319.703880085933;58.0583110671554
319.725502038931;57.7750794222983
319.747123991929;57.5154684114688
319.768745944927;57.2706330145812
319.790367897925;57.0393061826762
319.811989850924;56.836017917608
319.833611803922;56.6795922662425
319.85523375692;56.5598442881054
319.876855709918;56.4602227539202
319.898477662916;56.3729549228551
319.920099615914;56.2925237002658
319.941721568913;56.2180142687671
319.963343521911;56.1585666342518
319.984965474909;56.126577604048
320.006587427907;56.1271896372771
320.028209380905;56.1572644292818
320.049831333904;56.2100820000018
320.071453286902;56.2861155027535
320.0930752399;56.3872646226065
320.114697192898;56.5127313801142
320.136319145896;56.6660784883081
320.157941098894;56.8582780735406
320.179563051893;57.0835726399245
320.201185004891;57.3088379682609
320.222806957889;57.5223531553185
320.244428910887;57.7271930581322
320.266050863885;57.928588250623
320.287672816883;58.1269678151845
320.309294769882;58.3133222501344
320.33091672288;58.4769531039023
320.352538675878;58.6190234024039
320.374160628876;58.7429862048342
320.395782581874;58.8472069526023
320.417404534873;58.9298039468899
320.439026487871;58.9948891465326
320.460648440869;59.0531142742331
320.482270393867;59.1113516449677
320.503892346865;59.168136906304
320.525514299863;59.2162081610676
320.547136252862;59.2504162489979
320.56875820586;59.2727209285541
320.590380158858;59.2751110602129
320.612002111856;59.2506091234987
320.633624064854;59.2001930793797
320.655246017852;59.1294447018476
320.676867970851;59.038268387669
320.698489923849;58.9204377123228
320.720111876847;58.7779213366382
320.741733829845;58.6224159959205
320.763355782843;58.4621353970503
320.784977735841;58.3008518576041
320.80659968884;58.1454565573117
320.828221641838;58.0024986414485
320.849843594836;57.8742301705277
320.871465547834;57.765665156061
320.893087500832;57.6818565632742
320.91470945383;57.6213921391731
320.936331406829;57.5814629124787
320.957953359827;57.5614304205687
320.979575312825;57.5620862768329
321.001197265823;57.5832770354839
321.022819218821;57.6208776275931
321.04444117182;57.6703608327987
321.066063124818;57.7310377105535
321.087685077816;57.7988652876566
321.109307030814;57.8560852332755
321.130928983812;57.8840758916537
321.15255093681;57.8806046768432
321.174172889809;57.850799561877
321.195794842807;57.7930758933203
321.217416795805;57.6957780718822
321.239038748803;57.5548720522245
321.260660701801;57.3649560692562
321.282282654799;57.1218554924028
321.303904607798;56.8268101792457
321.325526560796;56.4828055212186
321.347148513794;56.0979305346673
321.368770466792;55.67491052279
321.39039241979;55.2194653599839
321.412014372788;54.7541511867778
321.433636325787;54.3072903624546
321.455258278785;53.8871478184801
321.476880231783;53.4954962996439
321.498502184781;53.134736202864
321.520124137779;52.7963407577656
321.541746090778;52.4787007984792
321.563368043776;52.1968080095484
321.584989996774;51.9612015252987
321.606611949772;51.7682779649982
321.62823390277;51.6027292215217
321.649855855768;51.4581357980518
321.671477808767;51.3311418817748
321.693099761765;51.2106002248875
321.714721714763;51.0826331590389
321.736343667761;50.9352155866632
321.757965620759;50.7625585736091
321.779587573757;50.5594915816075
321.801209526756;50.3241190843407
321.822831479754;50.0629473212431
321.844453432752;49.7788488517936
321.86607538575;49.469145328207
321.887697338748;49.1404537493085
321.909319291746;48.7964686245705
321.930941244745;48.4429992772566
321.952563197743;48.0850451201911
321.974185150741;47.7267933397717
321.995807103739;47.3704094437698
322.017429056737;47.015628967572
322.039051009735;46.6687288494641
322.060672962734;46.3368413701573
322.082294915732;46.0183646492582
322.10391686873;45.712892057529
322.125538821728;45.4177845701468
322.147160774726;45.1287357255376
322.168782727725;44.8476701059048
322.190404680723;44.5809149831943
322.212026633721;44.3307321955595
322.233648586719;44.1095073346423
322.255270539717;43.9286431621755
322.276892492715;43.7910716575211
322.298514445714;43.6906330501494
322.320136398712;43.6143291654424
322.34175835171;43.5585348975883
322.363380304708;43.5295708253814
322.385002257706;43.5304328712713
322.406624210704;43.541680987228
322.428246163703;43.5414557322206
322.449868116701;43.525888311773
322.471490069699;43.4935784173037
322.493112022697;43.427013009905
322.514733975695;43.3237674914299
322.536355928694;43.2028099325201
322.557977881692;43.0793913510234
322.57959983469;42.9562570898104
322.601221787688;42.8352376413183
322.622843740686;42.7197719036939
322.644465693684;42.6169068257861
322.666087646683;42.5250083614843
322.687709599681;42.442696195394
322.709331552679;42.3716473497336
322.730953505677;42.3152546745828
322.752575458675;42.2703397392765
322.774197411673;42.2275956405675
322.795819364672;42.1835438053847
322.81744131767;42.1400187971799
322.839063270668;42.0941128333668
322.860685223666;42.0429188847068
322.882307176664;41.9893479467567
322.903929129662;41.9322375213786
322.925551082661;41.8627424171088
322.947173035659;41.7834357910774
322.968794988657;41.7081551952633
322.990416941655;41.6437791345446
323.012038894653;41.5874733289771
323.033660847652;41.5318394775192
323.05528280065;41.4692518461207
323.076904753648;41.3888939361923
323.098526706646;41.2932151365535
323.120148659644;41.1926214023337
323.141770612642;41.0838241418148
323.163392565641;40.9678568339836
323.185014518639;40.845994990333
323.206636471637;40.7179894621538
323.228258424635;40.5809413182248
323.249880377633;40.4321603920347
323.271502330631;40.2813171941831
323.29312428363;40.1391477729147
323.314746236628;40.0017336760246
323.336368189626;39.8697705583192
323.357990142624;39.7452468309164
323.379612095622;39.6348352215374
323.40123404862;39.5400905421871
323.422856001619;39.4578389180554
323.444477954617;39.3856524674318
323.466099907615;39.3250902859931
323.487721860613;39.2806993674274
323.509343813611;39.2591235931732
323.530965766609;39.2617125370612
323.552587719608;39.2831586513019
323.574209672606;39.3231641065758
323.595831625604;39.378205203174
323.617453578602;39.4456022591841
323.6390755316;39.526289007564
323.660697484599;39.6165914984075
323.682319437597;39.7054060859748
323.703941390595;39.7901717956307
323.725563343593;39.8804864764038
323.747185296591;39.9741649618715
323.768807249589;40.0670894812726
323.790429202588;40.154329953549
323.812051155586;40.2404293031952
323.833673108584;40.3398671303746
323.855295061582;40.4555791301975
323.87691701458;40.5762860192862
323.898538967578;40.7042153521466
323.920160920577;40.8497604488085
323.941782873575;41.0098269398518
323.963404826573;41.1575164887868
323.985026779571;41.2730355216156
324.006648732569;41.3523803299611
324.028270685567;41.3959562575015
324.049892638566;41.3911396414491
324.071514591564;41.3330880429603
324.093136544562;41.2273819834817
324.11475849756;41.0872170417576
324.136380450558;40.9187487695535
324.158002403557;40.7260485552767
324.179624356555;40.5157796606041
324.201246309553;40.296007704527
324.222868262551;40.0804304309802
324.244490215549;39.8748603417116
324.266112168547;39.6841321879718
324.287734121546;39.5192769919699
324.309356074544;39.3829334099939
324.330978027542;39.271800442963
324.35259998054;39.1858809739912
324.374221933538;39.1195552194637
324.395843886536;39.078587862229
324.417465839535;39.0815630276706
324.439087792533;39.129837443372
324.460709745531;39.2153482042889
324.482331698529;39.3315779878396
324.503953651527;39.4819208843068
324.525575604526;39.6712275315861
324.547197557524;39.8988281447104
324.568819510522;40.1698832090684
324.59044146352;40.4802420229168
324.612063416518;40.8112572946661
324.633685369516;41.1428789916079
324.655307322515;41.4636961454958
324.676929275513;41.7683175629871
324.698551228511;42.043653691102
324.720173181509;42.2820462137391
324.741795134507;42.4871872382777
324.763417087505;42.66792801641
