Name;ESR_BC_1_14400s_Y_gon_60dg_result

Recipe
Accumulations;5;Number of accumulations
RetryCount;0;Number of retries on error
AbortOnError;True;Abort on error
EnableQFactorMeasurement;False;Enable/Disable q-Factor measurement
Bfrom;313;B from
Bto;363;B to
SweepTime;60;Sweep time
Modulation;0.2;Modulation
ModulationFreq;100;Modulation
BHoldEnabled;False;B hold enabled
BHold;0;B hold
MicrowavePower;2;Microwave power
MarkerEnabled;False;
MarkerStartField;0;
MarkerEndField;0;
Mode;;
KineticGFact;0;
KineticTotalTransientTime;0;
KineticTimeResolution;0;
TempFrom;5;
TempUseSlope;False;
TempTo;5;
TempdT;1;
TempSetupTime;0;
GonFrom;0;
GonTo;180;
GonSteps;20;
XRayEnabled;False;
XRayTime;3;
XRayVoltage;40;
XRayCurrent;0.5;
UVEnabled;False;
UVIntensity;0;
UVTime;0;
UVLeadTime;0;
UVWavelength;0;
PowSweepFrom;1;
PowSweepTo;5;
PowSweepSteps;5;
AmpModSweepFrom;0;
AmpModSweepTo;1;
AmpModSweepSteps;10;
ExtTriggerEnabled;False;
ExtTrigLeadTime;0;
ExtTrigOnTime;5;

Meas
BField [mT];MW_Absorption []
313.021678695679;205.757980627133
313.043300947181;205.154750278333
313.064923198683;204.473666971131
313.086545450186;203.763974175039
313.108167701688;203.020042970739
313.129789953191;202.216169851302
313.151412204693;201.348344240825
313.173034456195;200.469556355228
313.194656707698;199.611810122904
313.2162789592;198.779198989023
313.237901210702;197.993285299965
313.259523462205;197.278418970298
313.281145713707;196.641154349014
313.302767965209;196.084098998885
313.324390216712;195.604378619983
313.346012468214;195.204528670451
313.367634719717;194.894786762541
313.389256971219;194.684112574979
313.410879222721;194.545815105236
313.432501474224;194.455097202373
313.454123725726;194.399909058614
313.475745977228;194.368147028868
313.497368228731;194.353686029956
313.518990480233;194.351611348913
313.540612731735;194.349028557306
313.562234983238;194.323599762538
313.58385723474;194.271141557329
313.605479486243;194.201616007022
313.627101737745;194.118064429253
313.648723989247;194.017853697234
313.67034624075;193.908726692848
313.691968492252;193.802069445229
313.713590743754;193.706126016039
313.735212995257;193.613208642541
313.756835246759;193.506777620019
313.778457498261;193.395604458554
313.800079749764;193.296468730717
313.821702001266;193.205977078149
313.843324252769;193.113387548948
313.864946504271;193.01174527836
313.886568755773;192.907404874034
313.908191007276;192.798546200659
313.929813258778;192.668971201866
313.95143551028;192.510656598045
313.973057761783;192.332903926524
313.994680013285;192.140781759574
314.016302264787;191.928394235039
314.03792451629;191.691258241191
314.059546767792;191.43327734269
314.081169019295;191.157363494274
314.102791270797;190.860235703337
314.124413522299;190.541897926408
314.146035773802;190.20572585756
314.167658025304;189.852577726384
314.189280276806;189.495414900861
314.210902528309;189.147704644748
314.232524779811;188.800408192327
314.254147031313;188.446603101405
314.275769282816;188.081776874088
314.297391534318;187.704385321863
314.319013785821;187.320483961676
314.340636037323;186.939444179554
314.362258288825;186.563217001834
314.383880540328;186.179490468992
314.40550279183;185.772821584738
314.427125043332;185.338193536672
314.448747294835;184.884464711043
314.470369546337;184.42486969643
314.491991797839;183.961224704942
314.513614049342;183.497532538977
314.535236300844;183.044988580452
314.556858552347;182.606003180959
314.578480803849;182.178344193008
314.600103055351;181.745750266505
314.621725306854;181.286284480335
314.643347558356;180.805572522411
314.664969809858;180.318900234667
314.686592061361;179.843037840219
314.708214312863;179.364454920658
314.729836564365;178.872323838813
314.751458815868;178.357358649343
314.77308106737;177.815641746623
314.794703318873;177.26238860091
314.816325570375;176.700473295892
314.837947821877;176.127791144141
314.85957007338;175.537447836216
314.881192324882;174.921113927304
314.902814576384;174.287651670525
314.924436827887;173.644602654622
314.946059079389;172.981824233732
314.967681330891;172.298823408243
314.989303582394;171.6198423053
315.010925833896;170.942302126238
315.032548085399;170.271246317809
315.054170336901;169.614692112948
315.075792588403;168.961892601724
315.097414839906;168.306331857618
315.119037091408;167.67353384546
315.14065934291;167.084734158494
315.162281594413;166.530810765992
315.183903845915;165.986037175717
315.205526097417;165.435299642973
315.22714834892;164.884220410745
315.248770600422;164.318422164278
315.270392851925;163.719325909899
315.292015103427;163.08757361537
315.313637354929;162.432725916718
315.335259606432;161.763928734179
315.356881857934;161.074791336765
315.378504109436;160.37087877947
315.400126360939;159.652235445787
315.421748612441;158.889187278433
315.443370863943;158.054123058345
315.464993115446;157.169188285103
315.486615366948;156.283872077782
315.50823761845;155.409810507257
315.529859869953;154.555931425054
315.551482121455;153.720151983466
315.573104372958;152.89139241171
315.59472662446;152.065508911968
315.616348875962;151.237263805725
315.637971127465;150.419808729277
315.659593378967;149.61892324007
315.681215630469;148.819909678488
315.702837881972;147.997081541678
315.724460133474;147.163711098096
315.746082384976;146.352163779901
315.767704636479;145.547432015283
315.789326887981;144.716916278142
315.810949139484;143.85020377284
315.832571390986;142.962863490037
315.854193642488;142.090034834883
315.875815893991;141.262222429007
315.897438145493;140.45029912037
315.919060396995;139.619907233617
315.940682648498;138.760702565705
315.9623049;137.884137884638
315.983927151502;137.013932111519
316.005549403005;136.172433340935
316.027171654507;135.372846107171
316.04879390601;134.614512016544
316.070416157512;133.887010875237
316.092038409014;133.15612470208
316.113660660517;132.389100630975
316.135282912019;131.622933617772
316.156905163521;130.910786880133
316.178527415024;130.233567282282
316.200149666526;129.590859725446
316.221771918028;129.003675535283
316.243394169531;128.462880210394
316.265016421033;127.943302351561
316.286638672536;127.457538595768
316.308260924038;127.001765979844
316.32988317554;126.585075579814
316.351505427043;126.208247282018
316.373127678545;125.865998049411
316.394749930047;125.547046768363
316.41637218155;125.231571825956
316.437994433052;124.900111594262
316.459616684554;124.551160381256
316.481238936057;124.189524708319
316.502861187559;123.807300365005
316.524483439062;123.389649121905
316.546105690564;122.925927758962
316.567727942066;122.415512898497
316.589350193569;121.862245154648
316.610972445071;121.268478468829
316.632594696573;120.632243483978
316.654216948076;119.956230788307
316.675839199578;119.256595517872
316.69746145108;118.553335945986
316.719083702583;117.848143160856
316.740705954085;117.1259417634
316.762328205588;116.3899285971
316.78395045709;115.66893248859
316.805572708592;114.970731547284
316.827194960095;114.277246884735
316.848817211597;113.59303240171
316.870439463099;112.937175810824
316.892061714602;112.312225416605
316.913683966104;111.713584680677
316.935306217606;111.142373340109
316.956928469109;110.608164411135
316.978550720611;110.118609613221
317.000172972114;109.665296797308
317.021795223616;109.239520478944
317.043417475118;108.843974703088
317.065039726621;108.473151777269
317.086661978123;108.125798387525
317.108284229625;107.803493793906
317.129906481128;107.508118166239
317.15152873263;107.239697467928
317.173150984132;106.995084857207
317.194773235635;106.777060466385
317.216395487137;106.600028529262
317.23801773864;106.455796499714
317.259639990142;106.33536937755
317.281262241644;106.232409128557
317.302884493147;106.157531302998
317.324506744649;106.116780209064
317.346128996151;106.096116015952
317.367751247654;106.082918240963
317.389373499156;106.068179893837
317.410995750658;106.045762753652
317.432618002161;106.0041256279
317.454240253663;105.943485160851
317.475862505166;105.860663556356
317.497484756668;105.760977580367
317.51910700817;105.650419391208
317.540729259673;105.530208136651
317.562351511175;105.401625738101
317.583973762677;105.265111213304
317.60559601418;105.120306394279
317.627218265682;104.974210231718
317.648840517184;104.835192693191
317.670462768687;104.704545266552
317.692085020189;104.578177590244
317.713707271692;104.464854632199
317.735329523194;104.381218774281
317.756951774696;104.323054086002
317.778574026199;104.283776264282
317.800196277701;104.263685197884
317.821818529203;104.263688418226
317.843440780706;104.284087366928
317.865063032208;104.320521333598
317.88668528371;104.363102261428
317.908307535213;104.405783154759
317.929929786715;104.449055335087
317.951552038218;104.490677443486
317.97317428972;104.528942494996
317.994796541222;104.564068270294
318.016418792725;104.594149484501
318.038041044227;104.61782074688
318.059663295729;104.642050993181
318.081285547232;104.674412333864
318.102907798734;104.715282354345
318.124530050236;104.75443881152
318.146152301739;104.791638957472
318.167774553241;104.835460133682
318.189396804744;104.888790148251
318.211019056246;104.950975975594
318.232641307748;105.02080922772
318.254263559251;105.09481064084
318.275885810753;105.164328255197
318.297508062255;105.227430736404
318.319130313758;105.293451717474
318.34075256526;105.366560841442
318.362374816762;105.439304113746
318.383997068265;105.505269780108
318.405619319767;105.57491560179
318.42724157127;105.661781649112
318.448863822772;105.760886533654
318.470486074274;105.863853955753
318.492108325777;105.976151123432
318.513730577279;106.100541947401
318.535352828781;106.228205582341
318.556975080284;106.350236487175
318.578597331786;106.460047582977
318.600219583288;106.550436336041
318.621841834791;106.614026817881
318.643464086293;106.649094916235
318.665086337796;106.65365831212
318.686708589298;106.624551565046
318.7083308408;106.561717992736
318.729953092303;106.473556894165
318.751575343805;106.373825035222
318.773197595307;106.265054330962
318.79481984681;106.146713759882
318.816442098312;106.024481580709
318.838064349814;105.902685571964
318.859686601317;105.782103721872
318.881308852819;105.685348078705
318.902931104322;105.620720203813
318.924553355824;105.575739109859
318.946175607326;105.543292315546
318.967797858829;105.524377939272
318.989420110331;105.526352312197
319.011042361833;105.552253152696
319.032664613336;105.596341432759
319.054286864838;105.648481112532
319.07590911634;105.70989353427
319.097531367843;105.780627730096
319.119153619345;105.85310844622
319.140775870848;105.905744617766
319.16239812235;105.936415561989
319.184020373852;105.944649531865
319.205642625355;105.922571255023
319.227264876857;105.893148785165
319.248887128359;105.866374863839
319.270509379862;105.831335691943
319.292131631364;105.788298435474
319.313753882866;105.758438826213
319.335376134369;105.736022157567
319.356998385871;105.709736881442
319.378620637374;105.698710890618
319.400242888876;105.71341569759
319.421865140378;105.764425552206
319.443487391881;105.857050007459
319.465109643383;105.986405720904
319.486731894885;106.153486816423
319.508354146388;106.364310561496
319.52997639789;106.622669206974
319.551598649392;106.915140781385
319.573220900895;107.234188625263
319.594843152397;107.564767971382
319.6164654039;107.900389418646
319.638087655402;108.224072350379
319.659709906904;108.523240335027
319.681332158407;108.799089530198
319.702954409909;109.047142251866
319.724576661411;109.245620312306
319.746198912914;109.403121147379
319.767821164416;109.531903170731
319.789443415918;109.634732899846
319.811065667421;109.706793747017
319.832687918923;109.749322000737
319.854310170425;109.771771672178
319.875932421928;109.774354537199
319.89755467343;109.762234608243
319.919176924933;109.748122533704
319.940799176435;109.737598530728
319.962421427937;109.727211314109
319.98404367944;109.720632690132
320.005665930942;109.719638507715
320.027288182444;109.731508930496
320.048910433947;109.75776862604
320.070532685449;109.788106312506
320.092154936951;109.818969913152
320.113777188454;109.850360400199
320.135399439956;109.873986396701
320.157021691459;109.878302528691
320.178643942961;109.856954122004
320.200266194463;109.812197299468
320.221888445966;109.742058530407
320.243510697468;109.642756928099
320.26513294897;109.509292783447
320.286755200473;109.341123870752
320.308377451975;109.152893373583
320.329999703477;108.953571409123
320.35162195498;108.741022396412
320.373244206482;108.517183735096
320.394866457985;108.287421004415
320.416488709487;108.051143594106
320.438110960989;107.804335771947
320.459733212492;107.547177186669
320.481355463994;107.28674345927
320.502977715496;107.032837505696
320.524599966999;106.793585769071
320.546222218501;106.571378350504
320.567844470003;106.355695910453
320.589466721506;106.141936628021
320.611088973008;105.938923910739
320.632711224511;105.760041087457
320.654333476013;105.613370111217
320.675955727515;105.495960126464
320.697577979018;105.408556008208
320.71920023052;105.361167691933
320.740822482022;105.362128904271
320.762444733525;105.415710933173
320.784066985027;105.519918932804
320.805689236529;105.66877276362
320.827311488032;105.866433594732
320.848933739534;106.113999421637
320.870555991037;106.395290023147
320.892178242539;106.703837232407
320.913800494041;107.041493414691
320.935422745544;107.378572306228
320.957044997046;107.689367119567
320.978667248548;107.975999059144
321.000289500051;108.237187584999
321.021911751553;108.473895553373
321.043534003055;108.688571649015
321.065156254558;108.883393604263
321.08677850606;109.062047800085
321.108400757563;109.225765653064
321.130023009065;109.380455721673
321.151645260567;109.537053430949
321.17326751207;109.70144781614
321.194889763572;109.877610653303
321.216512015074;110.066767889472
321.238134266577;110.266539996266
321.259756518079;110.475633125007
321.281378769581;110.687995439254
321.303001021084;110.891577785111
321.324623272586;111.068941526206
321.346245524089;111.205844281157
321.367867775591;111.305968732745
321.389490027093;111.377595364627
321.411112278596;111.41463705869
321.432734530098;111.391350504654
321.4543567816;111.293130667177
321.475979033103;111.129421213518
321.497601284605;110.923265655644
321.519223536107;110.692259170174
321.54084578761;110.43422930351
321.562468039112;110.162727276643
321.584090290615;109.898205250806
321.605712542117;109.653433402577
321.627334793619;109.429412463521
321.648957045122;109.222272920177
321.670579296624;109.040293861961
321.692201548126;108.895138797528
321.713823799629;108.776070006682
321.735446051131;108.669297279599
321.757068302633;108.564566522135
321.778690554136;108.448636922283
321.800312805638;108.312636673282
321.821935057141;108.147026910649
321.843557308643;107.937672383601
321.865179560145;107.671089068434
321.886801811648;107.340393850398
321.90842406315;106.949240062269
321.930046314652;106.509937464056
321.951668566155;106.039384137816
321.973290817657;105.540065154792
321.994913069159;104.996942138834
322.016535320662;104.394462730105
322.038157572164;103.73620819519
322.059779823667;103.068454051096
322.081402075169;102.44474412426
322.103024326671;101.851991258428
322.124646578174;101.25020526478
322.146268829676;100.630713843769
322.167891081178;100.013843864678
322.189513332681;99.4496318706783
322.211135584183;98.9712421216073
322.232757835685;98.5777681457597
322.254380087188;98.2755070163051
322.27600233869;98.0684603842256
322.297624590193;97.9387543096557
322.319246841695;97.8747504790737
322.340869093197;97.8833506539621
322.3624913447;97.9706652234115
322.384113596202;98.1228334981021
322.405735847704;98.3229211236059
322.427358099207;98.5595767193021
322.448980350709;98.8101183049904
322.470602602211;99.0400525781436
322.492224853714;99.2338363446424
322.513847105216;99.3828845091419
322.535469356719;99.4821760026451
322.557091608221;99.5271407658582
322.578713859723;99.5179744275606
322.600336111226;99.4661009759081
322.621958362728;99.3774870031117
322.64358061423;99.2526350384099
322.665202865733;99.0897584658298
322.686825117235;98.8894577508411
322.708447368737;98.6705322414362
322.73006962024;98.4511806065981
322.751691871742;98.2298282287285
322.773314123245;97.9995796342823
322.794936374747;97.7543629140927
322.816558626249;97.5007024171149
322.838180877752;97.246123999098
322.859803129254;96.9826016998871
322.881425380756;96.7112319647082
322.903047632259;96.4420356927236
322.924669883761;96.1789907193277
322.946292135263;95.918799275445
322.967914386766;95.6678590374324
322.989536638268;95.4352505405984
323.011158889771;95.2283262184937
323.032781141273;95.0537257543829
323.054403392775;94.919839322085
323.076025644278;94.8208958639674
323.09764789578;94.7467967168324
323.119270147282;94.6932830403567
323.140892398785;94.6562546426907
323.162514650287;94.6303200544579
323.184136901789;94.609689609846
323.205759153292;94.5843063419203
323.227381404794;94.5546075473217
323.249003656297;94.5265457126588
323.270625907799;94.4951608446978
323.292248159301;94.4552651967797
323.313870410804;94.4041996721585
323.335492662306;94.3431830965891
323.357114913808;94.2827875586869
323.378737165311;94.232214827273
323.400359416813;94.1926012693566
323.421981668315;94.1631477277884
323.443603919818;94.1441468750793
323.46522617132;94.127464952378
323.486848422823;94.0998104755101
323.508470674325;94.0489367599479
323.530092925827;93.9713928605328
323.55171517733;93.8624942572301
323.573337428832;93.7118693135826
323.594959680334;93.501419867195
323.616581931837;93.2323422704639
323.638204183339;92.921604939369
323.659826434841;92.5847462116541
323.681448686344;92.2324446640116
323.703070937846;91.863753684666
323.724693189349;91.4803811712781
323.746315440851;91.094904047362
323.767937692353;90.7187902772346
323.789559943856;90.3522417563926
323.811182195358;90.0025788797295
323.83280444686;89.6830052212968
323.854426698363;89.406612239973
323.876048949865;89.1680853060061
323.897671201367;88.9739375155314
323.91929345287;88.8228486463197
323.940915704372;88.7084113316426
323.962537955875;88.6360144283774
323.984160207377;88.6075005521926
324.005782458879;88.621308963927
324.027404710382;88.6836034139736
324.049026961884;88.7954119509295
324.070649213386;88.9457986743492
324.092271464889;89.1026563517297
324.113893716391;89.2359421176851
324.135515967893;89.3540040078669
324.157138219396;89.4563132293168
324.178760470898;89.5304039228489
324.2003827224;89.5717889821288
324.222004973903;89.5930939344636
324.243627225405;89.5937837148174
324.265249476908;89.5702314647357
324.28687172841;89.5246056257956
324.308493979912;89.4614026877519
324.330116231415;89.3848085348215
324.351738482917;89.3012390714855
324.373360734419;89.2137659848953
324.394982985922;89.1263836945858
324.416605237424;89.0370442393226
324.438227488926;88.9473300275597
324.459849740429;88.8660870819627
324.481471991931;88.7849188641518
324.503094243434;88.6875599159952
324.524716494936;88.5728031432252
324.546338746438;88.4538522621234
324.567960997941;88.3320228347143
324.589583249443;88.2032541221232
324.611205500945;88.0654871920568
324.632827752448;87.9131845838927
324.65445000395;87.7539953342296
324.676072255452;87.6071339286458
324.697694506955;87.4652651295671
324.719316758457;87.3254029344485
324.74093900996;87.1879372257832
324.762561261462;87.0482228758899
