Name;ESR_BC_1_7200s_Z_gon_120dg_result

Recipe
Accumulations;5;Number of accumulations
RetryCount;0;Number of retries on error
AbortOnError;True;Abort on error
EnableQFactorMeasurement;False;Enable/Disable q-Factor measurement
Bfrom;313;B from
Bto;363;B to
SweepTime;60;Sweep time
Modulation;0.2;Modulation
ModulationFreq;100;Modulation
BHoldEnabled;False;B hold enabled
BHold;0;B hold
MicrowavePower;2;Microwave power
MarkerEnabled;False;
MarkerStartField;0;
MarkerEndField;0;
Mode;;
KineticGFact;0;
KineticTotalTransientTime;0;
KineticTimeResolution;0;
TempFrom;5;
TempUseSlope;False;
TempTo;5;
TempdT;1;
TempSetupTime;0;
GonFrom;0;
GonTo;180;
GonSteps;20;
XRayEnabled;False;
XRayTime;3;
XRayVoltage;40;
XRayCurrent;0.5;
UVEnabled;False;
UVIntensity;0;
UVTime;0;
UVLeadTime;0;
UVWavelength;0;
PowSweepFrom;1;
PowSweepTo;5;
PowSweepSteps;5;
AmpModSweepFrom;0;
AmpModSweepTo;1;
AmpModSweepSteps;10;
ExtTriggerEnabled;False;
ExtTrigLeadTime;0;
ExtTrigOnTime;5;

Meas
BField [mT];MW_Absorption []
313.021020355225;68.5860099426331
313.042645135921;68.038828199542
313.064269916617;67.5335759627973
313.085894697313;67.0986654526856
313.107519478009;66.7254566434781
313.129144258706;66.4241034680957
313.150769039402;66.2186744416091
313.172393820098;66.1021727227827
313.194018600794;66.0765186256129
313.21564338149;66.1359534664302
313.237268162187;66.2755844102701
313.258892942883;66.4937323480821
313.280517723579;66.7961226451609
313.302142504275;67.1971221943268
313.323767284971;67.6906501440616
313.345392065668;68.2380539146205
313.367016846364;68.7969443719264
313.38864162706;69.3523135344292
313.410266407756;69.9076540644827
313.431891188452;70.4488934601894
313.453515969148;70.9561611404608
313.475140749845;71.4236891357499
313.496765530541;71.8410945427598
313.518390311237;72.1978973279062
313.540015091933;72.5008496146863
313.561639872629;72.7586878253357
313.583264653326;72.9741755889022
313.604889434022;73.1444921406852
313.626514214718;73.26664531081
313.648138995414;73.3439323018457
313.66976377611;73.3826051830536
313.691388556807;73.384215949702
313.713013337503;73.3556250151408
313.734638118199;73.3037136383234
313.756262898895;73.2278803059727
313.777887679591;73.1261285982809
313.799512460288;72.9991389011489
313.821137240984;72.8548868873336
313.84276202168;72.706826047382
313.864386802376;72.5664054630259
313.886011583072;72.4312015058265
313.907636363768;72.2909517673724
313.929261144465;72.1470276838132
313.950885925161;72.0139914051195
313.972510705857;71.893168300225
313.994135486553;71.775806550308
314.015760267249;71.6646754511607
314.037385047946;71.5757068770308
314.059009828642;71.5124603019006
314.080634609338;71.4704039928413
314.102259390034;71.4488897654744
314.12388417073;71.4521354557812
314.145508951427;71.4834214921316
314.167133732123;71.5449352390759
314.188758512819;71.6426655526795
314.210383293515;71.7777444037798
314.232008074211;71.9473120042973
314.253632854908;72.1386715382764
314.275257635604;72.3401697119835
314.2968824163;72.549824982947
314.318507196996;72.7681832548998
314.340131977692;72.9922818811774
314.361756758388;73.2184991765513
314.383381539085;73.4317883977969
314.405006319781;73.6332255940205
314.426631100477;73.8255988026316
314.448255881173;74.0048532684642
314.469880661869;74.1639137758427
314.491505442566;74.2939954525464
314.513130223262;74.388595894837
314.534755003958;74.4497060448857
314.556379784654;74.4830969637973
314.57800456535;74.4921691435004
314.599629346047;74.4719849236436
314.621254126743;74.4239451047925
314.642878907439;74.3665060527562
314.664503688135;74.3071452906165
314.686128468831;74.2395303441421
314.707753249528;74.1714667576921
314.729378030224;74.1271745433605
314.75100281092;74.1255040752731
314.772627591616;74.1787805971119
314.794252372312;74.2943322188973
314.815877153009;74.4604512758554
314.837501933705;74.6663610933696
314.859126714401;74.9080847240926
314.880751495097;75.1612071334919
314.902376275793;75.401062550632
314.924001056489;75.6205272382176
314.945625837186;75.8149847092428
314.967250617882;75.9705781350515
314.988875398578;76.0726097079672
315.010500179274;76.1143384588924
315.03212495997;76.0853550585591
315.053749740667;75.9881213026228
315.075374521363;75.8432501596439
315.096999302059;75.6770729029427
315.118624082755;75.4998044398509
315.140248863451;75.3121391819548
315.161873644148;75.1310764223411
315.183498424844;74.9804066865032
315.20512320554;74.8617168178699
315.226747986236;74.7644615147878
315.248372766932;74.6819840251881
315.269997547629;74.6149213992934
315.291622328325;74.5796310923745
315.313247109021;74.5720572537168
315.334871889717;74.5720788005617
315.356496670413;74.5731252186717
315.37812145111;74.5761356164111
315.399746231806;74.5845649917993
315.421371012502;74.5968754632074
315.442995793198;74.6022594255969
315.464620573894;74.5920461946456
315.48624535459;74.5674227525321
315.507870135287;74.529172864584
315.529494915983;74.4669786716276
315.551119696679;74.369919206521
315.572744477375;74.2350376635505
315.594369258071;74.0708386201767
315.615994038768;73.893815652051
315.637618819464;73.7014075084528
315.65924360016;73.4863066351026
315.680868380856;73.254565430431
315.702493161552;73.0106555176143
315.724117942249;72.7450339310996
315.745742722945;72.4514114189269
315.767367503641;72.1358411072305
315.788992284337;71.804147351515
315.810617065033;71.4719260973252
315.83224184573;71.1505846694138
315.853866626426;70.8417157492884
315.875491407122;70.5441119406687
315.897116187818;70.2597545436618
315.918740968514;70.0075980269604
315.940365749211;69.8119710691245
315.961990529907;69.6795642667219
315.983615310603;69.6145563483455
316.005240091299;69.6359266490544
316.026864871995;69.7547093368026
316.048489652691;69.956941736027
316.070114433388;70.2289885313412
316.091739214084;70.5655361869008
316.11336399478;70.9615118696302
316.134988775476;71.4063684805192
316.156613556172;71.8890951486347
316.178238336869;72.3949535201422
316.199863117565;72.8950676648122
316.221487898261;73.3595951370989
316.243112678957;73.7717898915309
316.264737459653;74.1192895847321
316.28636224035;74.3995762237385
316.307987021046;74.6239018507082
316.329611801742;74.7971040236668
316.351236582438;74.9050560453879
316.372861363134;74.9357138267896
316.394486143831;74.9061130990092
316.416110924527;74.8430907315709
316.437735705223;74.7744268905708
316.459360485919;74.7097328155088
316.480985266615;74.6337748725863
316.502610047312;74.5385245648078
316.524234828008;74.4186915991616
316.545859608704;74.2596701008113
316.5674843894;74.0541673410229
316.589109170096;73.8112919599308
316.610733950792;73.5295605265948
316.632358731489;73.2022315063534
316.653983512185;72.8203175356918
316.675608292881;72.3858375840061
316.697233073577;71.9181412590819
316.718857854273;71.4581355739591
316.74048263497;71.0163771012784
316.762107415666;70.5948472677132
316.783732196362;70.20075836982
316.805356977058;69.8436519977008
316.826981757754;69.5253578303744
316.848606538451;69.2409162265617
316.870231319147;69.0124396468109
316.891856099843;68.869408941673
316.913480880539;68.7977856917218
316.935105661235;68.7831148540867
316.956730441932;68.8241825810259
316.978355222628;68.9061301954787
316.999980003324;69.0079879282574
317.02160478402;69.1247419958756
317.043229564716;69.262778258832
317.064854345412;69.4172578287831
317.086479126109;69.5860652461939
317.108103906805;69.7713559200998
317.129728687501;69.9625009971049
317.151353468197;70.1506825357139
317.172978248893;70.3360204442558
317.19460302959;70.5255791656591
317.216227810286;70.7195574897885
317.237852590982;70.912012044037
317.259477371678;71.0994060404125
317.281102152374;71.2673156310787
317.302726933071;71.401350189984
317.324351713767;71.5016781295207
317.345976494463;71.5726439707367
317.367601275159;71.6164172359326
317.389226055855;71.6239911362326
317.410850836552;71.5845753518376
317.432475617248;71.5099810390635
317.454100397944;71.4115407318856
317.47572517864;71.292697450377
317.497349959336;71.1476409021746
317.518974740032;70.973262688429
317.540599520729;70.7943810540207
317.562224301425;70.6314201142175
317.583849082121;70.4873965680156
317.605473862817;70.3541500683566
317.627098643513;70.224211013721
317.64872342421;70.1178375843528
317.670348204906;70.0686805009724
317.691972985602;70.0713029812783
317.713597766298;70.1191678387561
317.735222546994;70.2160006074524
317.756847327691;70.3636216208594
317.778472108387;70.5551581454777
317.800096889083;70.7708464619169
317.821721669779;70.9916246108699
317.843346450475;71.2070452150489
317.864971231172;71.4099825804747
317.886596011868;71.5874952182488
317.908220792564;71.7121910731316
317.92984557326;71.7613438304045
317.951470353956;71.737438069556
317.973095134653;71.6493650617262
317.994719915349;71.5051620391942
318.016344696045;71.3228035379437
318.037969476741;71.1165983001616
318.059594257437;70.8859895766317
318.081219038134;70.6216126946836
318.10284381883;70.3384975635841
318.124468599526;70.0732469422638
318.146093380222;69.8450545963798
318.167718160918;69.6592464530535
318.189342941614;69.5166711057336
318.210967722311;69.4224700213123
318.232592503007;69.3764064411012
318.254217283703;69.3702803636838
318.275842064399;69.3871051773004
318.297466845095;69.4035923345316
318.319091625792;69.4008756766474
318.340716406488;69.3588601473503
318.362341187184;69.2546916552499
318.38396596788;69.078289024208
318.405590748576;68.8266240121626
318.427215529273;68.4936461201035
318.448840309969;68.0701693099729
318.470465090665;67.5513381299858
318.492089871361;66.9517655576935
318.513714652057;66.3084815174371
318.535339432754;65.6230506111024
318.55696421345;64.8713321679455
318.578588994146;64.0813612134834
318.600213774842;63.3299364969163
318.621838555538;62.6344801922069
318.643463336235;61.9728741404035
318.665088116931;61.3372969777118
318.686712897627;60.7364093085751
318.708337678323;60.1781231033584
318.729962459019;59.6716896577298
318.751587239715;59.2333780635412
318.773212020412;58.8653675692041
318.794836801108;58.569502417565
318.816461581804;58.3480774358447
318.8380863625;58.1893000897984
318.859711143196;58.0833222036811
318.881335923893;58.0430160010517
318.902960704589;58.0613036939177
318.924585485285;58.1169699860007
318.946210265981;58.2029268723622
318.967835046677;58.3158767135329
318.989459827374;58.4503665628134
319.01108460807;58.6001195464046
319.032709388766;58.7604485073496
319.054334169462;58.9293346935876
319.075958950158;59.1020023870351
319.097583730855;59.2711015925192
319.119208511551;59.4354916452382
319.140833292247;59.5982055388094
319.162458072943;59.7583679469158
319.184082853639;59.9109026556307
319.205707634335;60.0517850269371
319.227332415032;60.1936146013261
319.248957195728;60.3473852002486
319.270581976424;60.5032021404468
319.29220675712;60.6523596409622
319.313831537816;60.7969231066668
319.335456318513;60.9396279505205
319.357081099209;61.0810441036652
319.378705879905;61.2196363924617
319.400330660601;61.353455875434
319.421955441297;61.4859464537068
319.443580221994;61.623371127542
319.46520500269;61.769305922354
319.486829783386;61.9265323586184
319.508454564082;62.0989561274103
319.530079344778;62.2858100027499
319.551704125475;62.4773996065638
319.573328906171;62.6663199356165
319.594953686867;62.8553973063383
319.616578467563;63.047900458673
319.638203248259;63.2377316208806
319.659828028956;63.4155021094312
319.681452809652;63.5766927549288
319.703077590348;63.717040628938
319.724702371044;63.8182557212721
319.74632715174;63.8508240583788
319.767951932436;63.8083628328033
319.789576713133;63.7064613803915
319.811201493829;63.5514682089619
319.832826274525;63.3460298748503
319.854451055221;63.0996020402392
319.876075835917;62.8328650446407
319.897700616614;62.5506527593659
319.91932539731;62.2560717839661
319.940950178006;61.9624016872356
319.962574958702;61.6823608015798
319.984199739398;61.41356415485
320.005824520095;61.1537217525332
320.027449300791;60.8997677507229
320.049074081487;60.6428399327579
320.070698862183;60.3808396518697
320.092323642879;60.1217834245589
320.113948423576;59.8711743812633
320.135573204272;59.623037337475
320.157197984968;59.3612438384984
320.178822765664;59.0671651523678
320.20044754636;58.7359896469807
320.222072327056;58.3882980174632
320.243697107753;58.0412183143889
320.265321888449;57.6864780454643
320.286946669145;57.3099065262664
320.308571449841;56.9071893529091
320.330196230537;56.4875509863245
320.351821011234;56.0687857943737
320.37344579193;55.6768366361502
320.395070572626;55.3212825916936
320.416695353322;55.0021794546981
320.438320134018;54.7356862381524
320.459944914715;54.5360211591012
320.481569695411;54.4083613131914
320.503194476107;54.352180685402
320.524819256803;54.362547966804
320.546444037499;54.4393150411538
320.568068818196;54.5856819761543
320.589693598892;54.8042951541573
320.611318379588;55.0922877369343
320.632943160284;55.4413684489779
320.65456794098;55.834458619634
320.676192721677;56.2585297422233
320.697817502373;56.7103859145165
320.719442283069;57.1831377192107
320.741067063765;57.6611600674492
320.762691844461;58.1316982182701
320.784316625157;58.6015060653762
320.805941405854;59.0827992671901
320.82756618655;59.5633884021076
320.849190967246;60.0192825712634
320.870815747942;60.4377632855142
320.892440528638;60.8256242360142
320.914065309335;61.1718877933336
320.935690090031;61.4560687736422
320.957314870727;61.6703931616043
320.978939651423;61.8176958038403
321.000564432119;61.900640468037
321.022189212816;61.9225552226615
321.043813993512;61.8857440422803
321.065438774208;61.788093066473
321.087063554904;61.6339030251306
321.1086883356;61.4367198713228
321.130313116297;61.2042563183302
321.151937896993;60.9340154609387
321.173562677689;60.6305853518122
321.195187458385;60.3010329218282
321.216812239081;59.9434964853712
321.238437019778;59.5566259131535
321.260061800474;59.1429747328002
321.28168658117;58.7226458779836
321.303311361866;58.304951729654
321.324936142562;57.8964185888268
321.346560923258;57.5005569123498
321.368185703955;57.1215581041777
321.389810484651;56.7742053343416
321.411435265347;56.4674922219696
321.433060046043;56.1997499363208
321.454684826739;55.9791978714781
321.476309607436;55.8168356502505
321.497934388132;55.7119565608957
321.519559168828;55.6562224436261
321.541183949524;55.6411522707778
321.56280873022;55.6595797019479
321.584433510917;55.6967193453906
321.606058291613;55.7343166434848
321.627683072309;55.7630300059789
321.649307853005;55.7812484566638
321.670932633701;55.787632814486
321.692557414398;55.7675450204609
321.714182195094;55.7041007705217
321.73580697579;55.597157962034
321.757431756486;55.448594939906
321.779056537182;55.2605686458266
321.800681317879;55.0398622249361
321.822306098575;54.7906629126457
321.843930879271;54.515353096305
321.865555659967;54.2193694824497
321.887180440663;53.8980858084193
321.908805221359;53.5421253975324
321.930430002056;53.1623532250447
321.952054782752;52.7783444479667
321.973679563448;52.3909786360959
321.995304344144;52.0106274197006
322.01692912484;51.6611240076082
322.038553905537;51.3464348155028
322.060178686233;51.07670055465
322.081803466929;50.8664296157071
322.103428247625;50.7072208497648
322.125053028321;50.5883937074794
322.146677809018;50.5107466782975
322.168302589714;50.4813998742102
322.18992737041;50.4918141546881
322.211552151106;50.5244263054419
322.233176931802;50.5622086241755
322.254801712499;50.5825404028384
322.276426493195;50.5710144148683
322.298051273891;50.5175447340105
322.319676054587;50.4203242897556
322.341300835283;50.2754149469925
322.362925615979;50.0744679841604
322.384550396676;49.8193383824565
322.406175177372;49.5236686498889
322.427799958068;49.1968360533983
322.449424738764;48.8465110303875
322.47104951946;48.4874747012928
322.492674300157;48.1422712435148
322.514299080853;47.8263146840478
322.535923861549;47.5546970995144
322.557548642245;47.3353779168914
322.579173422941;47.1861574077948
322.600798203638;47.1288045688232
322.622422984334;47.1712944145379
322.64404776503;47.3050957556563
322.665672545726;47.5089176122245
322.687297326422;47.7653161218014
322.708922107119;48.0727479630659
322.730546887815;48.4293823259266
322.752171668511;48.82097161126
322.773796449207;49.2314151630718
322.795421229903;49.6516986588112
322.817046010599;50.0792762009372
322.838670791296;50.508076150512
322.860295571992;50.938331457608
322.881920352688;51.393008178541
322.903545133384;51.8612722216664
322.92516991408;52.2855263843751
322.946794694777;52.670495667177
322.968419475473;53.0252897384629
322.990044256169;53.3350491260658
323.011669036865;53.5872112676276
323.033293817561;53.7804541310907
323.054918598258;53.9070003316467
323.076543378954;53.9657477096117
323.09816815965;53.9577987398959
323.119792940346;53.8829084775864
323.141417721042;53.7466663823019
323.163042501739;53.5560084770887
323.184667282435;53.3114926192114
323.206292063131;53.0087252358463
323.227916843827;52.6513229371113
323.249541624523;52.2452890951974
323.27116640522;51.7981146633572
323.292791185916;51.3193444470212
323.314415966612;50.8439737077488
323.336040747308;50.3800498021721
323.357665528004;49.9186717204
323.3792903087;49.4592658126537
323.400915089397;49.0083046809124
323.422539870093;48.5672399963254
323.444164650789;48.1288930139576
323.465789431485;47.7060898936602
323.487414212181;47.318276614471
323.509038992878;46.9610227892249
323.530663773574;46.6221359592499
323.55228855427;46.2856967685681
323.573913334966;45.9370365980944
323.595538115662;45.5868740604124
323.617162896359;45.2471013692021
323.638787677055;44.9150264729615
323.660412457751;44.5859092720239
323.682037238447;44.2721246984297
323.703662019143;43.9915642297965
323.72528679984;43.7425929596466
323.746911580536;43.519829040662
323.768536361232;43.3250476311283
323.790161141928;43.1652696867707
323.811785922624;43.0354009586406
323.833410703321;42.927654883034
323.855035484017;42.8352427718635
323.876660264713;42.7461640669066
323.898285045409;42.6497874047037
323.919909826105;42.5480367732885
323.941534606802;42.4521925377631
323.963159387498;42.3524586535871
323.984784168194;42.2263667833023
324.00640894889;42.072288891192
324.028033729586;41.9039611468757
324.049658510282;41.739316628175
324.071283290979;41.5833125052461
324.092908071675;41.4362646382499
324.114532852371;41.298965255706
324.136157633067;41.173852903058
324.157782413763;41.0737069336651
324.17940719446;41.0216119537453
324.201031975156;41.0172189230805
324.222656755852;41.0404726679485
324.244281536548;41.0829509162699
324.265906317244;41.1485318129887
324.287531097941;41.2406343195576
324.309155878637;41.3607714372374
324.330780659333;41.5012984746842
324.352405440029;41.6387971615163
324.374030220725;41.7630626711987
324.395655001422;41.8826200184285
324.417279782118;42.0070794631877
324.438904562814;42.1328289682651
324.46052934351;42.2531088115139
324.482154124206;42.3646012170864
324.503778904902;42.4643805822101
324.525403685599;42.5461668595888
324.547028466295;42.6043970961948
324.568653246991;42.6313845990387
324.590278027687;42.6197690945022
324.611902808383;42.5695921286945
324.63352758908;42.4771612730714
324.655152369776;42.3305039350418
324.676777150472;42.1316038089282
324.698401931168;41.8997782460495
324.720026711864;41.6474878751546
324.741651492561;41.3724199076929
324.763276273257;41.0731139850748
324.784901053953;40.7625848073493
