Name;ESR_BC_1_89s_Y_gon_60dg_result

Recipe
Accumulations;5;Number of accumulations
RetryCount;0;Number of retries on error
AbortOnError;True;Abort on error
EnableQFactorMeasurement;False;Enable/Disable q-Factor measurement
Bfrom;313;B from
Bto;363;B to
SweepTime;60;Sweep time
Modulation;0.2;Modulation
ModulationFreq;100;Modulation
BHoldEnabled;False;B hold enabled
BHold;0;B hold
MicrowavePower;2;Microwave power
MarkerEnabled;False;
MarkerStartField;0;
MarkerEndField;0;
Mode;;
KineticGFact;0;
KineticTotalTransientTime;0;
KineticTimeResolution;0;
TempFrom;5;
TempUseSlope;False;
TempTo;5;
TempdT;1;
TempSetupTime;0;
GonFrom;0;
GonTo;180;
GonSteps;20;
XRayEnabled;False;
XRayTime;3;
XRayVoltage;40;
XRayCurrent;0.5;
UVEnabled;False;
UVIntensity;0;
UVTime;0;
UVLeadTime;0;
UVWavelength;0;
PowSweepFrom;1;
PowSweepTo;5;
PowSweepSteps;5;
AmpModSweepFrom;0;
AmpModSweepTo;1;
AmpModSweepSteps;10;
ExtTriggerEnabled;False;
ExtTrigLeadTime;0;
ExtTrigOnTime;5;

Meas
BField [mT];MW_Absorption []
313.01540397644;205.165716876607
313.037027803567;204.916838973875
313.058651630694;204.625220980964
313.08027545782;204.281827972342
313.101899284947;203.880943114011
313.123523112074;203.425405259533
313.145146939201;202.934065843089
313.166770766327;202.422765750539
313.188394593454;201.88388519443
313.210018420581;201.322179248376
313.231642247707;200.758467666138
313.253266074834;200.218437116008
313.274889901961;199.718389686882
313.296513729087;199.261803637633
313.318137556214;198.840770103818
313.339761383341;198.446755910518
313.361385210467;198.101895454828
313.383009037594;197.854256605455
313.404632864721;197.692898007322
313.426256691847;197.589221675859
313.447880518974;197.535411287613
313.469504346101;197.534497545743
313.491128173227;197.577386274974
313.512752000354;197.658758281733
313.534375827481;197.777047705695
313.555999654607;197.91872265082
313.577623481734;198.075067313578
313.599247308861;198.246163117052
313.620871135987;198.42025679932
313.642494963114;198.580410689186
313.664118790241;198.714679038317
313.685742617367;198.823218204656
313.707366444494;198.906691149136
313.728990271621;198.968065460796
313.750614098747;199.008778889477
313.772237925874;199.028121142409
313.793861753001;199.027665352312
313.815485580127;199.010155094344
313.837109407254;198.978486783549
313.858733234381;198.94331883945
313.880357061507;198.910921463634
313.901980888634;198.875152630852
313.923604715761;198.830700480299
313.945228542887;198.765325714695
313.966852370014;198.667537579764
313.988476197141;198.537375123357
314.010100024268;198.379323902572
314.031723851394;198.202880287486
314.053347678521;198.005321282794
314.074971505648;197.778517546979
314.096595332774;197.512972146373
314.118219159901;197.218316768519
314.139842987028;196.902632282477
314.161466814154;196.575343302305
314.183090641281;196.248165390713
314.204714468408;195.924805820436
314.226338295534;195.602650162916
314.247962122661;195.282812702753
314.269585949788;194.964953406894
314.291209776914;194.644892999372
314.312833604041;194.311129598064
314.334457431168;193.958288013224
314.356081258294;193.588276079062
314.377705085421;193.214611918865
314.399328912548;192.854532391323
314.420952739674;192.515321172618
314.442576566801;192.190364559454
314.464200393928;191.866715501082
314.485824221054;191.543342763088
314.507448048181;191.237707140144
314.529071875308;190.967379360942
314.550695702434;190.731305912513
314.572319529561;190.524596771553
314.593943356688;190.363458369868
314.615567183814;190.253064138895
314.637191010941;190.170975498085
314.658814838068;190.110051028767
314.680438665194;190.067592466823
314.702062492321;190.028096313594
314.723686319448;189.982856994137
314.745310146574;189.92742657773
314.766933973701;189.851944621367
314.788557800828;189.742508455278
314.810181627954;189.587837540804
314.831805455081;189.388222935998
314.853429282208;189.158212187465
314.875053109334;188.908046474522
314.896676936461;188.631542049361
314.918300763588;188.309736456605
314.939924590715;187.947591789742
314.961548417841;187.579446684597
314.983172244968;187.230823167767
315.004796072095;186.925292001746
315.026419899221;186.664410220723
315.048043726348;186.444924709527
315.069667553475;186.266302010436
315.091291380601;186.137881083191
315.112915207728;186.058770584885
315.134539034855;186.00814572432
315.156162861981;185.972786687496
315.177786689108;185.954215551993
315.199410516235;185.95360947498
315.221034343361;185.959551650788
315.242658170488;185.948850077202
315.264281997615;185.894892796276
315.285905824741;185.785901078997
315.307529651868;185.620429606778
315.329153478995;185.396226657113
315.350777306121;185.11548575012
315.372401133248;184.773878396878
315.394024960375;184.370838925474
315.415648787501;183.912217903408
315.437272614628;183.398977915501
315.458896441755;182.80087422052
315.480520268881;182.103561885855
315.502144096008;181.329706888203
315.523767923135;180.514755691807
315.545391750261;179.661752633394
315.567015577388;178.727594801872
315.588639404515;177.683165434503
315.610263231641;176.593820212829
315.631887058768;175.552988742588
315.653510885895;174.559336705938
315.675134713021;173.560827112052
315.696758540148;172.553903513063
315.718382367275;171.573929709909
315.740006194401;170.618170823803
315.761630021528;169.673550625096
315.783253848655;168.747954984161
315.804877675782;167.843732365007
315.826501502908;166.953604112191
315.848125330035;166.070625831619
315.869749157162;165.209810958836
315.891372984288;164.376805940698
315.912996811415;163.556276470564
315.934620638542;162.771872413873
315.956244465668;162.050825260194
315.977868292795;161.386768723015
315.999492119922;160.766772144833
316.021115947048;160.195771283939
316.042739774175;159.672200410978
316.064363601302;159.181716222475
316.085987428428;158.716047866287
316.107611255555;158.277468698587
316.129235082682;157.862086384404
316.150858909808;157.460417521574
316.172482736935;157.067508143984
316.194106564062;156.680921116156
316.215730391188;156.296404712583
316.237354218315;155.906175555988
316.258978045442;155.504624490517
316.280601872568;155.070788640604
316.302225699695;154.579822571198
316.323849526822;154.052940509426
316.345473353948;153.502705645488
316.367097181075;152.908981781685
316.388721008202;152.255229277079
316.410344835328;151.563317175472
316.431968662455;150.844212711727
316.453592489582;150.093172460741
316.475216316708;149.317623135479
316.496840143835;148.499958597124
316.518463970962;147.598838772895
316.540087798088;146.651094436346
316.561711625215;145.731003705623
316.583335452342;144.850055954114
316.604959279469;143.984311531025
316.626583106595;143.096220114379
316.648206933722;142.139567534917
316.669830760849;141.133678626389
316.691454587975;140.148592630713
316.713078415102;139.221253775433
316.734702242229;138.323366315701
316.756326069355;137.39651578289
316.777949896482;136.413013114752
316.799573723609;135.440334230481
316.821197550735;134.515201002159
316.842821377862;133.621691507511
316.864445204989;132.729457661067
316.886069032115;131.847167253777
316.907692859242;130.992890848258
316.929316686369;130.152239275869
316.950940513495;129.304940360964
316.972564340622;128.470444168188
316.994188167749;127.679457756551
317.015811994875;126.928232995
317.037435822002;126.214961880173
317.059059649129;125.552239980966
317.080683476255;124.94246235538
317.102307303382;124.372442550089
317.123931130509;123.822727156318
317.145554957635;123.271923700251
317.167178784762;122.71335545093
317.188802611889;122.15476720175
317.210426439015;121.611526282296
317.232050266142;121.097038664605
317.253674093269;120.602380371149
317.275297920395;120.097384335237
317.296921747522;119.595051503962
317.318545574649;119.121018808808
317.340169401775;118.668450289034
317.361793228902;118.228709027556
317.383417056029;117.79172927221
317.405040883155;117.344118530094
317.426664710282;116.874833648226
317.448288537409;116.386099259303
317.469912364536;115.896926253844
317.491536191662;115.421742150884
317.513160018789;114.957577173675
317.534783845916;114.496340105763
317.556407673042;114.028650544841
317.578031500169;113.55869712069
317.599655327296;113.096466872913
317.621279154422;112.638680850593
317.642902981549;112.185011257571
317.664526808676;111.741441894768
317.686150635802;111.307804023788
317.707774462929;110.876001519654
317.729398290056;110.44519993502
317.751022117182;110.028065806343
317.772645944309;109.628575416462
317.794269771436;109.236769280594
317.815893598562;108.844740291961
317.837517425689;108.44853650476
317.859141252816;108.058389073034
317.880765079942;107.697132712945
317.902388907069;107.381607783907
317.924012734196;107.11124267196
317.945636561322;106.881241960789
317.967260388449;106.679008871058
317.988884215576;106.499841130169
318.010508042702;106.356470546114
318.032131869829;106.251140389626
318.053755696956;106.161697583216
318.075379524082;106.06589925427
318.097003351209;105.956296005448
318.118627178336;105.827328751017
318.140251005462;105.672228478518
318.161874832589;105.493597913239
318.183498659716;105.293770598423
318.205122486842;105.069447805929
318.226746313969;104.818252539186
318.248370141096;104.543085147764
318.269993968222;104.253302191985
318.291617795349;103.968525295905
318.313241622476;103.704662560849
318.334865449602;103.467089981746
318.356489276729;103.263118249009
318.378113103856;103.100869101542
318.399736930983;102.962401925924
318.421360758109;102.83320524278
318.442984585236;102.70874454567
318.464608412363;102.589809090516
318.486232239489;102.459517724473
318.507856066616;102.303474353268
318.529479893743;102.122618694341
318.551103720869;101.923504365572
318.572727547996;101.708277386891
318.594351375123;101.474548833342
318.615975202249;101.21997398239
318.637599029376;100.933756490441
318.659222856503;100.627759255963
318.680846683629;100.323353413483
318.702470510756;100.019399333579
318.724094337883;99.6998355362086
318.745718165009;99.3445203402523
318.767341992136;98.9690312340314
318.788965819263;98.6096457209187
318.810589646389;98.2737196153327
318.832213473516;97.9544036856111
318.853837300643;97.6543688461323
318.875461127769;97.3793424506018
318.897084954896;97.1265933219885
318.918708782023;96.8927900033595
318.940332609149;96.6783438217531
318.961956436276;96.4941054500023
318.983580263403;96.3499364188089
319.005204090529;96.2395994338324
319.026827917656;96.149063135993
319.048451744783;96.0665072536785
319.070075571909;95.9807814091547
319.091699399036;95.8773634107381
319.113323226163;95.7535149410625
319.134947053289;95.6064335453852
319.156570880416;95.4299360364857
319.178194707543;95.2135335406863
319.19981853467;94.9754946694642
319.221442361796;94.7402990306699
319.243066188923;94.5055480934475
319.26469001605;94.2677494626007
319.286313843176;94.0342622220202
319.307937670303;93.8229144705692
319.32956149743;93.6494478982038
319.351185324556;93.5179224322333
319.372809151683;93.4338518385564
319.39443297881;93.407831763749
319.416056805936;93.4379626496931
319.437680633063;93.5110405517251
319.45930446019;93.6247727523862
319.480928287316;93.7831348878765
319.502552114443;93.9857982568971
319.52417594157;94.2253154026803
319.545799768696;94.4860035364737
319.567423595823;94.7471980554758
319.58904742295;95.0018371496004
319.610671250076;95.2498278917315
319.632295077203;95.492385677474
319.65391890433;95.7268899181413
319.675542731456;95.9472808882718
319.697166558583;96.1501324033491
319.71879038571;96.3423507566228
319.740414212836;96.5391406843982
319.762038039963;96.7552992934563
319.78366186709;96.9780398090701
319.805285694216;97.1818398273941
319.826909521343;97.360964911338
319.84853334847;97.5170148695436
319.870157175596;97.6468874563857
319.891781002723;97.7452434772166
319.91340482985;97.8102140747787
319.935028656976;97.8422836706173
319.956652484103;97.8394464484173
319.97827631123;97.8089340844091
319.999900138357;97.7675052993088
320.021523965483;97.7051442265393
320.04314779261;97.6159249097872
320.064771619737;97.5008835935134
320.086395446863;97.3702734740215
320.10801927399;97.2475707327556
320.129643101117;97.14784681559
320.151266928243;97.0710990741192
320.17289075537;97.0185630253733
320.194514582497;96.9959000182042
320.216138409623;97.0083381407378
320.23776223675;97.0575356305255
320.259386063877;97.1394921918297
320.281009891003;97.2355431684999
320.30263371813;97.3300995741661
320.324257545257;97.4164787907774
320.345881372383;97.4906159825803
320.36750519951;97.5471107756646
320.389129026637;97.5855621517741
320.410752853763;97.6057792170696
320.43237668089;97.6047488257259
320.454000508017;97.5804161563878
320.475624335143;97.5373676780067
320.49724816227;97.4840324147736
320.518871989397;97.4235155186514
320.540495816523;97.3585479110239
320.56211964365;97.3010211460459
320.583743470777;97.2644862033771
320.605367297903;97.250126286744
320.62699112503;97.2603412497284
320.648614952157;97.3129821488806
320.670238779283;97.407347809723
320.69186260641;97.5250503539606
320.713486433537;97.6492472614897
320.735110260663;97.7720776127678
320.75673408779;97.8920660842028
320.778357914917;98.0025016845205
320.799981742043;98.0869630127275
320.82160556917;98.1398623597258
320.843229396297;98.1658563510904
320.864853223423;98.1631189578215
320.88647705055;98.1329995798313
320.908100877677;98.0827995337931
320.929724704804;98.019742608184
320.95134853193;97.9531088078984
320.972972359057;97.8981871284125
320.994596186184;97.8688397747302
321.01622001331;97.8679282233185
321.037843840437;97.9006011345421
321.059467667564;97.9659726858416
321.08109149469;98.0673620599477
321.102715321817;98.2067606643784
321.124339148944;98.3818472560651
321.14596297607;98.5773529925494
321.167586803197;98.7830144036485
321.189210630324;99.0003829789168
321.21083445745;99.2277056288745
321.232458284577;99.4551075599256
321.254082111704;99.6776917479024
321.27570593883;99.8984854129738
321.297329765957;100.10505360745
321.318953593084;100.274652095589
321.34057742021;100.390709843934
321.362201247337;100.460253290224
321.383825074464;100.489005364348
321.40544890159;100.473034663437
321.427072728717;100.405959436698
321.448696555844;100.285946060798
321.47032038297;100.116711284792
321.491944210097;99.9091087146532
321.513568037224;99.6769746442793
321.53519186435;99.4233582184118
321.556815691477;99.1473659838215
321.578439518604;98.8680306618069
321.60006334573;98.6043846474916
321.621687172857;98.361000430028
321.643310999984;98.1375635904234
321.66493482711;97.943084249982
321.686558654237;97.7849807440017
321.708182481364;97.6633314406359
321.72980630849;97.5749588177
321.751430135617;97.5192210508769
321.773053962744;97.4901977426427
321.79467778987;97.4752829521687
321.816301616997;97.4640975255709
321.837925444124;97.4482737505814
321.859549271251;97.4156034831624
321.881173098377;97.3509732889031
321.902796925504;97.2466816946534
321.924420752631;97.081495929411
321.946044579757;96.8657383090192
321.967668406884;96.6061674329105
321.989292234011;96.2989433084638
322.010916061137;95.9326249213622
322.032539888264;95.492414031636
322.054163715391;94.9809876111345
322.075787542517;94.4087983221839
322.097411369644;93.8012920558463
322.119035196771;93.194716127977
322.140659023897;92.5961627627539
322.162282851024;91.9871029734423
322.183906678151;91.3522252210508
322.205530505277;90.7122618958178
322.227154332404;90.1100714011461
322.248778159531;89.5740062370699
322.270401986657;89.1214515356875
322.292025813784;88.7487759175266
322.313649640911;88.4428214376461
322.335273468037;88.1917868703712
322.356897295164;87.9918145164092
322.378521122291;87.8452518839828
322.400144949417;87.7469845583039
322.421768776544;87.6895796154639
322.443392603671;87.6699298787623
322.465016430797;87.6782767779656
322.486640257924;87.6994035581937
322.508264085051;87.7295521142314
322.529887912177;87.7690757202873
322.551511739304;87.8117451001609
322.573135566431;87.8559049113781
322.594759393557;87.9008962063045
322.616383220684;87.9444972679426
322.638007047811;87.9726607836527
322.659630874938;87.9755850975969
322.681254702064;87.9610488474975
322.702878529191;87.9344447910561
322.724502356318;87.8797450298128
322.746126183444;87.78728827667
322.767750010571;87.663640612376
322.789373837698;87.5323419912577
322.810997664824;87.4168431419424
322.832621491951;87.3201333571432
322.854245319078;87.2316855197374
322.875869146204;87.1494615650173
322.897492973331;87.0903482374297
322.919116800458;87.0736489228817
322.940740627584;87.1039872391742
322.962364454711;87.1742301208853
322.983988281838;87.2698567707097
323.005612108964;87.383475092549
323.027235936091;87.5106969454666
323.048859763218;87.6413334445178
323.070483590344;87.770219250723
323.092107417471;87.8807817127209
323.113731244598;87.9449057846394
323.135355071724;87.9529533069367
323.156978898851;87.9126106957249
323.178602725978;87.8317820158691
323.200226553104;87.7118631756271
323.221850380231;87.5524821590568
323.243474207358;87.3605607482249
323.265098034484;87.1501530613413
323.286721861611;86.9341184639735
323.308345688738;86.7218839046987
323.329969515864;86.5253046767121
323.351593342991;86.351328581116
323.373217170118;86.2018569363844
323.394840997245;86.0790161203689
323.416464824371;85.9812636294196
323.438088651498;85.9009437865088
323.459712478625;85.8305604173448
323.481336305751;85.7625458825461
323.502960132878;85.6888854037478
323.524583960005;85.5929329771653
323.546207787131;85.4597041692006
323.567831614258;85.2903635636504
323.589455441385;85.0837258356294
323.611079268511;84.8345204800958
323.632703095638;84.5298887978823
323.654326922765;84.1587583269279
323.675950749891;83.7256193681099
323.697574577018;83.2515512630236
323.719198404145;82.7632418279698
323.740822231271;82.2712195192134
323.762446058398;81.779051520693
323.784069885525;81.300333482745
323.805693712651;80.8575525179592
323.827317539778;80.4630956976415
323.848941366905;80.1189010918187
323.870565194031;79.8229222722982
323.892189021158;79.5715961590999
323.913812848285;79.363376628631
323.935436675411;79.198041590967
323.957060502538;79.0688755105642
323.978684329665;78.9637413697049
324.000308156791;78.8678189609152
324.021931983918;78.76810731755
324.043555811045;78.6568240781665
324.065179638171;78.5236854391151
324.086803465298;78.3549171471379
324.108427292425;78.1422043966519
324.130051119551;77.8932399296805
324.151674946678;77.6163050449836
324.173298773805;77.316073301479
324.194922600931;77.0022253042077
324.216546428058;76.6904266879674
324.238170255185;76.3874472806697
324.259794082311;76.0944941578912
324.281417909438;75.8179771764852
324.303041736565;75.5726148630267
324.324665563692;75.3727583398463
324.346289390818;75.2201140217271
324.367913217945;75.1059993298682
324.389537045072;75.0268172917019
324.411160872198;74.9813501876432
324.432784699325;74.9652790167754
324.454408526452;74.9765481605502
324.476032353578;75.0199602323787
324.497656180705;75.1041307041368
324.519280007832;75.227206138239
324.540903834958;75.3802865233551
324.562527662085;75.5525638363796
324.584151489212;75.7350762502956
324.605775316338;75.9294232669733
324.627399143465;76.1416660153878
324.649022970592;76.3760058112173
324.670646797718;76.6288765483705
324.692270624845;76.8895491246635
324.713894451972;77.1557429243043
324.735518279098;77.4254778268798
324.757142106225;77.6802090741207
