Name;ESR_BC_1_29min_Z_gon_180dg_result

Recipe
Accumulations;5;Number of accumulations
RetryCount;0;Number of retries on error
AbortOnError;True;Abort on error
EnableQFactorMeasurement;False;Enable/Disable q-Factor measurement
Bfrom;313;B from
Bto;363;B to
SweepTime;60;Sweep time
Modulation;0.2;Modulation
ModulationFreq;100;Modulation
BHoldEnabled;False;B hold enabled
BHold;0;B hold
MicrowavePower;2;Microwave power
MarkerEnabled;False;
MarkerStartField;0;
MarkerEndField;0;
Mode;;
KineticGFact;0;
KineticTotalTransientTime;0;
KineticTimeResolution;0;
TempFrom;5;
TempUseSlope;False;
TempTo;5;
TempdT;1;
TempSetupTime;0;
GonFrom;0;
GonTo;180;
GonSteps;20;
XRayEnabled;False;
XRayTime;3;
XRayVoltage;40;
XRayCurrent;0.5;
UVEnabled;False;
UVIntensity;0;
UVTime;0;
UVLeadTime;0;
UVWavelength;0;
PowSweepFrom;1;
PowSweepTo;5;
PowSweepSteps;5;
AmpModSweepFrom;0;
AmpModSweepTo;1;
AmpModSweepSteps;10;
ExtTriggerEnabled;False;
ExtTrigLeadTime;0;
ExtTrigOnTime;5;

Meas
BField [mT];MW_Absorption []
313.020918884277;83.0320985157337
313.042532345497;81.976570636908
313.064145806716;80.9923902646041
313.085759267935;80.1639072659749
313.107372729154;79.5319185674874
313.128986190373;79.0686297617927
313.150599651593;78.7501117610345
313.172213112812;78.5758158001627
313.193826574031;78.5344083848988
313.21544003525;78.6046042383984
313.237053496469;78.7639363414563
313.258666957689;78.9981091848376
313.280280418908;79.3068633930149
313.301893880127;79.663638872715
313.323507341346;80.0314552226745
313.345120802565;80.3977049818461
313.366734263785;80.7752618053363
313.388347725004;81.1723295167304
313.409961186223;81.5850266975413
313.431574647442;82.0104680921311
313.453188108661;82.4551799303735
313.47480156988;82.9225609508703
313.4964150311;83.399798634294
313.518028492319;83.8598205849023
313.539641953538;84.3053729771924
313.561255414757;84.7287412676462
313.582868875976;85.0985773145076
313.604482337196;85.4024856368789
313.626095798415;85.6457178258712
313.647709259634;85.8303904695018
313.669322720853;85.958436038457
313.690936182072;86.0308197360264
313.712549643292;86.0526667644423
313.734163104511;86.0239435526448
313.75577656573;85.9459095223312
313.777390026949;85.8239343445586
313.799003488168;85.6625286920722
313.820616949388;85.4728463233899
313.842230410607;85.2711317138211
313.863843871826;85.0581877171233
313.885457333045;84.8290380563871
313.907070794264;84.5739505149118
313.928684255484;84.3042360731804
313.950297716703;84.0401522035216
313.971911177922;83.7895177249569
313.993524639141;83.5490873412699
314.01513810036;83.3237390195528
314.03675156158;83.1250648950861
314.058365022799;82.9647533013374
314.079978484018;82.8540040769748
314.101591945237;82.7846070485442
314.123205406456;82.7495167346002
314.144818867676;82.7525333776507
314.166432328895;82.8028721920405
314.188045790114;82.896961888694
314.209659251333;83.0280903251029
314.231272712552;83.168591688872
314.252886173772;83.2919180651896
314.274499634991;83.3985398170046
314.29611309621;83.4929117928948
314.317726557429;83.5732386966273
314.339340018648;83.6352865566731
314.360953479868;83.6710847503723
314.382566941087;83.6814426460665
314.404180402306;83.6827954514597
314.425793863525;83.6698793419198
314.447407324744;83.641612269087
314.469020785964;83.612775165108
314.490634247183;83.6056241296144
314.512247708402;83.6430810298667
314.533861169621;83.7321239808927
314.55547463084;83.8652580705096
314.57708809206;84.0435094732108
314.598701553279;84.2745177134793
314.620315014498;84.5616722589621
314.641928475717;84.901581557475
314.663541936936;85.2974989992962
314.685155398156;85.7532475516562
314.706768859375;86.2269222872411
314.728382320594;86.6911786373084
314.749995781813;87.1556287645715
314.771609243032;87.6192720426183
314.793222704251;88.0576576472012
314.814836165471;88.4476419456848
314.83644962669;88.7778590130738
314.858063087909;89.0423358953533
314.879676549128;89.2463301579729
314.901290010347;89.395714214233
314.922903471567;89.4837697824467
314.944516932786;89.5052296055367
314.966130394005;89.4702085263495
314.987743855224;89.3834858689728
315.009357316443;89.2414041795815
315.030970777663;89.0432963664324
315.052584238882;88.7925224809841
315.074197700101;88.4925117027718
315.09581116132;88.1220313137285
315.117424622539;87.6603306186135
315.139038083759;87.1419990955886
315.160651544978;86.6019825785944
315.182265006197;86.0311349737041
315.203878467416;85.427657492886
315.225491928635;84.7927412677223
315.247105389855;84.1159248390143
315.268718851074;83.4158961099334
315.290332312293;82.7305623376279
315.311945773512;82.0922864717873
315.333559234731;81.5378830864596
315.355172695951;81.08334572886
315.37678615717;80.7145405846803
315.398399618389;80.4080049698596
315.420013079608;80.1563548901654
315.441626540827;79.9631952318418
315.463240002047;79.8241444462779
315.484853463266;79.7208904598592
315.506466924485;79.6343059843107
315.528080385704;79.5565258085558
315.549693846923;79.4849865592183
315.571307308143;79.4234512591135
315.592920769362;79.382363181383
315.614534230581;79.3588293206219
315.6361476918;79.345216332552
315.657761153019;79.3406599922105
315.679374614239;79.3532980363639
315.700988075458;79.4043640299986
315.722601536677;79.5019995204303
315.744214997896;79.6434044786631
315.765828459115;79.8069805144261
315.787441920335;79.9876165243779
315.809055381554;80.2011863494323
315.830668842773;80.4521391589847
315.852282303992;80.7151345171693
315.873895765211;80.9692981461485
315.895509226431;81.2152194475488
315.91712268765;81.4523429248215
315.938736148869;81.6601664778823
315.960349610088;81.8282125334282
315.981963071307;81.9631140102687
316.003576532526;82.0708351232639
316.025189993746;82.1502510887182
316.046803454965;82.2002796026966
316.068416916184;82.2211107691621
316.090030377403;82.2100502454908
316.111643838622;82.1595858993219
316.133257299842;82.0683484277878
316.154870761061;81.9465877505723
316.17648422228;81.7901645920592
316.198097683499;81.5891457323652
316.219711144718;81.3344598719528
316.241324605938;81.0100458598666
316.262938067157;80.6083014347773
316.284551528376;80.1589893639251
316.306164989595;79.67822069122
316.327778450814;79.1690286253536
316.349391912034;78.6558875312365
316.371005373253;78.1666085810491
316.392618834472;77.7191374577312
316.414232295691;77.3314446419065
316.43584575691;77.017410988002
316.45745921813;76.7917415074807
316.479072679349;76.6552528470825
316.500686140568;76.6127070142668
316.522299601787;76.6625334266919
316.543913063006;76.7910756755578
316.565526524226;76.9837390852014
316.587139985445;77.2377986097077
316.608753446664;77.5359939192068
316.630366907883;77.8419354531501
316.651980369102;78.131513740368
316.673593830322;78.3896523393276
316.695207291541;78.604943022329
316.71682075276;78.7715574807883
316.738434213979;78.8853250052737
316.760047675198;78.9365799347941
316.781661136418;78.9128077268483
316.803274597637;78.8205083926387
316.824888058856;78.6808494926725
316.846501520075;78.5125476962032
316.868114981294;78.3281757873765
316.889728442514;78.1283962272561
316.911341903733;77.9019308339445
316.932955364952;77.6475876756371
316.954568826171;77.3968959111411
316.97618228739;77.1865941834433
316.99779574861;77.0334874008161
317.019409209829;76.9380128389929
317.041022671048;76.9032816265895
317.062636132267;76.9291476826301
317.084249593486;77.0184677711445
317.105863054706;77.1716400532496
317.127476515925;77.3837173024909
317.149089977144;77.6400004790025
317.170703438363;77.9247507550736
317.192316899582;78.2338187287008
317.213930360802;78.5725180239974
317.235543822021;78.9219157308535
317.25715728324;79.2377509174752
317.278770744459;79.5110159407139
317.300384205678;79.7363357272367
317.321997666898;79.9194701956598
317.343611128117;80.0628939286512
317.365224589336;80.1689261770239
317.386838050555;80.2354342503771
317.408451511774;80.2636289777497
317.430064972993;80.2696901456701
317.451678434213;80.2639158572236
317.473291895432;80.2432866095436
317.494905356651;80.2109685898186
317.51651881787;80.1764542808567
317.538132279089;80.1487107751812
317.559745740309;80.1343879259783
317.581359201528;80.129727227803
317.602972662747;80.1295600716463
317.624586123966;80.1422662130383
317.646199585185;80.1684584337005
317.667813046405;80.1968263621936
317.689426507624;80.2187051341832
317.711039968843;80.2353956534229
317.732653430062;80.2506902617424
317.754266891281;80.2641690940974
317.775880352501;80.2793989544952
317.79749381372;80.2956213419161
317.819107274939;80.3055721366933
317.840720736158;80.3034784671579
317.862334197377;80.2865932842519
317.883947658597;80.2533228500251
317.905561119816;80.2042740991061
317.927174581035;80.1396471846045
317.948788042254;80.0583666679711
317.970401503473;79.9601249135888
317.992014964693;79.8460442635978
318.013628425912;79.7269558617338
318.035241887131;79.6127609121194
318.05685534835;79.5065495072688
318.078468809569;79.4113100529979
318.100082270789;79.3428356324867
318.121695732008;79.3189018706224
318.143309193227;79.3360038804472
318.164922654446;79.3818572322926
318.186536115665;79.4493445383555
318.208149576885;79.5292097681169
318.229763038104;79.6152690206401
318.251376499323;79.7010744783732
318.272989960542;79.7756307048875
318.294603421761;79.8181778097376
318.316216882981;79.8257876225371
318.3378303442;79.8039085754224
318.359443805419;79.753711370559
318.381057266638;79.6698386988455
318.402670727857;79.5588226866747
318.424284189077;79.4379563659091
318.445897650296;79.3152538051917
318.467511111515;79.1908850383009
318.489124572734;79.0710726866663
318.510738033953;78.9738642691523
318.532351495173;78.9040881912682
318.553964956392;78.8465603628708
318.575578417611;78.7813387148711
318.59719187883;78.6941869389004
318.618805340049;78.5816116930531
318.640418801268;78.4523414529762
318.662032262488;78.3091859648145
318.683645723707;78.1440665536032
318.705259184926;77.9504803377928
318.726872646145;77.7242370315524
318.748486107365;77.4713949568851
318.770099568584;77.2053914188696
318.791713029803;76.9395388333673
318.813326491022;76.6780605389293
318.834939952241;76.4186017246204
318.85655341346;76.1646492885275
318.87816687468;75.9236195348754
318.899780335899;75.6965337187653
318.921393797118;75.4832191571721
318.943007258337;75.283281390115
318.964620719556;75.0937890880307
318.986234180776;74.9125815053774
319.007847641995;74.7349077037362
319.029461103214;74.5484551446045
319.051074564433;74.3484978515374
319.072688025652;74.1383215545048
319.094301486872;73.9075502546132
319.115914948091;73.6222545293264
319.13752840931;73.2615595183225
319.159141870529;72.878577552328
319.180755331748;72.5193835185154
319.202368792968;72.1670263883897
319.223982254187;71.8093336189255
319.245595715406;71.4556322910618
319.267209176625;71.1144871395426
319.288822637844;70.7912887764191
319.310436099064;70.4998506602049
319.332049560283;70.2458050529663
319.353663021502;70.0336916042814
319.375276482721;69.8621674674023
319.39688994394;69.7247983944935
319.41850340516;69.617564348701
319.440116866379;69.5330417992914
319.461730327598;69.4553163011668
319.483343788817;69.3687686762768
319.504957250036;69.2617326862632
319.526570711256;69.127334302006
319.548184172475;68.9658699813235
319.569797633694;68.7781143100202
319.591411094913;68.5659520098664
319.613024556132;68.3395294643671
319.634638017352;68.1110311711594
319.656251478571;67.8868930552718
319.67786493979;67.6747175451739
319.699478401009;67.4872273863835
319.721091862228;67.3360931836519
319.742705323448;67.2397584149234
319.764318784667;67.2114863347438
319.785932245886;67.2461373964522
319.807545707105;67.3314450345358
319.829159168324;67.4594949073455
319.850772629543;67.6326774124985
319.872386090763;67.8527876794257
319.893999551982;68.1166100638185
319.915613013201;68.4314423591799
319.93722647442;68.7843159762767
319.95883993564;69.1499308783173
319.980453396859;69.5114437477399
320.002066858078;69.8667402551411
320.023680319297;70.2219060168192
320.045293780516;70.5851391309643
320.066907241735;70.9555625044319
320.088520702955;71.3152289331884
320.110134164174;71.6442942637079
320.131747625393;71.9431337019569
320.153361086612;72.2123978266937
320.174974547831;72.4460187222772
320.196588009051;72.6388492765175
320.21820147027;72.7806418519113
320.239814931489;72.8674200881113
320.261428392708;72.9063508895128
320.283041853927;72.9042138862187
320.304655315147;72.860816305008
320.326268776366;72.7738762051462
320.347882237585;72.6511024903557
320.369495698804;72.5155100152492
320.391109160023;72.3869898626121
320.412722621243;72.2679063229526
320.434336082462;72.1523002394605
320.455949543681;72.0423636897148
320.4775630049;71.9458465729028
320.499176466119;71.8715643654356
320.520789927339;71.8276536916835
320.542403388558;71.8196402610195
320.564016849777;71.8484999445954
320.585630310996;71.9071250767776
320.607243772215;71.966850433176
320.628857233435;72.0182380472127
320.650470694654;72.071003830011
320.672084155873;72.1251918913335
320.693697617092;72.1660123085293
320.715311078311;72.1876271962784
320.736924539531;72.2050080982956
320.75853800075;72.2376667265979
320.780151461969;72.2887410547382
320.801764923188;72.3528980179601
320.823378384407;72.4271157156295
320.844991845627;72.5161932614666
320.866605306846;72.628873564025
320.888218768065;72.7677675133531
320.909832229284;72.9278114028406
320.931445690503;73.0942654261351
320.953059151723;73.2580945816744
320.974672612942;73.4206475492013
320.996286074161;73.586783244045
321.01789953538;73.7557163926055
321.039512996599;73.9171501982984
321.061126457818;74.0612659317417
321.082739919038;74.1877166596234
321.104353380257;74.2918453810958
321.125966841476;74.3634753204897
321.147580302695;74.3970391696981
321.169193763915;74.3961658915841
321.190807225134;74.3673464605369
321.212420686353;74.3164544417394
321.234034147572;74.2468375415742
321.255647608791;74.1760204791331
321.27726107001;74.1146545145788
321.29887453123;74.0607009945349
321.320487992449;74.0218921363308
321.342101453668;74.0129292378873
321.363714914887;74.0313343705813
321.385328376106;74.0736804496756
321.406941837326;74.1350038925505
321.428555298545;74.2014896799386
321.450168759764;74.2577720788877
321.471782220983;74.2938434848829
321.493395682202;74.2939991790074
321.515009143422;74.2361572861776
321.536622604641;74.107230339546
321.55823606586;73.9208050276461
321.579849527079;73.6691650853979
321.601462988298;73.3296663491717
321.623076449518;72.8935903443306
321.644689910737;72.3656199638903
321.666303371956;71.7477604743978
321.687916833175;71.0477193534449
321.709530294394;70.2783381573227
321.731143755614;69.4586009165769
321.752757216833;68.6066271167401
321.774370678052;67.7365504303795
321.795984139271;66.8572282171536
321.81759760049;65.9853063123882
321.83921106171;65.1489324745542
321.860824522929;64.3542975483027
321.882437984148;63.5898182813925
321.904051445367;62.8707956595866
321.925664906586;62.2254086139944
321.947278367806;61.6615985649326
321.968891829025;61.1744841139902
321.990505290244;60.7816514302759
322.012118751463;60.4915707419338
322.033732212682;60.3028839170092
322.055345673902;60.1955968632523
322.076959135121;60.1727320393006
322.09857259634;60.2293214456711
322.120186057559;60.3440165872228
322.141799518778;60.5039214330589
322.163412979998;60.7153964690613
322.185026441217;60.9735706330245
322.206639902436;61.258798659454
322.228253363655;61.5406055304682
322.249866824874;61.8120359331885
322.271480286094;62.0683727649336
322.293093747313;62.2862396205568
322.314707208532;62.4515826554592
322.336320669751;62.5628207534124
322.35793413097;62.6330540178309
322.37954759219;62.6689449334539
322.401161053409;62.6688450920981
322.422774514628;62.6303755728998
322.444387975847;62.5613214335635
322.466001437066;62.4727815998419
322.487614898285;62.3643239613305
322.509228359505;62.2335481071238
322.530841820724;62.0799224216652
322.552455281943;61.9039939399858
322.574068743162;61.7124863487953
322.595682204381;61.5040434277268
322.617295665601;61.2585937884228
322.63890912682;60.9779880880571
322.660522588039;60.6826301864172
322.682136049258;60.3731236365949
322.703749510477;60.0438162140934
322.725362971697;59.693895640309
322.746976432916;59.3270984602284
322.768589894135;58.9493531046155
322.790203355354;58.5793975927679
322.811816816573;58.2266903816554
322.833430277793;57.8758247823206
322.855043739012;57.5316779807183
322.876657200231;57.2051128641527
322.89827066145;56.8972950254179
322.919884122669;56.604623030588
322.941497583889;56.3202457775168
322.963111045108;56.0552654049183
322.984724506327;55.8323219040142
323.006337967546;55.6714805701748
323.027951428765;55.5808022506528
323.049564889985;55.5581092060382
323.071178351204;55.6029398000866
323.092791812423;55.7104984238975
323.114405273642;55.8629993477414
323.136018734861;56.0546617445739
323.157632196081;56.2943838615325
323.1792456573;56.5690941389526
323.200859118519;56.8387284041342
323.222472579738;57.0703608717704
323.244086040957;57.2572453886712
323.265699502177;57.3983821554957
323.287312963396;57.4922496932198
323.308926424615;57.5355020642358
323.330539885834;57.5200645878593
323.352153347053;57.4501102995175
323.373766808273;57.3472190276561
323.395380269492;57.2226368731348
323.416993730711;57.079111072934
323.43860719193;56.9194590311305
323.460220653149;56.7495653297183
323.481834114369;56.5820932343925
323.503447575588;56.4264060399106
323.525061036807;56.2787180222015
323.546674498026;56.1375333271407
323.568287959245;55.9976099313305
323.589901420465;55.854726487402
323.611514881684;55.70864591088
323.633128342903;55.5554948256164
323.654741804122;55.3903849877117
323.676355265341;55.2124824933154
323.697968726561;55.0202760004176
323.71958218778;54.8130053705905
323.741195648999;54.5892315430527
323.762809110218;54.3498286088254
323.784422571437;54.0927520953622
323.806036032656;53.821022080182
323.827649493876;53.5422271603022
323.849262955095;53.2565590518296
323.870876416314;52.9639538623512
323.892489877533;52.6745821167825
323.914103338752;52.4019163927275
323.935716799972;52.1497462136663
323.957330261191;51.9187058524073
323.97894372241;51.7081944847128
324.000557183629;51.5203128406291
324.022170644848;51.3644780219531
324.043784106068;51.2505441766098
324.065397567287;51.1829156769964
324.087011028506;51.1644785273097
324.108624489725;51.1902483758683
324.130237950944;51.2514155930825
324.151851412164;51.3423949300677
324.173464873383;51.4557760778551
324.195078334602;51.5834604173328
324.216691795821;51.716615215645
324.23830525704;51.8497620583642
324.25991871826;51.9807627325794
324.281532179479;52.108164875327
324.303145640698;52.2258371862854
324.324759101917;52.322816765551
324.346372563136;52.3940365570189
324.367986024356;52.4421468749783
324.389599485575;52.4691438482108
324.411212946794;52.4784028883407
324.432826408013;52.4782526873287
324.454439869232;52.4764224603175
324.476053330452;52.4810306464099
324.497666791671;52.4997717190556
324.51928025289;52.5343460154703
324.540893714109;52.5880301104765
324.562507175328;52.6731574525237
324.584120636548;52.7978466283708
324.605734097767;52.9649248110358
324.627347558986;53.1765004537174
324.648961020205;53.4330696498717
324.670574481424;53.72670012036
324.692187942644;54.0417826849884
324.713801403863;54.3525145304945
324.735414865082;54.6361753659538
324.757028326301;54.8875106267747
