Name;ESR_BC_1_7200s_X_gon_80dg_result

Recipe
Accumulations;5;Number of accumulations
RetryCount;0;Number of retries on error
AbortOnError;True;Abort on error
EnableQFactorMeasurement;False;Enable/Disable q-Factor measurement
Bfrom;313;B from
Bto;363;B to
SweepTime;60;Sweep time
Modulation;0.2;Modulation
ModulationFreq;100;Modulation
BHoldEnabled;False;B hold enabled
BHold;0;B hold
MicrowavePower;2;Microwave power
MarkerEnabled;False;
MarkerStartField;0;
MarkerEndField;0;
Mode;;
KineticGFact;0;
KineticTotalTransientTime;0;
KineticTimeResolution;0;
TempFrom;5;
TempUseSlope;False;
TempTo;5;
TempdT;1;
TempSetupTime;0;
GonFrom;0;
GonTo;180;
GonSteps;20;
XRayEnabled;False;
XRayTime;3;
XRayVoltage;40;
XRayCurrent;0.5;
UVEnabled;False;
UVIntensity;0;
UVTime;0;
UVLeadTime;0;
UVWavelength;0;
PowSweepFrom;1;
PowSweepTo;5;
PowSweepSteps;5;
AmpModSweepFrom;0;
AmpModSweepTo;1;
AmpModSweepSteps;10;
ExtTriggerEnabled;False;
ExtTrigLeadTime;0;
ExtTrigOnTime;5;

Meas
BField [mT];MW_Absorption []
313.021120758057;631.993794384404
313.042746065643;631.431559191103
313.06437137323;630.853673114677
313.085996680817;630.287215941565
313.107621988404;629.743748045012
313.129247295991;629.21835595096
313.150872603577;628.698114061802
313.172497911164;628.167474163085
313.194123218751;627.636325507949
313.215748526338;627.135523214157
313.237373833925;626.665798128031
313.258999141511;626.194973211632
313.280624449098;625.698986617637
313.302249756685;625.18615903216
313.323875064272;624.666554798227
313.345500371859;624.133989470544
313.367125679446;623.586674401755
313.388750987032;623.022969570347
313.410376294619;622.445078080882
313.432001602206;621.854897590623
313.453626909793;621.250073933523
313.47525221738;620.628221692212
313.496877524966;620.008076014271
313.518502832553;619.393548437286
313.54012814014;618.761679806045
313.561753447727;618.083320064088
313.583378755314;617.34597176176
313.6050040629;616.579580661869
313.626629370487;615.798682775349
313.648254678074;614.983564072862
313.669879985661;614.127861820335
313.691505293248;613.240711693773
313.713130600834;612.355991694436
313.734755908421;611.50837601424
313.756381216008;610.694488632212
313.778006523595;609.899841964594
313.799631831182;609.118271652749
313.821257138768;608.351713588866
313.842882446355;607.586588771514
313.864507753942;606.823194813822
313.886133061529;606.072073852555
313.907758369116;605.31612689493
313.929383676702;604.529749149546
313.951008984289;603.714096923387
313.972634291876;602.863797288197
313.994259599463;601.96423017273
314.01588490705;601.02200057403
314.037510214636;600.064800823302
314.059135522223;599.096226154832
314.08076082981;598.080504112879
314.102386137397;596.994583988721
314.124011444984;595.879744135649
314.14563675257;594.791150985961
314.167262060157;593.743585139145
314.188887367744;592.778458081127
314.210512675331;591.903329542228
314.232137982918;591.102020428614
314.253763290504;590.388453172745
314.275388598091;589.772304574777
314.297013905678;589.241267089694
314.318639213265;588.767228780115
314.340264520852;588.336545830045
314.361889828438;587.960577913898
314.383515136025;587.644255947206
314.405140443612;587.365484585275
314.426765751199;587.104791852012
314.448391058786;586.851331526413
314.470016366372;586.596428224973
314.491641673959;586.319698359461
314.513266981546;586.02662436838
314.534892289133;585.719329051244
314.55651759672;585.390525946244
314.578142904306;585.038267049004
314.599768211893;584.660687814724
314.62139351948;584.248023522795
314.643018827067;583.799819821651
314.664644134654;583.327686559087
314.68626944224;582.828924274023
314.707894749827;582.263880462066
314.729520057414;581.647481711515
314.751145365001;581.008475077378
314.772770672588;580.375419354916
314.794395980174;579.761687841345
314.816021287761;579.159002677675
314.837646595348;578.544340081719
314.859271902935;577.910177758362
314.880897210522;577.271729341972
314.902522518108;576.642197288842
314.924147825695;576.01880910713
314.945773133282;575.398404097315
314.967398440869;574.778920873456
314.989023748456;574.150204018775
315.010649056042;573.489342286931
315.032274363629;572.782909316712
315.053899671216;572.031492580146
315.075524978803;571.257390829454
315.09715028639;570.477686907696
315.118775593976;569.694465694231
315.140400901563;568.92645162804
315.16202620915;568.18299338974
315.183651516737;567.448907770947
315.205276824324;566.706367043487
315.22690213191;565.967933411139
315.248527439497;565.260049138583
315.270152747084;564.599005731299
315.291778054671;563.981846866871
315.313403362258;563.398229886851
315.335028669844;562.845611906346
315.356653977431;562.336190678204
315.378279285018;561.882720347269
315.399904592605;561.475277925678
315.421529900192;561.089749591761
315.443155207778;560.701791209395
315.464780515365;560.289744694542
315.486405822952;559.834740979547
315.508031130539;559.318601987013
315.529656438126;558.73214657508
315.551281745713;558.064783767737
315.572907053299;557.287376984208
315.594532360886;556.358770091941
315.616157668473;555.288144197578
315.63778297606;554.134517001845
315.659408283647;552.946131425791
315.681033591233;551.783338233978
315.70265889882;550.634011847739
315.724284206407;549.450337284263
315.745909513994;548.233893406579
315.767534821581;547.057218180573
315.789160129167;545.966469488104
315.810785436754;544.945910403781
315.832410744341;544.00083943591
315.854036051928;543.151177085438
315.875661359515;542.374891012187
315.897286667101;541.631147581204
315.918911974688;540.920968597686
315.940537282275;540.285226723041
315.962162589862;539.72561388174
315.983787897449;539.219339786157
316.005413205035;538.757197559727
316.027038512622;538.332392729491
316.048663820209;537.935640955561
316.070289127796;537.572369085356
316.091914435383;537.249351060797
316.113539742969;536.949894314701
316.135165050556;536.660992998212
316.156790358143;536.379920198008
316.17841566573;536.09908357201
316.200040973317;535.819747143548
316.221666280903;535.542652470999
316.24329158849;535.244229481269
316.264916896077;534.904385994976
316.286542203664;534.536633556997
316.308167511251;534.161260053409
316.329792818837;533.785182525047
316.351418126424;533.408208366962
316.373043434011;533.02181499991
316.394668741598;532.608970393048
316.416294049185;532.154188860697
316.437919356771;531.666335724959
316.459544664358;531.181153917458
316.481169971945;530.701867490445
316.502795279532;530.212526419853
316.524420587119;529.720217645444
316.546045894705;529.237585884573
316.567671202292;528.762005910668
316.589296509879;528.276743606763
316.610921817466;527.765236889656
316.632547125053;527.231516978447
316.654172432639;526.688039514005
316.675797740226;526.139387920296
316.697423047813;525.584142812912
316.7190483554;525.018537014446
316.740673662987;524.439114235766
316.762298970573;523.843599553465
316.78392427816;523.209647014946
316.805549585747;522.510661914903
316.827174893334;521.751630343702
316.848800200921;520.963157803144
316.870425508507;520.155994538594
316.892050816094;519.319731757404
316.913676123681;518.453965802552
316.935301431268;517.560600608978
316.956926738855;516.611602251181
316.978552046441;515.602072742176
317.000177354028;514.567883673344
317.021802661615;513.551357611474
317.043427969202;512.573785365366
317.065053276789;511.65222768468
317.086678584375;510.7966883603
317.108303891962;509.996220634077
317.129929199549;509.255001756841
317.151554507136;508.575711992418
317.173179814723;507.932551151227
317.194805122309;507.302895286853
317.216430429896;506.688985027401
317.238055737483;506.135351045566
317.25968104507;505.647543618592
317.281306352657;505.19693707892
317.302931660243;504.763519138221
317.32455696783;504.317479621059
317.346182275417;503.834814191914
317.367807583004;503.320551759839
317.389432890591;502.803755827174
317.411058198178;502.303127763119
317.432683505764;501.814152093038
317.454308813351;501.3186011064
317.475934120938;500.794661147916
317.497559428525;500.236746789927
317.519184736111;499.654060732005
317.540810043698;499.041642561252
317.562435351285;498.385505841121
317.584060658872;497.684404726422
317.605685966459;496.93802962937
317.627311274046;496.13960495533
317.648936581632;495.262876317834
317.670561889219;494.302535417928
317.692187196806;493.288519216678
317.713812504393;492.211530005825
317.73543781198;491.054166618073
317.757063119566;489.822559577556
317.778688427153;488.556306957075
317.80031373474;487.294974401381
317.821939042327;486.02865117803
317.843564349913;484.731497597581
317.8651896575;483.401564694402
317.886814965087;482.034390346675
317.908440272674;480.659263072259
317.930065580261;479.282537208037
317.951690887848;477.908645467427
317.973316195434;476.608802446541
317.994941503021;475.40714923605
318.016566810608;474.266114853749
318.038192118195;473.185612346172
318.059817425782;472.186469082227
318.081442733368;471.252034285356
318.103068040955;470.384500796542
318.124693348542;469.612124203515
318.146318656129;468.923859275512
318.167943963716;468.295501368492
318.189569271302;467.720703404723
318.211194578889;467.201835570795
318.232819886476;466.717295471638
318.254445194063;466.244680851382
318.27607050165;465.77995662463
318.297695809236;465.324259490867
318.319321116823;464.870675515779
318.34094642441;464.423361918409
318.362571731997;463.988113806048
318.384197039584;463.558708323115
318.40582234717;463.120656703964
318.427447654757;462.66006893131
318.449072962344;462.165536009164
318.470698269931;461.63630745166
318.492323577518;461.082623048136
318.513948885104;460.507674492519
318.535574192691;459.91081959928
318.557199500278;459.287988708295
318.578824807865;458.617988392424
318.600450115452;457.860769089563
318.622075423038;457.0126949954
318.643700730625;456.128434760122
318.665326038212;455.25714397074
318.686951345799;454.39041500661
318.708576653386;453.501766273171
318.730201960972;452.57247471648
318.751827268559;451.589983067124
318.773452576146;450.551110555898
318.795077883733;449.503242995474
318.81670319132;448.497545417517
318.838328498906;447.514960737898
318.859953806493;446.539885213458
318.88157911408;445.596952477145
318.903204421667;444.710764361721
318.924829729254;443.867699544251
318.94645503684;443.069788376589
318.968080344427;442.307785262172
318.989705652014;441.589921285429
319.011330959601;440.978867680671
319.032956267188;440.460796239929
319.054581574774;440.00449330187
319.076206882361;439.594629631204
319.097832189948;439.228531984096
319.119457497535;438.89013998577
319.141082805122;438.567794590947
319.162708112708;438.260516366316
319.184333420295;437.972022919119
319.205958727882;437.70202413898
319.227584035469;437.436323108151
319.249209343056;437.160598892288
319.270834650642;436.869196079573
319.292459958229;436.563026779742
319.314085265816;436.249021681949
319.335710573403;435.92922094806
319.35733588099;435.599071830594
319.378961188576;435.259015621903
319.400586496163;434.918266812601
319.42221180375;434.580769395331
319.443837111337;434.240881786695
319.465462418924;433.889803022466
319.48708772651;433.51928916331
319.508713034097;433.119719031738
319.530338341684;432.693641569278
319.551963649271;432.250300639762
319.573588956858;431.787294710323
319.595214264445;431.297535370608
319.616839572031;430.781518197429
319.638464879618;430.245885769689
319.660090187205;429.716762035788
319.681715494792;429.197869826592
319.703340802378;428.683058798388
319.724966109965;428.173497663257
319.746591417552;427.666811541144
319.768216725139;427.154895351439
319.789842032726;426.660855159166
319.811467340313;426.197837244275
319.833092647899;425.757430637824
319.854717955486;425.321725006228
319.876343263073;424.871455854015
319.89796857066;424.407973101915
319.919593878247;423.978106010495
319.941219185833;423.606458770036
319.96284449342;423.281763539375
319.984469801007;422.989261736269
320.006095108594;422.732606605962
320.027720416181;422.520967569821
320.049345723767;422.354835364476
320.070971031354;422.233555762518
320.092596338941;422.162851326587
320.114221646528;422.146947674613
320.135846954115;422.174620662399
320.157472261701;422.219295074759
320.179097569288;422.271175900633
320.200722876875;422.330700109895
320.222348184462;422.399193012926
320.243973492049;422.475575441922
320.265598799635;422.544694978252
320.287224107222;422.591320879839
320.308849414809;422.5943059137
320.330474722396;422.535059708263
320.352100029983;422.409936295488
320.373725337569;422.211234189891
320.395350645156;421.913649024819
320.416975952743;421.484530108155
320.43860126033;420.906544491229
320.460226567917;420.167308307549
320.481851875503;419.225463295397
320.50347718309;418.029877454721
320.525102490677;416.578862757844
320.546727798264;414.934369391507
320.568353105851;413.135355413152
320.589978413437;411.20049981674
320.611603721024;409.157567758369
320.633229028611;407.053695752762
320.654854336198;404.892659580877
320.676479643785;402.694866174106
320.698104951371;400.534837498429
320.719730258958;398.474711212728
320.741355566545;396.565042540173
320.762980874132;394.815130883072
320.784606181719;393.192874434044
320.806231489305;391.664701968314
320.827856796892;390.255397508074
320.849482104479;388.964191382696
320.871107412066;387.780594305408
320.892732719653;386.65184667221
320.914358027239;385.530076332117
320.935983334826;384.432362953511
320.957608642413;383.37942729413
320.97923395;382.328626102146
321.000859257587;381.24513915998
321.022484565173;380.122116289937
321.04410987276;378.967549055625
321.065735180347;377.764285517581
321.087360487934;376.508220418708
321.108985795521;375.21453817086
321.130611103107;373.869759249891
321.152236410694;372.434042794113
321.173861718281;370.932718259873
321.195487025868;369.441260131362
321.217112333455;368.025280189472
321.238737641041;366.733128484009
321.260362948628;365.541073470724
321.281988256215;364.406977039307
321.303613563802;363.323735809977
321.325238871389;362.318762525355
321.346864178975;361.446391608752
321.368489486562;360.728130400253
321.390114794149;360.142991753516
321.411740101736;359.685078173161
321.433365409323;359.372126097417
321.454990716909;359.207777364377
321.476616024496;359.174872110743
321.498241332083;359.25332456027
321.51986663967;359.424127367066
321.541491947257;359.662389504724
321.563117254843;359.943325815969
321.58474256243;360.249559902299
321.606367870017;360.561174664122
321.627993177604;360.854577647321
321.649618485191;361.109542084529
321.671243792777;361.312114398565
321.692869100364;361.453238285208
321.714494407951;361.531586456932
321.736119715538;361.544852176203
321.757745023125;361.490089669318
321.779370330711;361.371992881272
321.800995638298;361.19894531526
321.822620945885;360.975333554657
321.844246253472;360.710430963041
321.865871561059;360.413824786952
321.887496868645;360.087496555267
321.909122176232;359.724970580129
321.930747483819;359.320338525796
321.952372791406;358.881525954741
321.973998098993;358.429816742646
321.99562340658;357.970367406177
322.017248714166;357.473984994494
322.038874021753;356.923817957854
322.06049932934;356.34362995359
322.082124636927;355.751729163718
322.103749944514;355.135026315953
322.1253752521;354.48544364831
322.147000559687;353.79482434125
322.168625867274;353.051055295022
322.190251174861;352.261702058483
322.211876482448;351.427470350579
322.233501790034;350.545385603007
322.255127097621;349.616255122383
322.276752405208;348.674634872908
322.298377712795;347.742459575217
322.320003020382;346.813364185966
322.341628327968;345.884060439278
322.363253635555;344.974376325731
322.384878943142;344.087607079953
322.406504250729;343.247279955278
322.428129558316;342.48305835373
322.449754865902;341.773105031273
322.471380173489;341.115761555511
322.493005481076;340.519466243439
322.514630788663;339.994370808939
322.53625609625;339.532971957362
322.557881403836;339.116932787859
322.579506711423;338.732388401766
322.60113201901;338.380748516171
322.622757326597;338.065883147979
322.644382634184;337.783986011903
322.66600794177;337.522200428699
322.687633249357;337.258316278909
322.709258556944;336.985372039755
322.730883864531;336.701732082541
322.752509172118;336.400988008473
322.774134479704;336.07920855276
322.795759787291;335.737578986213
322.817385094878;335.3593233745
322.839010402465;334.931733090839
322.860635710052;334.448407113637
322.882261017638;333.895492095027
322.903886325225;333.286985540061
322.925511632812;332.643053694382
322.947136940399;331.954641743282
322.968762247986;331.189223308953
322.990387555572;330.343168432104
323.012012863159;329.44332869302
323.033638170746;328.50552423366
323.055263478333;327.517988192183
323.07688878592;326.460234116003
323.098514093506;325.334587298601
323.120139401093;324.164682796127
323.14176470868;322.994498001447
323.163390016267;321.875724132176
323.185015323854;320.850830307088
323.20664063144;319.922188394392
323.228265939027;319.050569119154
323.249891246614;318.232363279095
323.271516554201;317.507253901557
323.293141861788;316.885088407838
323.314767169374;316.343643128215
323.336392476961;315.865955878935
323.358017784548;315.448544637401
323.379643092135;315.072950380017
323.401268399722;314.709922486023
323.422893707308;314.330138781123
323.444519014895;313.915124717293
323.466144322482;313.458980674924
323.487769630069;312.940780577987
323.509394937656;312.34077539638
323.531020245242;311.642380553197
323.552645552829;310.844207461158
323.574270860416;309.959308391691
323.595896168003;309.022292928478
323.61752147559;308.017052200752
323.639146783176;306.927225588361
323.660772090763;305.786188784225
323.68239739835;304.651017558005
323.704022705937;303.549554896588
323.725648013524;302.471367588311
323.74727332111;301.401843365495
323.768898628697;300.383551963086
323.790523936284;299.451901803904
323.812149243871;298.595662489286
323.833774551458;297.806353643275
323.855399859045;297.108056364068
323.877025166631;296.486881656191
323.898650474218;295.913031199043
323.920275781805;295.374036099764
323.941901089392;294.88097014676
323.963526396978;294.446757344198
323.985151704565;294.066358888097
324.006777012152;293.739086187549
324.028402319739;293.4571911356
324.050027627326;293.200272518407
324.071652934912;292.95604457791
324.093278242499;292.737049530669
324.114903550086;292.543739925512
324.136528857673;292.351859013443
324.15815416526;292.152317761768
324.179779472847;291.944171414663
324.201404780433;291.716451709062
324.22303008802;291.447495593915
324.244655395607;291.127973341026
324.266280703194;290.764374879051
324.287906010781;290.355362828292
324.309531318367;289.892529369252
324.331156625954;289.367589694946
324.352781933541;288.787300926209
324.374407241128;288.155175245041
324.396032548715;287.472278423891
324.417657856301;286.740023783204
324.439283163888;285.957420943552
324.460908471475;285.094913072754
324.482533779062;284.19228645275
324.504159086649;283.284491758994
324.525784394235;282.376795833827
324.547409701822;281.46444012909
324.569035009409;280.501842243288
324.590660316996;279.463519002538
324.612285624583;278.329655338068
324.633910932169;277.111868612367
324.655536239756;275.819940732388
324.677161547343;274.488901354626
324.69878685493;273.095361202172
324.720412162517;271.610973007805
324.742037470103;270.062430717811
324.76366277769;268.51939863771
324.785288085277;266.969855282818
