Name;ESR_BC_1_840s_X_gon_60dg_result

Recipe
Accumulations;5;Number of accumulations
RetryCount;0;Number of retries on error
AbortOnError;True;Abort on error
EnableQFactorMeasurement;False;Enable/Disable q-Factor measurement
Bfrom;313;B from
Bto;363;B to
SweepTime;60;Sweep time
Modulation;0.2;Modulation
ModulationFreq;100;Modulation
BHoldEnabled;False;B hold enabled
BHold;0;B hold
MicrowavePower;2;Microwave power
MarkerEnabled;False;
MarkerStartField;0;
MarkerEndField;0;
Mode;;
KineticGFact;0;
KineticTotalTransientTime;0;
KineticTimeResolution;0;
TempFrom;5;
TempUseSlope;False;
TempTo;5;
TempdT;1;
TempSetupTime;0;
GonFrom;0;
GonTo;180;
GonSteps;20;
XRayEnabled;False;
XRayTime;3;
XRayVoltage;40;
XRayCurrent;0.5;
UVEnabled;False;
UVIntensity;0;
UVTime;0;
UVLeadTime;0;
UVWavelength;0;
PowSweepFrom;1;
PowSweepTo;5;
PowSweepSteps;5;
AmpModSweepFrom;0;
AmpModSweepTo;1;
AmpModSweepSteps;10;
ExtTriggerEnabled;False;
ExtTrigLeadTime;0;
ExtTrigOnTime;5;

Meas
BField [mT];MW_Absorption []
313.022495651245;713.070913947725
313.044122890654;712.8260706772
313.065750130063;712.369027910165
313.087377369472;711.846220386913
313.109004608881;711.269000528055
313.13063184829;710.665895107532
313.152259087699;710.046367541923
313.173886327108;709.409437901816
313.195513566517;708.771279747892
313.217140805926;708.129897282732
313.238768045335;707.469582550855
313.260395284744;706.787941608858
313.282022524152;706.107506407175
313.303649763561;705.454266723502
313.32527700297;704.818671905624
313.346904242379;704.183301173227
313.368531481788;703.541952532974
313.390158721197;702.88631327266
313.411785960606;702.20821301971
313.433413200015;701.513023602155
313.455040439424;700.82289201629
313.476667678833;700.152479331039
313.498294918242;699.501117866001
313.519922157651;698.861552250164
313.54154939706;698.228398656973
313.563176636469;697.604457904188
313.584803875878;697.000664603797
313.606431115287;696.41073860039
313.628058354696;695.814471369236
313.649685594105;695.204455430278
313.671312833514;694.609230413
313.692940072922;694.073563080622
313.714567312331;693.60542041301
313.73619455174;693.187993105384
313.757821791149;692.81208238553
313.779449030558;692.471137452027
313.801076269967;692.161370287703
313.822703509376;691.889201346496
313.844330748785;691.656979252693
313.865957988194;691.459891679581
313.887585227603;691.294405735783
313.909212467012;691.150491527185
313.930839706421;691.011516923988
313.95246694583;690.857390922801
313.974094185239;690.675258087499
313.995721424648;690.45288347521
314.017348664057;690.174971337269
314.038975903466;689.833447451072
314.060603142875;689.439715087159
314.082230382284;689.010886532995
314.103857621692;688.546315769669
314.125484861101;688.044033614784
314.14711210051;687.51307224278
314.168739339919;686.9791226083
314.190366579328;686.46702693302
314.211993818737;685.979817817592
314.233621058146;685.518432388072
314.255248297555;685.107651672271
314.276875536964;684.767575922446
314.298502776373;684.496699513248
314.320130015782;684.270795805839
314.341757255191;684.070148628264
314.3633844946;683.894489700349
314.385011734009;683.750783984553
314.406638973418;683.628215895333
314.428266212827;683.503398413629
314.449893452236;683.354235300595
314.471520691645;683.165046901399
314.493147931054;682.923758257715
314.514775170462;682.618030941625
314.536402409871;682.240808647962
314.55802964928;681.811356793955
314.579656888689;681.344507668661
314.601284128098;680.840330602405
314.622911367507;680.289947593459
314.644538606916;679.681387986289
314.666165846325;679.018287984486
314.687793085734;678.337168722646
314.709420325143;677.687550578116
314.731047564552;677.094705485772
314.752674803961;676.540610125638
314.77430204337;676.008762934931
314.795929282779;675.513883603046
314.817556522188;675.077306763019
314.839183761597;674.714067564028
314.860811001006;674.424496963088
314.882438240415;674.212735381747
314.904065479823;674.072206779408
314.925692719232;673.984359547271
314.947319958641;673.935775403608
314.96894719805;673.93332101939
314.990574437459;673.977455068762
315.012201676868;674.045849271265
315.033828916277;674.112575388507
315.055456155686;674.162790484672
315.077083395095;674.188809725594
315.098710634504;674.193735322609
315.120337873913;674.174214812481
315.141965113322;674.125321588872
315.163592352731;674.041651761329
315.18521959214;673.916983692399
315.206846831549;673.753856235267
315.228474070958;673.562415115633
315.250101310367;673.348826628682
315.271728549776;673.118717534845
315.293355789185;672.876886179201
315.314983028593;672.619233883122
315.336610268002;672.339894696404
315.358237507411;672.043921198714
315.37986474682;671.73270349416
315.401491986229;671.397697170571
315.423119225638;671.020919403803
315.444746465047;670.585630495556
315.466373704456;670.092050422762
315.488000943865;669.563768763588
315.509628183274;669.012883503734
315.531255422683;668.426778482767
315.552882662092;667.785922379607
315.574509901501;667.06880526358
315.59613714091;666.2545921133
315.617764380319;665.332722889928
315.639391619728;664.336090236127
315.661018859137;663.343481070238
315.682646098546;662.387626135618
315.704273337955;661.448132485534
315.725900577364;660.483252759479
315.747527816772;659.485068963287
315.769155056181;658.472248904452
315.79078229559;657.492540069875
315.812409534999;656.564735591613
315.834036774408;655.67594544918
315.855664013817;654.821009325036
315.877291253226;653.964999547814
315.898918492635;653.073774353572
315.920545732044;652.213137889831
315.942172971453;651.455954736765
315.963800210862;650.792456099746
315.985427450271;650.188354064595
316.00705468968;649.621378929758
316.028681929089;649.093590854396
316.050309168498;648.608649036377
316.071936407907;648.168413545429
316.093563647316;647.782653164343
316.115190886725;647.465665357774
316.136818126134;647.205474297119
316.158445365542;646.987788409341
316.180072604951;646.809306565009
316.20169984436;646.660013540009
316.223327083769;646.531303205578
316.244954323178;646.423806563524
316.266581562587;646.340982529808
316.288208801996;646.273423636228
316.309836041405;646.203665917433
316.331463280814;646.122496979042
316.353090520223;646.026476850565
316.374717759632;645.913634671456
316.396344999041;645.783305800922
316.41797223845;645.635598678687
316.439599477859;645.470086338326
316.461226717268;645.283678948835
316.482853956677;645.075379819777
316.504481196086;644.856680529083
316.526108435495;644.633067084828
316.547735674903;644.395885211314
316.569362914312;644.142519717646
316.590990153721;643.896115088741
316.61261739313;643.66600847347
316.634244632539;643.439199818866
316.655871871948;643.204009724578
316.677499111357;642.950397785371
316.699126350766;642.666563070543
316.720753590175;642.33703241942
316.742380829584;641.944613353407
316.764008068993;641.49003626944
316.785635308402;640.97926848841
316.807262547811;640.400750276787
316.82888978722;639.730236000608
316.850517026629;638.964926060907
316.872144266038;638.127142502976
316.893771505447;637.223038653856
316.915398744856;636.260098372312
316.937025984265;635.23931921886
316.958653223673;634.16058012035
316.980280463082;633.12562107684
317.001907702491;632.217453599294
317.0235349419;631.375407522803
317.045162181309;630.560040247875
317.066789420718;629.792485153718
317.088416660127;629.093561126387
317.110043899536;628.427592033672
317.131671138945;627.784588181266
317.153298378354;627.199763195039
317.174925617763;626.681612598882
317.196552857172;626.211086077567
317.218180096581;625.78646076871
317.23980733599;625.413089138492
317.261434575399;625.08298432211
317.283061814808;624.784015032701
317.304689054217;624.513604588564
317.326316293626;624.265353829466
317.347943533035;624.035414485225
317.369570772443;623.833298845779
317.391198011852;623.668607408176
317.412825251261;623.544158453401
317.43445249067;623.454658507373
317.456079730079;623.389993271511
317.477706969488;623.342887437802
317.499334208897;623.311093397753
317.520961448306;623.297073969989
317.542588687715;623.297173816364
317.564215927124;623.295520974806
317.585843166533;623.282430370237
317.607470405942;623.244007073857
317.629097645351;623.156454115476
317.65072488476;623.007344231694
317.672352124169;622.785840823051
317.693979363578;622.476594514401
317.715606602987;622.064317287756
317.737233842396;621.562657585594
317.758861081805;620.976076350322
317.780488321213;620.31225474788
317.802115560622;619.58267672834
317.823742800031;618.797849014064
317.84537003944;617.984373511679
317.866997278849;617.172834127032
317.888624518258;616.348833442961
317.910251757667;615.471855618441
317.931878997076;614.558843255945
317.953506236485;613.674764324149
317.975133475894;612.829144588383
317.996760715303;612.010888213786
318.018387954712;611.226044805716
318.040015194121;610.484472415939
318.06164243353;609.785612192441
318.083269672939;609.123847152219
318.104896912348;608.498546551349
318.126524151757;607.915455704251
318.148151391166;607.382607722868
318.169778630575;606.905594596518
318.191405869983;606.490369125254
318.213033109392;606.132596021785
318.234660348801;605.825663193212
318.25628758821;605.56801638703
318.277914827619;605.358578799695
318.299542067028;605.196529253385
318.321169306437;605.071052316189
318.342796545846;604.971439831181
318.364423785255;604.888262523551
318.386051024664;604.813924338104
318.407678264073;604.740376701113
318.429305503482;604.66115109725
318.450932742891;604.574356888107
318.4725599823;604.478068899266
318.494187221709;604.373727941679
318.515814461118;604.264729426716
318.537441700527;604.14889460879
318.559068939936;604.022147189305
318.580696179345;603.882486431947
318.602323418753;603.730242027875
318.623950658162;603.557411773454
318.645577897571;603.348695728696
318.66720513698;603.0980719683
318.688832376389;602.81023291955
318.710459615798;602.479282145561
318.732086855207;602.098542979323
318.753714094616;601.661572526962
318.775341334025;601.185078101835
318.796968573434;600.681085886788
318.818595812843;600.131193812314
318.840223052252;599.513013292069
318.861850291661;598.829037066645
318.88347753107;598.126540097811
318.905104770479;597.437014701708
318.926732009888;596.742274961847
318.948359249297;596.031623408532
318.969986488706;595.313833396968
318.991613728114;594.595300271189
319.013240967523;593.892496871197
319.034868206932;593.239546676042
319.056495446341;592.657131430779
319.07812268575;592.126547884621
319.099749925159;591.650688270305
319.121377164568;591.239239238627
319.143004403977;590.886032434428
319.164631643386;590.582428996778
319.186258882795;590.335715235153
319.207886122204;590.137420314948
319.229513361613;589.982018520038
319.251140601022;589.861383256274
319.272767840431;589.760366200966
319.29439507984;589.654223462802
319.316022319249;589.536262404244
319.337649558658;589.410398693966
319.359276798067;589.269927379689
319.380904037476;589.097051574692
319.402531276885;588.880495486093
319.424158516293;588.613017866855
319.445785755702;588.294012896087
319.467412995111;587.936537784468
319.48904023452;587.549262924822
319.510667473929;587.131935142733
319.532294713338;586.68514553216
319.553921952747;586.215652388077
319.575549192156;585.720592352314
319.597176431565;585.196256532199
319.618803670974;584.652190180831
319.640430910383;584.116640222146
319.662058149792;583.609630557731
319.683685389201;583.121902383379
319.70531262861;582.641944117792
319.726939868019;582.160995662518
319.748567107428;581.683556966627
319.770194346837;581.216661505674
319.791821586246;580.755470555543
319.813448825655;580.329030201761
319.835076065063;579.939135165633
319.856703304472;579.566228726322
319.878330543881;579.188957545451
319.89995778329;578.813538775708
319.921585022699;578.456156790317
319.943212262108;578.123637977276
319.964839501517;577.836118838525
319.986466740926;577.599616007221
320.008093980335;577.416513240689
320.029721219744;577.30285211566
320.051348459153;577.279488523149
320.072975698562;577.346926459521
320.094602937971;577.502019035281
320.11623017738;577.752420318694
320.137857416789;578.108067906665
320.159484656198;578.570884552415
320.181111895607;579.126650756152
320.202739135016;579.746773026775
320.224366374425;580.414709371332
320.245993613833;581.129425348893
320.267620853242;581.884999907822
320.289248092651;582.654688406989
320.31087533206;583.398054537271
320.332502571469;584.065837455087
320.354129810878;584.609308808671
320.375757050287;584.987403821191
320.397384289696;585.193527626729
320.419011529105;585.234777061323
320.440638768514;585.092702220847
320.462266007923;584.725415082055
320.483893247332;584.124304072731
320.505520486741;583.308309051591
320.52714772615;582.286302044018
320.548774965559;581.075930121781
320.570402204968;579.727195691255
320.592029444377;578.278296263378
320.613656683786;576.761100721437
320.635283923194;575.234752686487
320.656911162603;573.739330121194
320.678538402012;572.264731729319
320.700165641421;570.790308540621
320.72179288083;569.307121666287
320.743420120239;567.829223549476
320.765047359648;566.401453512681
320.786674599057;565.091534115432
320.808301838466;563.910540898641
320.829929077875;562.75847627361
320.851556317284;561.544208673555
320.873183556693;560.282918088154
320.894810796102;558.983908784117
320.916438035511;557.613380773525
320.93806527492;556.170707317952
320.959692514329;554.688184739659
320.981319753738;553.19397871353
321.002946993147;551.67882978808
321.024574232556;550.11705342042
321.046201471964;548.477390564549
321.067828711373;546.739227619535
321.089455950782;544.942675670274
321.111083190191;543.155662592735
321.1327104296;541.410411548422
321.154337669009;539.720481465006
321.175964908418;538.039353981153
321.197592147827;536.368893385578
321.219219387236;534.723618469108
321.240846626645;533.106109022272
321.262473866054;531.499766936243
321.284101105463;529.950551424674
321.305728344872;528.523929936049
321.327355584281;527.221098649613
321.34898282369;526.024793953905
321.370610063099;524.932802044208
321.392237302508;523.964646023217
321.413864541917;523.131673681392
321.435491781326;522.41936193671
321.457119020734;521.827509188784
321.478746260143;521.381172978299
321.500373499552;521.081238133699
321.522000738961;520.90128586004
321.54362797837;520.816116820187
321.565255217779;520.813110713789
321.586882457188;520.883742116366
321.608509696597;521.013908184134
321.630136936006;521.181156029987
321.651764175415;521.352972580159
321.673391414824;521.503241785658
321.695018654233;521.623598474363
321.716645893642;521.712315217532
321.738273133051;521.763294874467
321.75990037246;521.759087631228
321.781527611869;521.684942100427
321.803154851278;521.54083145872
321.824782090687;521.319937157527
321.846409330096;521.00967313479
321.868036569505;520.618917026118
321.889663808913;520.158522442006
321.911291048322;519.635099463842
321.932918287731;519.066840947696
321.95454552714;518.455635144517
321.976172766549;517.794111503085
321.997800005958;517.110264632046
322.019427245367;516.441629001909
322.041054484776;515.813527070644
322.062681724185;515.24202165197
322.084308963594;514.724093907266
322.105936203003;514.264424545222
322.127563442412;513.882408910764
322.149190681821;513.556818547347
322.17081792123;513.269647192117
322.192445160639;513.018475014141
322.214072400048;512.783246278499
322.235699639457;512.541951794063
322.257326878866;512.271748665283
322.278954118275;511.963839971452
322.300581357683;511.629371886172
322.322208597092;511.254901377941
322.343835836501;510.820430863396
322.36546307591;510.312926334353
322.387090315319;509.758974204488
322.408717554728;509.15931331097
322.430344794137;508.513399494896
322.451972033546;507.838959608317
322.473599272955;507.149793816036
322.495226512364;506.424103258646
322.516853751773;505.63859382262
322.538480991182;504.796151277081
322.560108230591;503.933411978283
322.58173547;503.074129221169
322.603362709409;502.241023298304
322.624989948818;501.43852342871
322.646617188227;500.650277075031
322.668244427636;499.87229738548
322.689871667044;499.116517518186
322.711498906453;498.379558228676
322.733126145862;497.652335572067
322.754753385271;496.931923326959
322.77638062468;496.222942345353
322.798007864089;495.526277915133
322.819635103498;494.829890806318
322.841262342907;494.101324583634
322.862889582316;493.341611154747
322.884516821725;492.584096295791
322.906144061134;491.791920309887
322.927771300543;490.970113923992
322.949398539952;490.133080846301
322.971025779361;489.283082496032
322.99265301877;488.419583086848
323.014280258179;487.557553083197
323.035907497588;486.731865500377
323.057534736997;485.940603254887
323.079161976406;485.155685508327
323.100789215814;484.401937448057
323.122416455223;483.700791165566
323.144043694632;483.056147861608
323.165670934041;482.468225045852
323.18729817345;481.923799056715
323.208925412859;481.41179352657
323.230552652268;480.931721457052
323.252179891677;480.509707093145
323.273807131086;480.167011970315
323.295434370495;479.898821006856
323.317061609904;479.695067010156
323.338688849313;479.54957661234
323.360316088722;479.453679734879
323.381943328131;479.401108465204
323.40357056754;479.38440981438
323.425197806949;479.389702371287
323.446825046358;479.394683113982
323.468452285767;479.374753378004
323.490079525176;479.315836233243
323.511706764584;479.216552539076
323.533334003993;479.068863366312
323.554961243402;478.859626868609
323.576588482811;478.582214750017
323.59821572222;478.237366196574
323.619842961629;477.829684145865
323.641470201038;477.364323737989
323.663097440447;476.851552141046
323.684724679856;476.29151192709
323.706351919265;475.676735248635
323.727979158674;474.999392226299
323.749606398083;474.261125293825
323.771233637492;473.472702941793
323.792860876901;472.631162095686
323.81448811631;471.71144335803
323.836115355719;470.709508815577
323.857742595128;469.638765524332
323.879369834537;468.507960756723
323.900997073946;467.306572158968
323.922624313354;466.07366982089
323.944251552763;464.847066379818
323.965878792172;463.607187627079
323.987506031581;462.338857372703
324.00913327099;461.080845081825
324.030760510399;459.826420453112
324.052387749808;458.550917829212
324.074014989217;457.233345773066
324.095642228626;455.897999226838
324.117269468035;454.597937998538
324.138896707444;453.359473939867
324.160523946853;452.135858859336
324.182151186262;450.89363552409
324.203778425671;449.606574821089
324.22540566508;448.291883223609
324.247032904489;447.065581431373
324.268660143898;445.891365257337
324.290287383307;444.722140256853
324.311914622716;443.590306098991
324.333541862124;442.537328857356
324.355169101533;441.558136990789
324.376796340942;440.638375904013
324.398423580351;439.766871079286
324.42005081976;438.921759277599
324.441678059169;438.089684441428
324.463305298578;437.255681486482
324.484932537987;436.416178213622
324.506559777396;435.56189247276
324.528187016805;434.661766088984
324.549814256214;433.679492621384
324.571441495623;432.62375266433
324.593068735032;431.501245431856
324.614695974441;430.298734665714
324.63632321385;429.006774619153
324.657950453259;427.667353002949
324.679577692668;426.308415589707
324.701204932077;424.913805723214
324.722832171485;423.421516014643
324.744459410894;421.801208759616
324.766086650303;420.063770760675
324.787713889712;418.279475276914
