Name;ESR_BC_1_3600s_Z_gon_60dg_result

Recipe
Accumulations;5;Number of accumulations
RetryCount;0;Number of retries on error
AbortOnError;True;Abort on error
EnableQFactorMeasurement;False;Enable/Disable q-Factor measurement
Bfrom;313;B from
Bto;363;B to
SweepTime;60;Sweep time
Modulation;0.2;Modulation
ModulationFreq;100;Modulation
BHoldEnabled;False;B hold enabled
BHold;0;B hold
MicrowavePower;2;Microwave power
MarkerEnabled;False;
MarkerStartField;0;
MarkerEndField;0;
Mode;;
KineticGFact;0;
KineticTotalTransientTime;0;
KineticTimeResolution;0;
TempFrom;5;
TempUseSlope;False;
TempTo;5;
TempdT;1;
TempSetupTime;0;
GonFrom;0;
GonTo;180;
GonSteps;20;
XRayEnabled;False;
XRayTime;3;
XRayVoltage;40;
XRayCurrent;0.5;
UVEnabled;False;
UVIntensity;0;
UVTime;0;
UVLeadTime;0;
UVWavelength;0;
PowSweepFrom;1;
PowSweepTo;5;
PowSweepSteps;5;
AmpModSweepFrom;0;
AmpModSweepTo;1;
AmpModSweepSteps;10;
ExtTriggerEnabled;False;
ExtTrigLeadTime;0;
ExtTrigOnTime;5;

Meas
BField [mT];MW_Absorption []
313.014518661499;72.9544012227792
313.036144683343;72.7317533927489
313.057770705186;72.4548116590661
313.079396727029;72.2044706661459
313.101022748873;71.9814378440455
313.122648770716;71.7935865777855
313.14427479256;71.6770961331995
313.165900814403;71.6382744633644
313.187526836247;71.6564587745279
313.20915285809;71.7133924497677
313.230778879934;71.8073228118193
313.252404901777;71.9245777227902
313.27403092362;72.0553862333302
313.295656945464;72.1950183366112
313.317282967307;72.3388244383849
313.338908989151;72.4721125284318
313.360535010994;72.5865699173994
313.382161032838;72.6834439788627
313.403787054681;72.7649836581169
313.425413076525;72.83206253499
313.447039098368;72.8896265710548
313.468665120212;72.9367515334793
313.490291142055;72.9710677307161
313.511917163898;72.9971091312836
313.533543185742;73.0248564738196
313.555169207585;73.0597068405883
313.576795229429;73.0927225788333
313.598421251272;73.1213141770027
313.620047273116;73.1593482884771
313.641673294959;73.2219872843596
313.663299316803;73.3092429287496
313.684925338646;73.4127795425743
313.70655136049;73.5311984427187
313.728177382333;73.6721373913646
313.749803404176;73.8345428609519
313.77142942602;74.0129634051597
313.793055447863;74.206876167538
313.814681469707;74.4006931623361
313.83630749155;74.5850207786232
313.857933513394;74.7550734669141
313.879559535237;74.9020896760227
313.901185557081;75.0083126792865
313.922811578924;75.0573544854042
313.944437600767;75.0548398839328
313.966063622611;75.0053831619688
313.987689644454;74.9117453647248
314.009315666298;74.7742884174403
314.030941688141;74.5896873192225
314.052567709985;74.3688875783879
314.074193731828;74.1337801976732
314.095819753672;73.8937681841826
314.117445775515;73.6537975802287
314.139071797359;73.4244048284527
314.160697819202;73.2172825303397
314.182323841045;73.0392662814086
314.203949862889;72.8946310543148
314.225575884732;72.7838416379021
314.247201906576;72.7075629962375
314.268827928419;72.6686723978375
314.290453950263;72.6632315349061
314.312079972106;72.6768133872966
314.33370599395;72.7058942799599
314.355332015793;72.7524828310388
314.376958037637;72.8106053185231
314.39858405948;72.8727276195069
314.420210081323;72.9365505674589
314.441836103167;72.9988445048034
314.46346212501;73.0546741008032
314.485088146854;73.0968683007228
314.506714168697;73.1195379668781
314.528340190541;73.1189599190702
314.549966212384;73.091696033708
314.571592234228;73.0385226318767
314.593218256071;72.9573230958895
314.614844277914;72.8431951346364
314.636470299758;72.6991210533315
314.658096321601;72.5315293658601
314.679722343445;72.3376931255221
314.701348365288;72.1075009199284
314.722974387132;71.8412250342106
314.744600408975;71.5603750590914
314.766226430819;71.2870510225784
314.787852452662;71.0295901960845
314.809478474506;70.7825347387928
314.831104496349;70.5487379318298
314.852730518192;70.362435384362
314.874356540036;70.2468897625144
314.895982561879;70.2063054820417
314.917608583723;70.2332216875677
314.939234605566;70.3305489635417
314.96086062741;70.4984475110754
314.982486649253;70.7206905573935
315.004112671097;70.9859987357813
315.02573869294;71.2845352348605
315.047364714784;71.6083719726375
315.068990736627;71.9474010908825
315.09061675847;72.2737161782118
315.112242780314;72.5555682108521
315.133868802157;72.7801105711423
315.155494824001;72.9425299392077
315.177120845844;73.035996911734
315.198746867688;73.0537102728283
315.220372889531;73.0027645054545
315.241998911375;72.8935348898625
315.263624933218;72.7304390930535
315.285250955061;72.5132340507399
315.306876976905;72.2449717818297
315.328502998748;71.9360393427324
315.350129020592;71.5926668452257
315.371755042435;71.2240022020763
315.393381064279;70.8411622245285
315.415007086122;70.4563491926815
315.436633107966;70.0861392658726
315.458259129809;69.7390010650863
315.479885151653;69.4203289131771
315.501511173496;69.1342323271459
315.523137195339;68.8869935906897
315.544763217183;68.6843364690861
315.566389239026;68.5316652360848
315.58801526087;68.4361084311927
315.609641282713;68.3875119521776
315.631267304557;68.3766277752698
315.6528933264;68.3973567696541
315.674519348244;68.4480172169298
315.696145370087;68.5245770649657
315.717771391931;68.6208795984742
315.739397413774;68.7241087389167
315.761023435617;68.8218661990897
315.782649457461;68.9159675459908
315.804275479304;68.9977429580479
315.825901501148;69.0532049155357
315.847527522991;69.0820761950706
315.869153544835;69.0967551859796
315.890779566678;69.1013887896259
315.912405588522;69.0962331881113
315.934031610365;69.0866547010224
315.955657632209;69.0731158159147
315.977283654052;69.0526264727607
315.998909675895;69.0315718258147
316.020535697739;69.0189895413133
316.042161719582;69.0217955025699
316.063787741426;69.0429465746663
316.085413763269;69.0807849143076
316.107039785113;69.1379914808489
316.128665806956;69.2171499105135
316.1502918288;69.3229420567309
316.171917850643;69.4558885854064
316.193543872486;69.6135406008607
316.21516989433;69.7945276604845
316.236795916173;70.0015272630679
316.258421938017;70.234120907574
316.28004795986;70.4720496438306
316.301673981704;70.7024160999011
316.323300003547;70.9283389519922
316.344926025391;71.1424379227682
316.366552047234;71.3324627425586
316.388178069078;71.4905426371668
316.409804090921;71.6067351612781
316.431430112764;71.6678424082499
316.453056134608;71.6714867886674
316.474682156451;71.6233279044864
316.496308178295;71.5238252075693
316.517934200138;71.357751501474
316.539560221982;71.1215149439341
316.561186243825;70.8363489257503
316.582812265669;70.514229827203
316.604438287512;70.150643658479
316.626064309356;69.7484594580838
316.647690331199;69.3206033966417
316.669316353042;68.8808339710891
316.690942374886;68.4321730874548
316.712568396729;67.9644334494323
316.734194418573;67.4791444226117
316.755820440416;66.9941121861509
316.77744646226;66.5230890269548
316.799072484103;66.0631755342233
316.820698505947;65.6128388170763
316.84232452779;65.1721974323922
316.863950549634;64.745071253809
316.885576571477;64.344473249109
316.90720259332;63.9874278036539
316.928828615164;63.6736971853898
316.950454637007;63.3967328672354
316.972080658851;63.1554811202661
316.993706680694;62.9514251214097
317.015332702538;62.7775032637945
317.036958724381;62.6360084299524
317.058584746225;62.5353692191006
317.080210768068;62.4806658190669
317.101836789911;62.4647213442813
317.123462811755;62.4878196413195
317.145088833598;62.5531415547648
317.166714855442;62.653850455794
317.188340877285;62.7876824749537
317.209966899129;62.9618466813917
317.231592920972;63.1752801899585
317.253218942816;63.4133335675646
317.274844964659;63.6579010405372
317.296470986503;63.9001559771471
317.318097008346;64.1466741516231
317.339723030189;64.405956338773
317.361349052033;64.6713161655132
317.382975073876;64.9139087789641
317.40460109572;65.1225116200629
317.426227117563;65.312615808479
317.447853139407;65.4999240475272
317.46947916125;65.6838431649869
317.491105183094;65.8514513776944
317.512731204937;65.9956394886083
317.534357226781;66.1209834778735
317.555983248624;66.2354250429537
317.577609270467;66.3553475166927
317.599235292311;66.4798243630211
317.620861314154;66.591664454963
317.642487335998;66.6872031368273
317.664113357841;66.7737523106803
317.685739379685;66.8544578839876
317.707365401528;66.9234964113556
317.728991423372;66.9813939713717
317.750617445215;67.0283422345699
317.772243467058;67.0637908139501
317.793869488902;67.0821303019141
317.815495510745;67.0905244905783
317.837121532589;67.0890887416278
317.858747554432;67.0666590292499
317.880373576276;67.0207037334248
317.901999598119;66.9581422854406
317.923625619963;66.8814313286399
317.945251641806;66.7825509688292
317.96687766365;66.6500618602883
317.988503685493;66.4793154959916
318.010129707336;66.2625329859567
318.03175572918;65.9907419989554
318.053381751023;65.6755244233088
318.075007772867;65.3317358409667
318.09663379471;64.9606735780128
318.118259816554;64.5551921765253
318.139885838397;64.1073365244591
318.161511860241;63.6345993319894
318.183137882084;63.177716595171
318.204763903928;62.7505450487039
318.226389925771;62.3525210236841
318.248015947614;61.9864240912469
318.269641969458;61.6554083593793
318.291267991301;61.352839852692
318.312894013145;61.079767722318
318.334520034988;60.8400893374528
318.356146056832;60.6432780543777
318.377772078675;60.4920370097432
318.399398100519;60.3696143922879
318.421024122362;60.2585419110387
318.442650144205;60.1515240293996
318.464276166049;60.0634323535994
318.485902187892;60.0107323062586
318.507528209736;59.9897795138266
318.529154231579;59.9834511359413
318.550780253423;59.9798437505028
318.572406275266;59.9781563173407
318.59403229711;59.9887506819604
318.615658318953;60.024343475876
318.637284340797;60.0829979509651
318.65891036264;60.1556222509785
318.680536384483;60.2325088257724
318.702162406327;60.3039990247577
318.72378842817;60.3639968620544
318.745414450014;60.406503466609
318.767040471857;60.4212289304784
318.788666493701;60.3941033967018
318.810292515544;60.3160147421447
318.831918537388;60.197108810705
318.853544559231;60.0531671321599
318.875170581075;59.891383979425
318.896796602918;59.7166229144953
318.918422624761;59.528044511354
318.940048646605;59.3459590287243
318.961674668448;59.1870962616299
318.983300690292;59.0615902987015
319.004926712135;58.9748835655003
319.026552733979;58.9309831653775
319.048178755822;58.9299412831031
319.069804777666;58.9695968439504
319.091430799509;59.0518512279522
319.113056821352;59.1774839561587
319.134682843196;59.3325046570083
319.156308865039;59.4945290791564
319.177934886883;59.6547721334892
319.199560908726;59.8113627759443
319.22118693057;59.957417886955
319.242812952413;60.0835376414234
319.264438974257;60.1880438909647
319.2860649961;60.2774479314022
319.307691017944;60.3551246441994
319.329317039787;60.420660296205
319.35094306163;60.4797053571232
319.372569083474;60.5381861795146
319.394195105317;60.6063079491026
319.415821127161;60.6965690244823
319.437447149004;60.7893741254089
319.459073170848;60.889536402847
319.480699192691;61.0024045463184
319.502325214535;61.137272681215
319.523951236378;61.2985123523563
319.545577258222;61.4656319568556
319.567203280065;61.6194524118308
319.588829301908;61.7644645752591
319.610455323752;61.8976554570423
319.632081345595;61.9994657672844
319.653707367439;62.0537224441797
319.675333389282;62.0575045364854
319.696959411126;62.0270326325993
319.718585432969;61.9618633073461
319.740211454813;61.8636113286525
319.761837476656;61.7438207985819
319.783463498499;61.6122460667624
319.805089520343;61.4610531308927
319.826715542186;61.288155799217
319.84834156403;61.1167123523328
319.869967585873;60.9672013083957
319.891593607717;60.8428813314398
319.91321962956;60.7383935945163
319.934845651404;60.6471813892577
319.956471673247;60.5709262154842
319.978097695091;60.5146050141116
319.999723716934;60.4750801122577
320.021349738777;60.4405281132474
320.042975760621;60.403214063332
320.064601782464;60.3633330023485
320.086227804308;60.3251808871782
320.107853826151;60.2943241090391
320.129479847995;60.2644869884795
320.151105869838;60.2352724166921
320.172731891682;60.2166715333888
320.194357913525;60.2135397295334
320.215983935369;60.2237415302271
320.237609957212;60.2412757978534
320.259235979055;60.263540452119
320.280862000899;60.2896586945277
320.302488022742;60.32358188685
320.324114044586;60.3681747434915
320.345740066429;60.4271301962557
320.367366088273;60.5021456164286
320.388992110116;60.588548040415
320.41061813196;60.680941481037
320.432244153803;60.7700392482192
320.453870175647;60.8518361239352
320.47549619749;60.9286595208426
320.497122219333;60.995599564341
320.518748241177;61.0514405877405
320.54037426302;61.088989675258
320.562000284864;61.0950224109654
320.583626306707;61.0672466278059
320.605252328551;61.0081288105893
320.626878350394;60.9167306710509
320.648504372238;60.788988286863
320.670130394081;60.6252651534207
320.691756415924;60.4277216846783
320.713382437768;60.1901277921788
320.735008459611;59.9078499047028
320.756634481455;59.5906782757946
320.778260503298;59.2597917960168
320.799886525142;58.9134832309689
320.821512546985;58.5628813650631
320.843138568829;58.232952783096
320.864764590672;57.9292230842472
320.886390612516;57.6510865511761
320.908016634359;57.4058357194817
320.929642656202;57.2094600739048
320.951268678046;57.0736945331899
320.972894699889;56.9985720150211
320.994520721733;56.9850059168321
321.016146743576;57.0326054665584
321.03777276542;57.1305038053979
321.059398787263;57.2643181924604
321.081024809107;57.4235308310242
321.10265083095;57.5980514372868
321.124276852794;57.7835239367727
321.145902874637;57.9640417946843
321.16752889648;58.1134429958605
321.189154918324;58.2202426203427
321.210780940167;58.2806837072247
321.232406962011;58.2952304061691
321.254032983854;58.2627495364921
321.275659005698;58.1772621508463
321.297285027541;58.0411118274615
321.318911049385;57.8671637505429
321.340537071228;57.6690487290435
321.362163093072;57.4622540656726
321.383789114915;57.2515832266521
321.405415136758;57.0350165401939
321.427041158602;56.81151150908
321.448667180445;56.5833194280398
321.470293202289;56.3553604657464
321.491919224132;56.1438054872125
321.513545245976;55.9541748083848
321.535171267819;55.7757820666487
321.556797289663;55.5969195125311
321.578423311506;55.4124667444798
321.600049333349;55.2164484896858
321.621675355193;55.0005619245773
321.643301377036;54.7700152399284
321.66492739888;54.5309636393394
321.686553420723;54.2680012513817
321.708179442567;53.9590445669397
321.72980546441;53.6200069512022
321.751431486254;53.2647895654727
321.773057508097;52.8818511162538
321.794683529941;52.4704825169851
321.816309551784;52.0369987507633
321.837935573627;51.5811473783237
321.859561595471;51.1002538720096
321.881187617314;50.6233570850749
321.902813639158;50.1611006512281
321.924439661001;49.6944266851014
321.946065682845;49.2108261542059
321.967691704688;48.7107215453112
321.989317726532;48.2124711711242
322.010943748375;47.7432247317696
322.032569770219;47.3155974422306
322.054195792062;46.9367167692029
322.075821813905;46.630773769857
322.097447835749;46.4215518063426
322.119073857592;46.3086598450588
322.140699879436;46.2883435045986
322.162325901279;46.3492741325285
322.183951923123;46.4786332628681
322.205577944966;46.6654745358885
322.22720396681;46.8882728864646
322.248829988653;47.1341230144608
322.270456010497;47.4023647689704
322.29208203234;47.6852332657114
322.313708054183;47.9592466182245
322.335334076027;48.204273285089
322.35696009787;48.4141387791263
322.378586119714;48.5831958176935
322.400212141557;48.7197059923772
322.421838163401;48.8287962220611
322.443464185244;48.9065655149861
322.465090207088;48.9598121309145
322.486716228931;48.9979801412284
322.508342250774;49.026404360182
322.529968272618;49.0434709510767
322.551594294461;49.0536153425096
322.573220316305;49.0680474181878
322.594846338148;49.0945691927696
322.616472359992;49.1277290685237
322.638098381835;49.1632082582453
322.659724403679;49.1975164680198
322.681350425522;49.2313234717665
322.702976447366;49.264795243875
322.724602469209;49.2978407467916
322.746228491052;49.3242730220631
322.767854512896;49.3448188720519
322.789480534739;49.363333120734
322.811106556583;49.3835173876423
322.832732578426;49.4066093515673
322.85435860027;49.4337960579178
322.875984622113;49.4629932638877
322.897610643957;49.4947005088791
322.9192366658;49.5244369250264
322.940862687644;49.5472141310664
322.962488709487;49.5544394038085
322.98411473133;49.5319545198608
323.005740753174;49.4737778969061
323.027366775017;49.3804550118036
323.048992796861;49.2443713925859
323.070618818704;49.0539971268316
323.092244840548;48.8088340528337
323.113870862391;48.5190067201728
323.135496884235;48.1942492513455
323.157122906078;47.8403408203486
323.178748927921;47.4607510505723
323.200374949765;47.0872141178586
323.222000971608;46.7436296085672
323.243626993452;46.423846005034
323.265253015295;46.1254120305857
323.286879037139;45.8524276716406
323.308505058982;45.6140973093492
323.330131080826;45.4093303392727
323.351757102669;45.2370065500832
323.373383124513;45.0951092391868
323.395009146356;44.9864378347609
323.416635168199;44.9069360279379
323.438261190043;44.8494396165856
323.459887211886;44.8088733502239
323.48151323373;44.7951761123798
323.503139255573;44.8158464695559
323.524765277417;44.8744176607281
323.54639129926;44.9747224503519
323.568017321104;45.1136295377222
323.589643342947;45.2909000275321
323.611269364791;45.513276744742
323.632895386634;45.7731628885716
323.654521408477;46.0537978282854
323.676147430321;46.3420596668334
323.697773452164;46.6150632629698
323.719399474008;46.8528855952053
323.741025495851;47.0502087834892
323.762651517695;47.2034695380887
323.784277539538;47.3070320774288
323.805903561382;47.359127013785
323.827529583225;47.3634328181183
323.849155605068;47.327359425261
323.870781626912;47.2488482392871
323.892407648755;47.1404484230824
323.914033670599;47.0232276217817
323.935659692442;46.8956546755613
323.957285714286;46.7429648488415
323.978911736129;46.5542545762841
324.000537757973;46.3532068243165
324.022163779816;46.1661747322787
324.04378980166;45.9927358511214
324.065415823503;45.8328349563392
324.087041845346;45.6875833884303
324.10866786719;45.5554134385453
324.130293889033;45.4400588132023
324.151919910877;45.3535684008204
324.17354593272;45.3027083926423
324.195171954564;45.2933031700808
324.216797976407;45.3210797143312
324.238423998251;45.3806931995002
324.260050020094;45.4852952001388
324.281676041937;45.6304912417664
324.303302063781;45.8036445873826
324.324928085624;45.9976232002005
324.346554107468;46.2088794189204
324.368180129311;46.4162341701645
324.389806151155;46.6055119601049
324.411432172998;46.7807427787715
324.433058194842;46.9425355659313
324.454684216685;47.0842803298496
324.476310238529;47.2081466765831
324.497936260372;47.3158630464276
324.519562282215;47.397432843178
324.541188304059;47.4576267784563
324.562814325902;47.5097609590112
324.584440347746;47.5652294553171
324.606066369589;47.6163699611342
324.627692391433;47.6401221272569
324.649318413276;47.6364885870511
324.67094443512;47.6039146538349
324.692570456963;47.5388243365744
324.714196478807;47.4498680271264
324.73582250065;47.3328814509311
324.757448522493;47.1783547560688
