Name;ESR_BC_1_89s_X_gon_0dg_result

Recipe
Accumulations;5;Number of accumulations
RetryCount;0;Number of retries on error
AbortOnError;True;Abort on error
EnableQFactorMeasurement;False;Enable/Disable q-Factor measurement
Bfrom;313;B from
Bto;363;B to
SweepTime;60;Sweep time
Modulation;0.2;Modulation
ModulationFreq;100;Modulation
BHoldEnabled;False;B hold enabled
BHold;0;B hold
MicrowavePower;2;Microwave power
MarkerEnabled;False;
MarkerStartField;0;
MarkerEndField;0;
Mode;;
KineticGFact;0;
KineticTotalTransientTime;0;
KineticTimeResolution;0;
TempFrom;5;
TempUseSlope;False;
TempTo;5;
TempdT;1;
TempSetupTime;0;
GonFrom;0;
GonTo;180;
GonSteps;20;
XRayEnabled;False;
XRayTime;3;
XRayVoltage;40;
XRayCurrent;0.5;
UVEnabled;False;
UVIntensity;0;
UVTime;0;
UVLeadTime;0;
UVWavelength;0;
PowSweepFrom;1;
PowSweepTo;5;
PowSweepSteps;5;
AmpModSweepFrom;0;
AmpModSweepTo;1;
AmpModSweepSteps;10;
ExtTriggerEnabled;False;
ExtTrigLeadTime;0;
ExtTrigOnTime;5;

Meas
BField [mT];MW_Absorption []
313.021868438721;540.431952704394
313.04349137885;539.942606191524
313.06511431898;539.445846525552
313.086737259109;538.936456483328
313.108360199239;538.38790040002
313.129983139368;537.773730688344
313.151606079498;537.110211653078
313.173229019627;536.423568730344
313.194851959757;535.701533437376
313.216474899887;534.920549216748
313.238097840016;534.078380758549
313.259720780146;533.193367966313
313.281343720275;532.296298006259
313.302966660405;531.416345423639
313.324589600534;530.562016718145
313.346212540664;529.721390432319
313.367835480793;528.902474945522
313.389458420923;528.165124965908
313.411081361052;527.534407036798
313.432704301182;526.985236568437
313.454327241311;526.496974650699
313.475950181441;526.058085563667
313.49757312157;525.659614320242
313.5191960617;525.300173889887
313.54081900183;524.960883113856
313.562441941959;524.620101841287
313.584064882089;524.259068965638
313.605687822218;523.873094487899
313.627310762348;523.455698237146
313.648933702477;522.997068408948
313.670556642607;522.515979322127
313.692179582736;522.034072779311
313.713802522866;521.545810304676
313.735425462995;521.043869088075
313.757048403125;520.526573827278
313.778671343254;520.011084593494
313.800294283384;519.498077893051
313.821917223513;518.97714903416
313.843540163643;518.465642484273
313.865163103772;517.976025895056
313.886786043902;517.50069962616
313.908408984032;517.033498244067
313.930031924161;516.564404379667
313.951654864291;516.075616766717
313.97327780442;515.557047068197
313.99490074455;515.00379761635
314.016523684679;514.413703780607
314.038146624809;513.786972604403
314.059769564938;513.137167624394
314.081392505068;512.473063622511
314.103015445197;511.775846589404
314.124638385327;511.038497185499
314.146261325456;510.314756344687
314.167884265586;509.64047852446
314.189507205715;508.992115986755
314.211130145845;508.350982885451
314.232753085975;507.712409654545
314.254376026104;507.066597707457
314.275998966234;506.424211383299
314.297621906363;505.82143360185
314.319244846493;505.243001897991
314.340867786622;504.671999606575
314.362490726752;504.112963923688
314.384113666881;503.58098971258
314.405736607011;503.051172856855
314.42735954714;502.484586316383
314.44898248727;501.863324935921
314.470605427399;501.190325268269
314.492228367529;500.481795615462
314.513851307658;499.76308654448
314.535474247788;499.050360660572
314.557097187918;498.322442582688
314.578720128047;497.564498542539
314.600343068177;496.825821378585
314.621966008306;496.13922124204
314.643588948436;495.494062130836
314.665211888565;494.863937171498
314.686834828695;494.229647154355
314.708457768824;493.606237294926
314.730080708954;493.032838932784
314.751703649083;492.507637156603
314.773326589213;492.011134646582
314.794949529342;491.528990000699
314.816572469472;491.052199417099
314.838195409601;490.577305496593
314.859818349731;490.106923299369
314.88144128986;489.64554083577
314.90306422999;489.187506775867
314.92468717012;488.723588334251
314.946310110249;488.255787135606
314.967933050379;487.791031354266
314.989555990508;487.322483538036
315.011178930638;486.83593003087
315.032801870767;486.320288630885
315.054424810897;485.781386787335
315.076047751026;485.241722817461
315.097670691156;484.715020194548
315.119293631285;484.187706197803
315.140916571415;483.640204976164
315.162539511544;483.069230194272
315.184162451674;482.488170158826
315.205785391803;481.896003109033
315.227408331933;481.286905985202
315.249031272063;480.669226770973
315.270654212192;480.042447856833
315.292277152322;479.400781355221
315.313900092451;478.751530175732
315.335523032581;478.108341743913
315.35714597271;477.486294966788
315.37876891284;476.865472273534
315.400391852969;476.238332077742
315.422014793099;475.618466916345
315.443637733228;474.994377844995
315.465260673358;474.341114827698
315.486883613487;473.65504743722
315.508506553617;472.957256215795
315.530129493746;472.267767833693
315.551752433876;471.595454984121
315.573375374005;470.925310313891
315.594998314135;470.220709959895
315.616621254265;469.4792431309
315.638244194394;468.744210383338
315.659867134524;468.039439670215
315.681490074653;467.359755526721
315.703113014783;466.688378819097
315.724735954912;466.004760076962
315.746358895042;465.297163882763
315.767981835171;464.585646120037
315.789604775301;463.878392924138
315.81122771543;463.153798490659
315.83285065556;462.414950678591
315.854473595689;461.664172203174
315.876096535819;460.896303645574
315.897719475948;460.108447508021
315.919342416078;459.277230710096
315.940965356208;458.394590481505
315.962588296337;457.500114538255
315.984211236467;456.597993004454
316.005834176596;455.676782767453
316.027457116726;454.74475510021
316.049080056855;453.794540061213
316.070702996985;452.835382160851
316.092325937114;451.8916914735
316.113948877244;450.973069513997
316.135571817373;450.08207031863
316.157194757503;449.223066903991
316.178817697632;448.396909102456
316.200440637762;447.619502910804
316.222063577891;446.904557735887
316.243686518021;446.263358097332
316.265309458151;445.694800281442
316.28693239828;445.185634511712
316.30855533841;444.722765220877
316.330178278539;444.308569898168
316.351801218669;443.952717750884
316.373424158798;443.652542682293
316.395047098928;443.40016466147
316.416670039057;443.177188955807
316.438292979187;442.961146172642
316.459915919316;442.742838514696
316.481538859446;442.523051916292
316.503161799575;442.296658616918
316.524784739705;442.047994716172
316.546407679834;441.761063338423
316.568030619964;441.427433529536
316.589653560094;441.057129121577
316.611276500223;440.667693058424
316.632899440353;440.25482980094
316.654522380482;439.807516714007
316.676145320612;439.320986074745
316.697768260741;438.789487149613
316.719391200871;438.201761407885
316.741014141;437.562648771057
316.76263708113;436.906581591575
316.784260021259;436.233065730289
316.805882961389;435.526571726818
316.827505901518;434.792302647046
316.849128841648;434.068376616526
316.870751781777;433.373339346472
316.892374721907;432.696338521253
316.913997662036;432.008106921635
316.935620602166;431.29137616138
316.957243542296;430.554752009775
316.978866482425;429.820304504065
317.000489422555;429.096904308343
317.022112362684;428.370322896714
317.043735302814;427.601186706039
317.065358242943;426.752266225727
317.086981183073;425.842466192155
317.108604123202;424.912331403663
317.130227063332;423.976943477073
317.151850003461;423.050146484476
317.173472943591;422.146984713786
317.19509588372;421.261131243498
317.21671882385;420.392851979124
317.238341763979;419.552060828422
317.259964704109;418.73051258454
317.281587644239;417.913815154238
317.303210584368;417.11462170418
317.324833524498;416.364006965295
317.346456464627;415.65163342081
317.368079404757;414.93713674545
317.389702344886;414.226494896514
317.411325285016;413.576198384857
317.432948225145;412.987976945984
317.454571165275;412.434130382763
317.476194105404;411.899040144589
317.497817045534;411.392001448596
317.519439985663;410.915242974326
317.541062925793;410.452552225589
317.562685865922;409.989388744086
317.584308806052;409.534455152983
317.605931746182;409.095933649803
317.627554686311;408.647462975322
317.649177626441;408.168192097383
317.67080056657;407.650762738207
317.6924235067;407.094174296437
317.714046446829;406.500693299046
317.735669386959;405.876172485843
317.757292327088;405.222746759635
317.778915267218;404.544825544125
317.800538207347;403.853805280136
317.822161147477;403.147471103656
317.843784087606;402.409582917335
317.865407027736;401.630592095632
317.887029967865;400.821578811949
317.908652907995;399.999214611131
317.930275848125;399.173800388367
317.951898788254;398.359145876689
317.973521728384;397.563444435472
317.995144668513;396.779505333772
318.016767608643;396.003445579865
318.038390548772;395.243022565049
318.060013488902;394.503318698198
318.081636429031;393.781548107075
318.103259369161;393.069832307613
318.12488230929;392.355858962507
318.14650524942;391.637272890424
318.168128189549;390.926823437614
318.189751129679;390.238766300156
318.211374069808;389.596179118013
318.232997009938;389.008736780317
318.254619950067;388.45661544472
318.276242890197;387.917704491131
318.297865830327;387.37228238993
318.319488770456;386.812241636224
318.341111710586;386.241267498191
318.362734650715;385.658395995983
318.384357590845;385.072714849476
318.405980530974;384.501673950146
318.427603471104;383.946243931793
318.449226411233;383.399626659585
318.470849351363;382.851750387178
318.492472291492;382.293844642901
318.514095231622;381.736603460472
318.535718171751;381.229788753051
318.557341111881;380.80169521249
318.57896405201;380.434069521987
318.60058699214;380.108420764352
318.622209932269;379.811885135235
318.643832872399;379.543226137209
318.665455812529;379.312129118846
318.687078752658;379.12490133158
318.708701692788;378.975134243929
318.730324632917;378.834093483784
318.751947573047;378.686519978712
318.773570513176;378.521786842985
318.795193453306;378.333544940795
318.816816393435;378.123094907219
318.838439333565;377.887469749279
318.860062273694;377.612702649249
318.881685213824;377.286235955062
318.903308153953;376.910216777791
318.924931094083;376.493509676055
318.946554034212;376.049857191587
318.968176974342;375.593692374812
318.989799914472;375.128371779259
319.011422854601;374.655019135869
319.033045794731;374.1780922017
319.05466873486;373.700105541156
319.07629167499;373.225642953105
319.097914615119;372.756114815292
319.119537555249;372.298295936806
319.141160495378;371.854187596007
319.162783435508;371.42234921485
319.184406375637;371.005772436367
319.206029315767;370.604912065981
319.227652255896;370.219359161111
319.249275196026;369.851143426825
319.270898136155;369.494257952879
319.292521076285;369.148229874312
319.314144016415;368.822077141447
319.335766956544;368.520078223476
319.357389896674;368.243609170669
319.379012836803;367.985766016156
319.400635776933;367.740005067361
319.422258717062;367.515864908899
319.443881657192;367.32972244928
319.465504597321;367.189227188752
319.487127537451;367.095736917979
319.50875047758;367.037232055518
319.53037341771;367.002300374811
319.551996357839;366.990956193865
319.573619297969;367.004284423712
319.595242238098;367.030669079754
319.616865178228;367.048873018505
319.638488118357;367.038660366525
319.660111058487;366.979676332653
319.681733998617;366.861575128656
319.703356938746;366.689439295242
319.724979878876;366.460731350151
319.746602819005;366.143983702821
319.768225759135;365.704855187049
319.789848699264;365.13124632093
319.811471639394;364.468092672611
319.833094579523;363.766516393877
319.854717519653;363.030497247972
319.876340459782;362.230370266649
319.897963399912;361.360410904507
319.919586340041;360.48777911168
319.941209280171;359.664481237762
319.9628322203;358.898526672341
319.98445516043;358.206577071816
320.00607810056;357.628814130475
320.027701040689;357.177365997354
320.049323980819;356.846987016533
320.070946920948;356.627594974744
320.092569861078;356.504951693334
320.114192801207;356.470122419927
320.135815741337;356.515669997261
320.157438681466;356.620511497785
320.179061621596;356.744014379462
320.200684561725;356.84794543358
320.222307501855;356.890276913366
320.243930441984;356.843381489706
320.265553382114;356.70079948467
320.287176322243;356.445543445921
320.308799262373;356.036967121047
320.330422202503;355.467595092298
320.352045142632;354.773446785177
320.373668082762;353.972849237223
320.395291022891;353.051933228478
320.416913963021;351.983789418373
320.43853690315;350.750702862064
320.46015984328;349.372025591421
320.481782783409;347.899360364496
320.503405723539;346.362417645888
320.525028663668;344.748364847943
320.546651603798;343.074709067258
320.568274543927;341.418633991039
320.589897484057;339.808730865183
320.611520424186;338.252114765427
320.633143364316;336.760690836785
320.654766304446;335.347274133727
320.676389244575;334.024443295768
320.698012184705;332.830638923127
320.719635124834;331.811314645071
320.741258064964;330.971683974866
320.762881005093;330.282299367155
320.784503945223;329.717917936418
320.806126885352;329.268799878766
320.827749825482;328.920648011405
320.849372765611;328.658076404397
320.870995705741;328.450753005165
320.89261864587;328.253365064489
320.914241586;328.026902649145
320.935864526129;327.723088320341
320.957487466259;327.344849568351
320.979110406388;326.92699331436
321.000733346518;326.470010998186
321.022356286648;325.960510745371
321.043979226777;325.376233870289
321.065602166907;324.724704879577
321.087225107036;324.038112572146
321.108848047166;323.331641372802
321.130470987295;322.63446723395
321.152093927425;321.991703560126
321.173716867554;321.400133867744
321.195339807684;320.836623193642
321.216962747813;320.290382837054
321.238585687943;319.795868072497
321.260208628072;319.387083807818
321.281831568202;319.058237895369
321.303454508331;318.780971202213
321.325077448461;318.541590764546
321.346700388591;318.334811767359
321.36832332872;318.155202656745
321.38994626885;317.993482191079
321.411569208979;317.825792976785
321.433192149109;317.633049241822
321.454815089238;317.412833331696
321.476438029368;317.180222569689
321.498060969497;316.931428868226
321.519683909627;316.654538294295
321.541306849756;316.374341082848
321.562929789886;316.103712980019
321.584552730015;315.835867916412
321.606175670145;315.553437591108
321.627798610274;315.247738926966
321.649421550404;314.92955541717
321.671044490534;314.600971072032
321.692667430663;314.257917418983
321.714290370793;313.905232916456
321.735913310922;313.541156230953
321.757536251052;313.160420405659
321.779159191181;312.75284565879
321.800782131311;312.310423380248
321.82240507144;311.831502416984
321.84402801157;311.30978542674
321.865650951699;310.745538801376
321.887273891829;310.157697046128
321.908896831958;309.55557234782
321.930519772088;308.940871179644
321.952142712217;308.329513990777
321.973765652347;307.729384611
321.995388592477;307.141549556515
322.017011532606;306.566269792145
322.038634472736;306.012139520984
322.060257412865;305.48906672213
322.081880352995;304.998162450942
322.103503293124;304.527440052138
322.125126233254;304.051271815046
322.146749173383;303.537105846797
322.168372113513;302.985304321616
322.189995053642;302.415802354821
322.211617993772;301.815864159528
322.233240933901;301.177293567044
322.254863874031;300.511710831502
322.27648681416;299.836761872947
322.29810975429;299.154564264931
322.319732694419;298.463711347883
322.341355634549;297.781240471631
322.362978574678;297.110647555642
322.384601514808;296.431617741391
322.406224454938;295.73855441838
322.427847395067;295.060008128398
322.449470335197;294.429463046434
322.471093275326;293.844192406133
322.492716215456;293.286053960778
322.514339155585;292.748801157605
322.535962095715;292.242017660801
322.557585035844;291.785387519242
322.579207975974;291.388669915538
322.600830916103;291.044731503397
322.622453856233;290.776589079438
322.644076796362;290.608166473233
322.665699736492;290.537501626178
322.687322676621;290.54870633912
322.708945616751;290.628636015697
322.730568556881;290.776873442472
322.75219149701;290.993962752197
322.77381443714;291.257333764969
322.795437377269;291.52752860183
322.817060317399;291.77738719328
322.838683257528;291.989950329502
322.860306197658;292.145861619377
322.881929137787;292.240086683907
322.903552077917;292.263163450697
322.925175018046;292.214568128144
322.946797958176;292.094534973584
322.968420898305;291.910495611277
322.990043838435;291.669697725673
323.011666778564;291.377692499923
323.033289718694;291.028631095926
323.054912658824;290.608676234275
323.076535598953;290.11512335835
323.098158539083;289.568195776681
323.119781479212;288.979564520201
323.141404419342;288.345350562101
323.163027359471;287.66127940586
323.184650299601;286.897170437095
323.20627323973;286.03571802107
323.22789617986;285.081747496594
323.249519119989;284.046906411142
323.271142060119;282.974226493093
323.292765000248;281.913474162587
323.314387940378;280.880376582411
323.336010880507;279.853803525315
323.357633820637;278.813330727543
323.379256760767;277.768774605069
323.400879700896;276.749450856397
323.422502641026;275.742816937608
323.444125581155;274.712210911434
323.465748521285;273.695675203674
323.487371461414;272.746769980536
323.508994401544;271.859522522128
323.530617341673;271.002145343821
323.552240281803;270.159876909066
323.573863221932;269.333432989797
323.595486162062;268.538197276338
323.617109102191;267.796333105049
323.638732042321;267.115525476044
323.66035498245;266.485454071471
323.68197792258;265.890288599281
323.703600862709;265.317925007881
323.725223802839;264.751811740946
323.746846742969;264.197454369072
323.768469683098;263.664484172578
323.790092623228;263.148042108281
323.811715563357;262.63504639249
323.833338503487;262.072338300739
323.854961443616;261.438817014639
323.876584383746;260.740581246472
323.898207323875;259.989693354634
323.919830264005;259.208072155371
323.941453204134;258.398485082772
323.963076144264;257.535681397493
323.984699084393;256.575156486611
324.006322024523;255.516824365899
324.027944964652;254.352567484182
324.049567904782;253.148095110308
324.071190844912;251.934442087546
324.092813785041;250.704529755694
324.114436725171;249.455680544061
324.1360596653;248.196467480771
324.15768260543;246.9274313933
324.179305545559;245.629976349213
324.200928485689;244.345154733743
324.222551425818;243.119140253565
324.244174365948;241.94420772409
324.265797306077;240.812613539371
324.287420246207;239.712991987689
324.309043186336;238.67925574149
324.330666126466;237.741996392755
324.352289066595;236.868444628104
324.373912006725;236.008902349771
324.395534946855;235.157387416815
324.417157886984;234.351821059066
324.438780827114;233.590275588159
324.460403767243;232.848193005128
324.482026707373;232.133634381006
324.503649647502;231.460975301872
324.525272587632;230.820485961013
324.546895527761;230.187402370631
324.568518467891;229.565643741526
324.59014140802;228.959020689698
324.61176434815;228.364405760888
324.633387288279;227.766047403524
324.655010228409;227.142039880782
324.676633168538;226.486243537905
324.698256108668;225.816811765259
324.719879048798;225.141875399517
324.741501988927;224.462315276989
324.763124929057;223.774891777811
324.784747869186;223.064072450676
