Name;ESR_BC_1_359s_X_gon_20dg_result

Recipe
Accumulations;5;Number of accumulations
RetryCount;0;Number of retries on error
AbortOnError;True;Abort on error
EnableQFactorMeasurement;False;Enable/Disable q-Factor measurement
Bfrom;313;B from
Bto;363;B to
SweepTime;60;Sweep time
Modulation;0.2;Modulation
ModulationFreq;100;Modulation
BHoldEnabled;False;B hold enabled
BHold;0;B hold
MicrowavePower;2;Microwave power
MarkerEnabled;False;
MarkerStartField;0;
MarkerEndField;0;
Mode;;
KineticGFact;0;
KineticTotalTransientTime;0;
KineticTimeResolution;0;
TempFrom;5;
TempUseSlope;False;
TempTo;5;
TempdT;1;
TempSetupTime;0;
GonFrom;0;
GonTo;180;
GonSteps;20;
XRayEnabled;False;
XRayTime;3;
XRayVoltage;40;
XRayCurrent;0.5;
UVEnabled;False;
UVIntensity;0;
UVTime;0;
UVLeadTime;0;
UVWavelength;0;
PowSweepFrom;1;
PowSweepTo;5;
PowSweepSteps;5;
AmpModSweepFrom;0;
AmpModSweepTo;1;
AmpModSweepSteps;10;
ExtTriggerEnabled;False;
ExtTrigLeadTime;0;
ExtTrigOnTime;5;

Meas
BField [mT];MW_Absorption []
313.021000442505;562.509190360324
313.042624167339;561.630485360275
313.064247892173;560.754669126217
313.085871617008;559.90868084828
313.107495341842;559.113651885297
313.129119066676;558.344775415376
313.15074279151;557.58087144769
313.172366516344;556.813045535099
313.193990241179;556.066290725087
313.215613966013;555.362487290738
313.237237690847;554.690455399354
313.258861415681;554.054432054896
313.280485140516;553.449567525581
313.30210886535;552.853943821408
313.323732590184;552.262451631624
313.345356315018;551.66906752783
313.366980039853;551.058314770343
313.388603764687;550.435640152727
313.410227489521;549.80154965717
313.431851214355;549.151451286616
313.453474939189;548.482052531476
313.475098664024;547.783466877039
313.496722388858;547.056575963757
313.518346113692;546.340583227155
313.539969838526;545.654743612817
313.561593563361;544.972532135581
313.583217288195;544.265188760612
313.604841013029;543.536403663929
313.626464737863;542.817521771264
313.648088462698;542.093497381553
313.669712187532;541.344520520802
313.691335912366;540.569121865654
313.7129596372;539.765475883157
313.734583362034;538.951482068444
313.756207086869;538.152335031351
313.777830811703;537.380993172765
313.799454536537;536.621360875486
313.821078261371;535.850661553507
313.842701986206;535.087206629639
313.86432571104;534.372729645379
313.885949435874;533.704183844582
313.907573160708;533.055690880594
313.929196885542;532.420931927103
313.950820610377;531.811038558202
313.972444335211;531.229949517508
313.994068060045;530.678156306403
314.015691784879;530.172002822869
314.037315509714;529.720320112784
314.058939234548;529.304347757288
314.080562959382;528.921231957724
314.102186684216;528.582404885475
314.12381040905;528.286517876595
314.145434133885;528.017563705592
314.167057858719;527.759515317184
314.188681583553;527.509202913895
314.210305308387;527.275198348619
314.231929033222;527.050122830402
314.253552758056;526.806146832426
314.27517648289;526.515371775105
314.296800207724;526.156963448934
314.318423932559;525.723733501387
314.340047657393;525.226881190438
314.361671382227;524.674232660447
314.383295107061;524.053243715266
314.404918831895;523.367425169333
314.42654255673;522.658853216627
314.448166281564;521.96849499656
314.469790006398;521.309362205979
314.491413731232;520.673976681445
314.513037456067;520.04945810088
314.534661180901;519.458128996224
314.556284905735;518.919749927291
314.577908630569;518.425618016432
314.599532355403;517.954772390978
314.621156080238;517.494061732002
314.642779805072;517.072447819166
314.664403529906;516.694900455388
314.68602725474;516.339494739052
314.707650979575;515.986915996366
314.729274704409;515.629018310376
314.750898429243;515.262501579718
314.772522154077;514.88069111036
314.794145878912;514.479647630194
314.815769603746;514.057774521114
314.83739332858;513.619273959329
314.859017053414;513.166831852967
314.880640778248;512.679275252462
314.902264503083;512.140829612729
314.923888227917;511.582614864224
314.945511952751;511.026521649635
314.967135677585;510.46465554415
314.98875940242;509.881354897997
315.010383127254;509.280676112792
315.032006852088;508.675657458335
315.053630576922;508.074069391466
315.075254301757;507.481150752879
315.096878026591;506.895927536514
315.118501751425;506.309687411279
315.140125476259;505.719732213072
315.161749201093;505.125356082573
315.183372925928;504.522673579358
315.204996650762;503.899152026102
315.226620375596;503.237778598152
315.24824410043;502.528540129094
315.269867825265;501.781135998909
315.291491550099;501.013715932894
315.313115274933;500.22470959072
315.334738999767;499.43075484756
315.356362724601;498.653118549765
315.377986449436;497.883172841707
315.39961017427;497.111357961677
315.421233899104;496.351731892993
315.442857623938;495.602195197699
315.464481348773;494.864586122793
315.486105073607;494.155055979002
315.507728798441;493.480187630075
315.529352523275;492.824232496133
315.55097624811;492.176712471304
315.572599972944;491.532022206243
315.594223697778;490.884260050878
315.615847422612;490.221493619651
315.637471147446;489.519160079391
315.659094872281;488.753193773929
315.680718597115;487.940900074088
315.702342321949;487.097674559889
315.723966046783;486.206436628558
315.745589771618;485.263822675355
315.767213496452;484.307891939959
315.788837221286;483.354590040663
315.81046094612;482.399565797497
315.832084670954;481.449111307991
315.853708395789;480.504756435514
315.875332120623;479.566357711739
315.896955845457;478.653395702081
315.918579570291;477.797747094842
315.940203295126;477.052463477322
315.96182701996;476.411672410043
315.983450744794;475.836131151598
316.005074469628;475.313604030039
316.026698194462;474.86162915302
316.048321919297;474.489959143958
316.069945644131;474.172393166539
316.091569368965;473.882730678105
316.113193093799;473.613217332457
316.134816818634;473.360000732712
316.156440543468;473.10733935777
316.178064268302;472.835875370907
316.199687993136;472.543933059787
316.221311717971;472.232292274657
316.242935442805;471.892853220289
316.264559167639;471.509692479325
316.286182892473;471.063327751876
316.307806617307;470.556293998999
316.329430342142;470.000947335427
316.351054066976;469.394293604503
316.37267779181;468.735512142203
316.394301516644;468.031611460212
316.415925241479;467.277519865697
316.437548966313;466.455066695199
316.459172691147;465.566998898852
316.480796415981;464.631338825672
316.502420140816;463.666819842293
316.52404386565;462.67805093969
316.545667590484;461.680139026988
316.567291315318;460.674104210067
316.588915040152;459.654165735442
316.610538764987;458.644766031595
316.632162489821;457.656516185437
316.653786214655;456.675650774318
316.675409939489;455.729899806065
316.697033664324;454.838957566907
316.718657389158;453.996384669024
316.740281113992;453.195685062442
316.761904838826;452.459758643465
316.78352856366;451.816979722084
316.805152288495;451.257943919136
316.826776013329;450.769923937727
316.848399738163;450.329464600798
316.870023462997;449.918768667291
316.891647187832;449.54917037298
316.913270912666;449.23448573369
316.9348946375;448.954506869168
316.956518362334;448.676619487532
316.978142087169;448.370354687728
316.999765812003;448.033164999875
317.021389536837;447.686676968844
317.043013261671;447.349621920708
317.064636986505;447.020000662486
317.08626071134;446.66870315972
317.107884436174;446.284898242627
317.129508161008;445.870296984659
317.151131885842;445.437375652576
317.172755610677;444.987226616025
317.194379335511;444.521549265529
317.216003060345;444.052331397002
317.237626785179;443.596126073025
317.259250510013;443.156129282046
317.280874234848;442.728369579269
317.302497959682;442.309901789523
317.324121684516;441.886674693407
317.34574540935;441.468831838805
317.367369134185;441.0739385417
317.388992859019;440.687680685455
317.410616583853;440.285401726864
317.432240308687;439.854616694726
317.453864033522;439.393353854157
317.475487758356;438.911986519648
317.49711148319;438.403294947886
317.518735208024;437.875415256901
317.540358932858;437.335268464805
317.561982657693;436.768150742963
317.583606382527;436.163130276565
317.605230107361;435.508017921459
317.626853832195;434.782428096387
317.64847755703;434.016652637794
317.670101281864;433.227886907659
317.691725006698;432.384386021819
317.713348731532;431.490423172946
317.734972456366;430.581802936518
317.756596181201;429.663458134956
317.778219906035;428.722935674754
317.799843630869;427.7525204227
317.821467355703;426.747333504382
317.843091080538;425.716259636664
317.864714805372;424.696851006048
317.886338530206;423.731638511567
317.90796225504;422.833434853418
317.929585979875;421.984833821088
317.951209704709;421.167718199432
317.972833429543;420.387344311694
317.994457154377;419.661764439356
318.016080879211;418.982448749352
318.037704604046;418.333183234747
318.05932832888;417.696063228295
318.080952053714;417.0628375391
318.102575778548;416.471267618035
318.124199503383;415.96653205104
318.145823228217;415.542048168743
318.167446953051;415.170898709286
318.189070677885;414.829357414169
318.210694402719;414.501575323126
318.232318127554;414.189310739968
318.253941852388;413.904036769739
318.275565577222;413.650762039026
318.297189302056;413.4201563796
318.318813026891;413.200522341015
318.340436751725;412.988930296431
318.362060476559;412.790837898099
318.383684201393;412.608752656807
318.405307926228;412.441836456492
318.426931651062;412.290970082842
318.448555375896;412.15710013868
318.47017910073;412.033639790261
318.491802825564;411.900577567037
318.513426550399;411.747446665049
318.535050275233;411.580822178147
318.556674000067;411.402298718687
318.578297724901;411.194905935574
318.599921449736;410.93695918277
318.62154517457;410.618005821896
318.643168899404;410.24848546391
318.664792624238;409.845999065847
318.686416349072;409.413878953826
318.708040073907;408.942193293239
318.729663798741;408.427364182914
318.751287523575;407.864887014704
318.772911248409;407.251776193865
318.794534973244;406.603559772526
318.816158698078;405.952204879845
318.837782422912;405.308642105596
318.859406147746;404.673362440751
318.881029872581;404.054096608093
318.902653597415;403.452617596556
318.924277322249;402.868536052189
318.945901047083;402.298819471394
318.967524771917;401.735164208838
318.989148496752;401.18038582305
319.010772221586;400.632670466875
319.03239594642;400.080911932657
319.054019671254;399.515397155557
319.075643396089;398.949016949315
319.097267120923;398.3996519457
319.118890845757;397.86117568889
319.140514570591;397.314293486643
319.162138295426;396.734872804277
319.18376202026;396.126252631767
319.205385745094;395.496010558129
319.227009469928;394.843957095683
319.248633194762;394.168766331545
319.270256919597;393.503833685469
319.291880644431;392.858767569027
319.313504369265;392.230732608124
319.335128094099;391.632488779483
319.356751818934;391.077251788527
319.378375543768;390.562575165559
319.399999268602;390.085656072776
319.421622993436;389.672571454074
319.44324671827;389.330814515322
319.464870443105;389.04448551087
319.486494167939;388.793662415114
319.508117892773;388.563428013329
319.529741617607;388.336977352066
319.551365342442;388.098815110253
319.572989067276;387.83805269438
319.59461279211;387.546625818033
319.616236516944;387.222531548267
319.637860241778;386.865457650001
319.659483966613;386.475603312626
319.681107691447;386.058844463441
319.702731416281;385.624254080621
319.724355141115;385.176973953699
319.74597886595;384.724405729896
319.767602590784;384.283351365256
319.789226315618;383.865986257605
319.810850040452;383.483831603361
319.832473765287;383.14359014464
319.854097490121;382.844528595147
319.875721214955;382.577861709978
319.897344939789;382.335687303819
319.918968664623;382.112864785882
319.940592389458;381.9143031088
319.962216114292;381.74632841173
319.983839839126;381.5969790171
320.00546356396;381.47067501022
320.027087288795;381.383841067958
320.048711013629;381.340630245264
320.070334738463;381.336694071346
320.091958463297;381.369144157668
320.113582188131;381.442899497446
320.135205912966;381.56517976129
320.1568296378;381.737639197273
320.178453362634;381.962617185335
320.200077087468;382.240132820651
320.221700812303;382.547889236489
320.243324537137;382.859794046435
320.264948261971;383.167608057467
320.286571986805;383.462756399506
320.30819571164;383.733106732337
320.329819436474;383.965296272082
320.351443161308;384.14152104712
320.373066886142;384.230845676818
320.394690610976;384.204891926317
320.416314335811;384.051392590276
320.437938060645;383.746059391651
320.459561785479;383.263311540304
320.481185510313;382.594743010043
320.502809235148;381.771589706489
320.524432959982;380.829286020597
320.546056684816;379.785339873573
320.56768040965;378.636591572615
320.589304134485;377.370785836485
320.610927859319;376.008082455488
320.632551584153;374.596854854969
320.654175308987;373.191501806912
320.675799033821;371.843747410966
320.697422758656;370.597127077121
320.71904648349;369.504486208476
320.740670208324;368.589582144077
320.762293933158;367.81581240745
320.783917657993;367.133205480582
320.805541382827;366.516191862983
320.827165107661;365.957334141555
320.848788832495;365.448415649986
320.870412557329;364.966675441015
320.892036282164;364.473951564891
320.913660006998;363.915462789331
320.935283731832;363.249955230625
320.956907456666;362.486521184446
320.978531181501;361.661703127498
321.000154906335;360.757763393227
321.021778631169;359.738920464099
321.043402356003;358.603592823589
321.065026080838;357.350015123959
321.086649805672;355.986228092733
321.108273530506;354.539560759391
321.12989725534;353.072862359877
321.151520980174;351.627544591073
321.173144705009;350.198894933557
321.194768429843;348.744566295768
321.216392154677;347.211541043435
321.238015879511;345.636353670512
321.259639604346;344.169020166116
321.28126332918;342.86424766226
321.302887054014;341.68593416639
321.324510778848;340.625434069006
321.346134503682;339.709829672896
321.367758228517;338.9804244214
321.389381953351;338.455706097914
321.411005678185;338.122092604389
321.432629403019;337.981263455182
321.454253127854;337.998930292344
321.475876852688;338.132098104196
321.497500577522;338.358124336247
321.519124302356;338.658648107035
321.54074802719;339.009766592216
321.562371752025;339.388846404707
321.583995476859;339.77716085328
321.605619201693;340.155192177446
321.627242926527;340.506386158085
321.648866651362;340.804898833739
321.670490376196;341.033582897082
321.69211410103;341.195030226407
321.713737825864;341.292529223224
321.735361550699;341.322000083358
321.756985275533;341.288069985314
321.778609000367;341.195998612171
321.800232725201;341.051993720178
321.821856450035;340.85753675995
321.84348017487;340.609285982643
321.865103899704;340.327327756354
321.886727624538;340.034563121331
321.908351349372;339.720595419616
321.929975074207;339.378420559741
321.951598799041;339.013793899842
321.973222523875;338.634384752163
321.994846248709;338.234551208592
322.016469973544;337.793543845439
322.038093698378;337.317082596386
322.059717423212;336.820969663346
322.081341148046;336.298022657743
322.10296487288;335.720440584551
322.124588597715;335.084313165367
322.146212322549;334.403683753682
322.167836047383;333.704295522628
322.189459772217;332.998872155358
322.211083497052;332.281452347984
322.232707221886;331.555441778327
322.25433094672;330.843129301573
322.275954671554;330.152457811853
322.297578396388;329.484807588716
322.319202121223;328.835569943727
322.340825846057;328.193199569311
322.362449570891;327.555702397048
322.384073295725;326.955549213919
322.40569702056;326.414983265617
322.427320745394;325.911923713613
322.448944470228;325.439926689243
322.470568195062;324.992855284164
322.492191919897;324.55018414054
322.513815644731;324.113377981425
322.535439369565;323.689491060244
322.557063094399;323.270452160347
322.578686819233;322.847465837762
322.600310544068;322.459562518175
322.621934268902;322.108125192465
322.643557993736;321.76645501077
322.66518171857;321.41795619135
322.686805443405;321.055448936204
322.708429168239;320.697651460833
322.730052893073;320.347119207259
322.751676617907;319.999382651152
322.773300342741;319.65383380652
322.794924067576;319.308655101773
322.81654779241;318.940307566054
322.838171517244;318.523073276764
322.859795242078;318.068295521199
322.881418966913;317.572095909134
322.903042691747;317.014516676918
322.924666416581;316.370896506527
322.946290141415;315.656784289508
322.96791386625;314.904992947305
322.989537591084;314.121840744413
323.011161315918;313.305174749324
323.032785040752;312.439902024764
323.054408765586;311.49835777672
323.076032490421;310.461805283273
323.097656215255;309.364427824708
323.119279940089;308.250023107555
323.140903664923;307.122062338991
323.162527389758;306.025534323468
323.184151114592;304.997581032855
323.205774839426;303.994757156999
323.22739856426;302.969783964112
323.249022289094;301.935245012018
323.270646013929;300.919250903714
323.292269738763;299.929485441022
323.313893463597;298.99036399293
323.335517188431;298.098140916904
323.357140913266;297.227186610464
323.3787646381;296.370944470682
323.400388362934;295.551319320282
323.422012087768;294.78869422404
323.443635812603;294.080939268017
323.465259537437;293.430255476446
323.486883262271;292.842177384785
323.508506987105;292.321301410246
323.530130711939;291.876807100492
323.551754436774;291.51280027175
323.573378161608;291.214667976252
323.595001886442;290.975337425631
323.616625611276;290.775832269719
323.638249336111;290.603790873962
323.659873060945;290.45987615305
323.681496785779;290.347763197585
323.703120510613;290.249149720707
323.724744235447;290.141113350886
323.746367960282;290.021103244905
323.767991685116;289.891963770262
323.78961540995;289.751897563134
323.811239134784;289.595228308234
323.832862859619;289.417716312081
323.854486584453;289.21349074771
323.876110309287;288.98396024759
323.897734034121;288.731586264134
323.919357758956;288.443943387424
323.94098148379;288.11499217932
323.962605208624;287.751742032586
323.984228933458;287.353513422743
324.005852658292;286.918360687267
324.027476383127;286.436734997771
324.049100107961;285.890021111521
324.070723832795;285.280230879302
324.092347557629;284.639041450471
324.113971282464;283.980965862531
324.135595007298;283.324240427186
324.157218732132;282.674960748357
324.178842456966;282.018997978907
324.2004661818;281.342592814273
324.222089906635;280.645738607657
324.243713631469;279.931697247238
324.265337356303;279.195447093402
324.286961081137;278.428809042101
324.308584805972;277.623620030498
324.330208530806;276.782354327794
324.35183225564;275.893232589309
324.373455980474;274.949707373523
324.395079705309;273.984949185363
324.416703430143;273.010444144718
324.438327154977;271.986244629269
324.459950879811;270.905651388858
324.481574604645;269.803577924661
324.50319832948;268.689171081066
324.524822054314;267.489503048798
324.546445779148;266.176903900901
324.568069503982;264.813225800083
324.589693228817;263.435266571735
324.611316953651;262.036810021768
324.632940678485;260.56847596493
324.654564403319;258.996804371206
324.676188128154;257.385795208331
324.697811852988;255.80089266342
324.719435577822;254.231994476373
324.741059302656;252.671199012628
324.76268302749;251.131643239277
324.784306752325;249.645545221161
