Name;ESR_BC_1_89s_Z_gon_140dg_result

Recipe
Accumulations;5;Number of accumulations
RetryCount;0;Number of retries on error
AbortOnError;True;Abort on error
EnableQFactorMeasurement;False;Enable/Disable q-Factor measurement
Bfrom;313;B from
Bto;363;B to
SweepTime;60;Sweep time
Modulation;0.2;Modulation
ModulationFreq;100;Modulation
BHoldEnabled;False;B hold enabled
BHold;0;B hold
MicrowavePower;2;Microwave power
MarkerEnabled;False;
MarkerStartField;0;
MarkerEndField;0;
Mode;;
KineticGFact;0;
KineticTotalTransientTime;0;
KineticTimeResolution;0;
TempFrom;5;
TempUseSlope;False;
TempTo;5;
TempdT;1;
TempSetupTime;0;
GonFrom;0;
GonTo;180;
GonSteps;20;
XRayEnabled;False;
XRayTime;3;
XRayVoltage;40;
XRayCurrent;0.5;
UVEnabled;False;
UVIntensity;0;
UVTime;0;
UVLeadTime;0;
UVWavelength;0;
PowSweepFrom;1;
PowSweepTo;5;
PowSweepSteps;5;
AmpModSweepFrom;0;
AmpModSweepTo;1;
AmpModSweepSteps;10;
ExtTriggerEnabled;False;
ExtTrigLeadTime;0;
ExtTrigOnTime;5;

Meas
BField [mT];MW_Absorption []
313.027379226685;84.6730493194539
313.049003620957;83.9641771983606
313.070628015229;83.3883585526401
313.092252409502;82.9701282836552
313.113876803774;82.7116404634152
313.135501198046;82.5884518922359
313.157125592318;82.5519536281674
313.178749986591;82.5915335731258
313.200374380863;82.6973755834375
313.221998775135;82.8503785844297
313.243623169408;83.0046224149785
313.26524756368;83.1510308943696
313.286871957952;83.3001297289878
313.308496352225;83.4360741102156
313.330120746497;83.5461968640925
313.351745140769;83.6493848725205
313.373369535042;83.7673893825276
313.394993929314;83.8974841102
313.416618323586;84.0180824503431
313.438242717858;84.1343944921428
313.459867112131;84.2620819386077
313.481491506403;84.4055210542611
313.503115900675;84.5556176998774
313.524740294948;84.70307102929
313.54636468922;84.8450100150496
313.567989083492;84.9811097130949
313.589613477765;85.1124077230903
313.611237872037;85.2404199438725
313.632862266309;85.361217010868
313.654486660582;85.468942476612
313.676111054854;85.5656951522253
313.697735449126;85.6533826312196
313.719359843399;85.7409654857652
313.740984237671;85.8349585985251
313.762608631943;85.9254110636866
313.784233026216;86.0043690204825
313.805857420488;86.0673086523703
313.82748181476;86.1064078063435
313.849106209032;86.1273249053732
313.870730603305;86.1366547206867
313.892354997577;86.136404025399
313.913979391849;86.1275144070438
313.935603786122;86.1068641430772
313.957228180394;86.0769231401925
313.978852574666;86.0433741015208
314.000476968939;86.0108894340437
314.022101363211;85.9804004337506
314.043725757483;85.9436293451873
314.065350151756;85.8836594778759
314.086974546028;85.7911570484008
314.1085989403;85.660611137485
314.130223334573;85.48774178155
314.151847728845;85.2791352038392
314.173472123117;85.0584111268341
314.195096517389;84.8339664770465
314.216720911662;84.6014503720008
314.238345305934;84.3615283128295
314.259969700206;84.1219529222308
314.281594094479;83.8874748646112
314.303218488751;83.661223037815
314.324842883023;83.4665837485344
314.346467277296;83.3336041507065
314.368091671568;83.2650665670789
314.38971606584;83.2528212339533
314.411340460113;83.2982402499212
314.432964854385;83.4196707237911
314.454589248657;83.6255129952934
314.47621364293;83.8614019693599
314.497838037202;84.1016050747299
314.519462431474;84.3497583032048
314.541086825746;84.6014323895023
314.562711220019;84.8489614809334
314.584335614291;85.0806875109257
314.605960008563;85.2955338136712
314.627584402836;85.4789027232509
314.649208797108;85.6153862920961
314.67083319138;85.7003020503422
314.692457585653;85.739073491925
314.714081979925;85.7205499779583
314.735706374197;85.6508234362564
314.75733076847;85.5301308324538
314.778955162742;85.3637907287876
314.800579557014;85.172722725286
314.822203951287;84.972511893069
314.843828345559;84.7581245328269
314.865452739831;84.5253203594471
314.887077134103;84.2979631911987
314.908701528376;84.1042254069843
314.930325922648;83.9618908277025
314.95195031692;83.8549936191591
314.973574711193;83.782506786739
314.995199105465;83.7471533958128
315.016823499737;83.7340134838679
315.03844789401;83.7282251610535
315.060072288282;83.7187101977523
315.081696682554;83.6959667780882
315.103321076827;83.6543659851304
315.124945471099;83.5848234097488
315.146569865371;83.467373104961
315.168194259644;83.2983715516804
315.189818653916;83.0887910123159
315.211443048188;82.8436377946919
315.23306744246;82.5577788765373
315.254691836733;82.2411569872871
315.276316231005;81.9096722372096
315.297940625277;81.5743423380727
315.31956501955;81.2526646859668
315.341189413822;80.9694286685224
315.362813808094;80.7497809506441
315.384438202367;80.5957552032185
315.406062596639;80.4922988055983
315.427686990911;80.4252147055043
315.449311385184;80.3919639861712
315.470935779456;80.3952313151562
315.492560173728;80.4294841055321
315.514184568001;80.4750150363834
315.535808962273;80.5116604102908
315.557433356545;80.5297383579235
315.579057750817;80.5249567563942
315.60068214509;80.4949506318784
315.622306539362;80.4407946569439
315.643930933634;80.3646653954488
315.665555327907;80.282584225378
315.687179722179;80.2051420773795
315.708804116451;80.1383045107928
315.730428510724;80.0885665349489
315.752052904996;80.0680315228695
315.773677299268;80.0860392215041
315.795301693541;80.1462423641605
315.816926087813;80.2553237232399
315.838550482085;80.4257202549869
315.860174876358;80.6569968469606
315.88179927063;80.9195870032695
315.903423664902;81.1987680080991
315.925048059175;81.5093819222315
315.946672453447;81.8737674925401
315.968296847719;82.2846202632142
315.989921241991;82.7006102636055
316.011545636264;83.101828665091
316.033170030536;83.4869371295548
316.054794424808;83.8618814298946
316.076418819081;84.2362684304393
316.098043213353;84.5654046349869
316.119667607625;84.8234035589657
316.141292001898;85.0159419505589
316.16291639617;85.1477377074687
316.184540790442;85.2218796560245
316.206165184715;85.2233961903486
316.227789578987;85.1713983042619
316.249413973259;85.0739299196021
316.271038367532;84.9205091285132
316.292662761804;84.7308152334598
316.314287156076;84.5213178740232
316.335911550348;84.3039479200063
316.357535944621;84.0910022914483
316.379160338893;83.8922423564071
316.400784733165;83.7096851325199
316.422409127438;83.5424519264198
316.44403352171;83.3967745836676
316.465657915982;83.2829599682503
316.487282310255;83.2059986475714
316.508906704527;83.169286629705
316.530531098799;83.1730053206436
316.552155493072;83.2194108600794
316.573779887344;83.3069268967609
316.595404281616;83.4322866060452
316.617028675888;83.5968952136586
316.638653070161;83.8069435731992
316.660277464433;84.0495141575706
316.681901858705;84.2901292273798
316.703526252978;84.50802748512
316.72515064725;84.69702176665
316.746775041522;84.8475497176011
316.768399435795;84.9457801382047
316.790023830067;84.9785942176279
316.811648224339;84.9259482758873
316.833272618612;84.7724091398883
316.854897012884;84.5211241644373
316.876521407156;84.196552289945
316.898145801429;83.8025328487394
316.919770195701;83.3436144880928
316.941394589973;82.829973215876
316.963018984246;82.2805380447562
316.984643378518;81.701808786341
317.00626777279;81.1014491641612
317.027892167062;80.474666091819
317.049516561335;79.8174382147326
317.071140955607;79.1588479470183
317.092765349879;78.5270670224854
317.114389744152;77.9190299236694
317.136014138424;77.3266823231143
317.157638532696;76.757465017789
317.179262926969;76.2235116379701
317.200887321241;75.7160738144002
317.222511715513;75.2379009433852
317.244136109786;74.8131946498495
317.265760504058;74.4413089355394
317.28738489833;74.0990797973791
317.309009292603;73.7902591336946
317.330633686875;73.532008289044
317.352258081147;73.3232456858889
317.373882475419;73.1613956231637
317.395506869692;73.0390443143791
317.417131263964;72.9429299800902
317.438755658236;72.8638727558027
317.460380052509;72.792343242396
317.482004446781;72.7184258322309
317.503628841053;72.6356574394493
317.525253235326;72.5411722252132
317.546877629598;72.4299736949224
317.56850202387;72.2878739075719
317.590126418143;72.1100399247397
317.611750812415;71.9240630111208
317.633375206687;71.7410781863482
317.65499960096;71.5467007652153
317.676623995232;71.3392290774802
317.698248389504;71.1268782709274
317.719872783776;70.9168346970259
317.741497178049;70.7058849127431
317.763121572321;70.4941139133137
317.784745966593;70.2813398995268
317.806370360866;70.0686789041496
317.827994755138;69.8557628982242
317.84961914941;69.6395441467646
317.871243543683;69.4316337303925
317.892867937955;69.2361012918433
317.914492332227;69.0455035354835
317.9361167265;68.8632166057944
317.957741120772;68.7055188142967
317.979365515044;68.5762749785189
318.000989909317;68.4773665787652
318.022614303589;68.4171863813583
318.044238697861;68.3952444661757
318.065863092134;68.4034220366282
318.087487486406;68.4394794466916
318.109111880678;68.5068101175049
318.13073627495;68.6101568891371
318.152360669223;68.7503787764737
318.173985063495;68.9215819782328
318.195609457767;69.1192144979333
318.21723385204;69.3457758002128
318.238858246312;69.6070798767299
318.260482640584;69.9002570726487
318.282107034857;70.2044413954227
318.303731429129;70.4963651378946
318.325355823401;70.7579582387856
318.346980217674;70.9897784883711
318.368604611946;71.194089479165
318.390229006218;71.3691152509258
318.41185340049;71.5170142599591
318.433477794763;71.6413961589428
318.455102189035;71.740306229044
318.476726583307;71.7994752181436
318.49835097758;71.8137330729128
318.519975371852;71.7816058368576
318.541599766124;71.7037609073357
318.563224160397;71.5858427228472
318.584848554669;71.4410290853536
318.606472948941;71.2721481757563
318.628097343214;71.0762971712529
318.649721737486;70.8532299170773
318.671346131758;70.6122806701575
318.692970526031;70.3653309331404
318.714594920303;70.114083676888
318.736219314575;69.8561083731628
318.757843708847;69.5943585210476
318.77946810312;69.3355016612627
318.801092497392;69.088250599727
318.822716891664;68.8550268705557
318.844341285937;68.6208688210293
318.865965680209;68.3719540341471
318.887590074481;68.1110023980734
318.909214468754;67.8464342667081
318.930838863026;67.57284167857
318.952463257298;67.2873697921937
318.974087651571;67.0028598379466
318.995712045843;66.7250069743328
319.017336440115;66.4477020882463
319.038960834388;66.1644421304744
319.06058522866;65.881159716012
319.082209622932;65.6059419559171
319.103834017205;65.3415296157454
319.125458411477;65.0935623154834
319.147082805749;64.8749571160818
319.168707200021;64.7037810071932
319.190331594294;64.5831797027666
319.211955988566;64.5033038537421
319.233580382838;64.4738222261182
319.255204777111;64.5039862954323
319.276829171383;64.5881666757233
319.298453565655;64.7135153740701
319.320077959928;64.8810983032513
319.3417023542;65.0836414820843
319.363326748472;65.2909601849356
319.384951142745;65.4739036675268
319.406575537017;65.6179389885188
319.428199931289;65.7150750897418
319.449824325562;65.7560731933083
319.471448719834;65.7259279583425
319.493073114106;65.6187976280152
319.514697508378;65.4253299061569
319.536321902651;65.1521025636581
319.557946296923;64.8152662989121
319.579570691195;64.4174303130939
319.601195085468;63.9651922277106
319.62281947974;63.4748955271112
319.644443874012;62.9582898032586
319.666068268285;62.4294097952228
319.687692662557;61.900355135931
319.709317056829;61.3882466552692
319.730941451102;60.9105218001163
319.752565845374;60.4848318757943
319.774190239646;60.1185759753187
319.795814633919;59.8177487808067
319.817439028191;59.5902561679264
319.839063422463;59.4264707394282
319.860687816735;59.3185552327046
319.882312211008;59.2737188354174
319.90393660528;59.2828574027521
319.925560999552;59.328253721786
319.947185393825;59.3941908629592
319.968809788097;59.4657325832211
319.990434182369;59.5323779770068
320.012058576642;59.5798002984692
320.033682970914;59.5921796428222
320.055307365186;59.5601519338937
320.076931759459;59.4743419539463
320.098556153731;59.3288759359819
320.120180548003;59.1265942013544
320.141804942276;58.8642190633277
320.163429336548;58.5403488973071
320.18505373082;58.1787612806299
320.206678125092;57.7999254556008
320.228302519365;57.4017796709132
320.249926913637;56.9745021523491
320.271551307909;56.5308977466827
320.293175702182;56.1020243139391
320.314800096454;55.7095944400966
320.336424490726;55.3881906750189
320.358048884999;55.138841059679
320.379673279271;54.967392742939
320.401297673543;54.8706548767545
320.422922067816;54.8405880985515
320.444546462088;54.8821564063244
320.46617085636;54.9975429419659
320.487795250633;55.1788041938656
320.509419644905;55.4128353727591
320.531044039177;55.6909809734793
320.552668433449;55.9946030659321
320.574292827722;56.2919116966127
320.595917221994;56.590043631922
320.617541616266;56.9096532878336
320.639166010539;57.2528488870123
320.660790404811;57.5821187222293
320.682414799083;57.8833569632206
320.704039193356;58.1611668794129
320.725663587628;58.4190795718112
320.7472879819;58.6666390209563
320.768912376173;58.9135933731706
320.790536770445;59.1541750904984
320.812161164717;59.3864355757783
320.83378555899;59.6143288150895
320.855409953262;59.8365321140885
320.877034347534;60.057848550141
320.898658741806;60.2927949916437
320.920283136079;60.5505413775068
320.941907530351;60.8337972254449
320.963531924623;61.1415870273944
320.985156318896;61.4608348443115
321.006780713168;61.7742099931487
321.02840510744;62.0726867927252
321.050029501713;62.3537975893806
321.071653895985;62.6158265932695
321.093278290257;62.8503175512371
321.11490268453;63.0360772711925
321.136527078802;63.1577245680281
321.158151473074;63.2165710909028
321.179775867347;63.2199165016609
321.201400261619;63.1696414786416
321.223024655891;63.0582057346778
321.244649050164;62.8813376110989
321.266273444436;62.6492710882869
321.287897838708;62.3812972748471
321.30952223298;62.0970093671704
321.331146627253;61.8031006117137
321.352771021525;61.4967212185396
321.374395415797;61.1888541652819
321.39601981007;60.9142381326048
321.417644204342;60.6838284573469
321.439268598614;60.4991963093344
321.460892992887;60.3582570925336
321.482517387159;60.2591127430624
321.504141781431;60.196888568758
321.525766175704;60.1611245696448
321.547390569976;60.1374541768319
321.569014964248;60.1069190586894
321.59063935852;60.054454665435
321.612263752793;59.965143125182
321.633888147065;59.8253272085496
321.655512541337;59.6263731121974
321.67713693561;59.3674578824155
321.698761329882;59.0413857075343
321.720385724154;58.6419983334716
321.742010118427;58.1945354126235
321.763634512699;57.7209150043371
321.785258906971;57.2219571341615
321.806883301244;56.6971168910393
321.828507695516;56.1495506901662
321.850132089788;55.5859142128263
321.871756484061;55.0208434492502
321.893380878333;54.4737906638087
321.915005272605;53.9591301398363
321.936629666877;53.4947559482995
321.95825406115;53.0945924755636
321.979878455422;52.7634451721849
322.001502849694;52.5013030614853
322.023127243967;52.3091202467276
322.044751638239;52.1915217654648
322.066376032511;52.1574010406735
322.088000426784;52.2060563871391
322.109624821056;52.3209232695698
322.131249215328;52.48775195853
322.152873609601;52.7022816243247
322.174498003873;52.9600139548591
322.196122398145;53.2400585144567
322.217746792418;53.5112568481351
322.23937118669;53.7521516568853
322.260995580962;53.9555858925188
322.282619975235;54.1108099625918
322.304244369507;54.2087837220167
322.325868763779;54.2443203656508
322.347493158051;54.2090511432574
322.369117552324;54.1091549040615
322.390741946596;53.9623951410271
322.412366340868;53.7730835011864
322.433990735141;53.5454363368519
322.455615129413;53.2913647860008
322.477239523685;53.0230367874736
322.498863917958;52.7414046787227
322.52048831223;52.448564261061
322.542112706502;52.1631902540883
322.563737100775;51.9050054116219
322.585361495047;51.67898583986
322.606985889319;51.4846845911136
322.628610283592;51.3179347548155
322.650234677864;51.1797808952603
322.671859072136;51.0683809423884
322.693483466408;50.984246287797
322.715107860681;50.9245551228547
322.736732254953;50.88268909392
322.758356649225;50.8542437033351
322.779981043498;50.8381585961331
322.80160543777;50.8368230276778
322.823229832042;50.8431419857079
322.844854226315;50.8479937809973
322.866478620587;50.8423451624277
322.888103014859;50.8215211737912
322.909727409132;50.7882775599924
322.931351803404;50.7513175527205
322.952976197676;50.7150298720211
322.974600591949;50.6793878374545
322.996224986221;50.6467993837806
323.017849380493;50.6279979338472
323.039473774766;50.6337293379674
323.061098169038;50.6681299718838
323.08272256331;50.7271254840664
323.104346957582;50.8177695518593
323.125971351855;50.9360329325016
323.147595746127;51.0767100762816
323.169220140399;51.2245296695022
323.190844534672;51.3545940051142
323.212468928944;51.4512807407133
323.234093323216;51.5146585076005
323.255717717489;51.5428334963409
323.277342111761;51.5216085033918
323.298966506033;51.4391249967634
323.320590900306;51.2903555895443
323.342215294578;51.0848410619269
323.36383968885;50.8372320856719
323.385464083122;50.5622525259896
323.407088477395;50.2856300102275
323.428712871667;50.0223272134754
323.450337265939;49.7896103589324
323.471961660212;49.5955599489636
323.493586054484;49.4461512656588
323.515210448756;49.3504411767269
323.536834843029;49.3118767647578
323.558459237301;49.3233591518779
323.580083631573;49.3823689180669
323.601708025846;49.4819610281773
323.623332420118;49.6062321212423
323.64495681439;49.7443520961949
323.666581208663;49.8828006214951
323.688205602935;50.0098817742059
323.709829997207;50.1256752969672
323.731454391479;50.2307134289384
323.753078785752;50.3234583177808
323.774703180024;50.4006797713075
323.796327574296;50.4585162687824
323.817951968569;50.4950889075585
323.839576362841;50.5142012193738
323.861200757113;50.5216961162626
323.882825151386;50.5294456348092
323.904449545658;50.5351213991504
323.92607393993;50.5333153146403
323.947698334203;50.520122163419
323.969322728475;50.4949788109942
323.990947122747;50.4676987723604
324.01257151702;50.4496497819707
324.034195911292;50.4397820833471
324.055820305564;50.4429609110708
324.077444699837;50.4660140307133
324.099069094109;50.5050357191357
324.120693488381;50.5431939909487
324.142317882653;50.5701079499608
324.163942276926;50.5794681628892
324.185566671198;50.5687001934808
324.20719106547;50.5380818654818
324.228815459743;50.4763340280948
324.250439854015;50.3639985596183
324.272064248287;50.1815244903914
324.29368864256;49.9366914938379
324.315313036832;49.6471600777901
324.336937431104;49.3134297311816
324.358561825377;48.9469900757898
324.380186219649;48.5715427472011
324.401810613921;48.2160431619448
324.423435008194;47.8895260350116
324.445059402466;47.5901492217977
324.466683796738;47.3204085863245
324.48830819101;47.0950191948592
324.509932585283;46.927966935485
324.531556979555;46.8110443882482
324.553181373827;46.7481576356306
324.5748057681;46.7320703528089
324.596430162372;46.7443453152723
324.618054556644;46.7739004082621
324.639678950917;46.810810883246
324.661303345189;46.8442990804402
324.682927739461;46.8577076782105
324.704552133734;46.8438477093978
324.726176528006;46.7895909778109
324.747800922278;46.6836663949976
324.769425316551;46.5247614951771
