Name;ESR_BC_1_7200s_X_gon_20dg_result

Recipe
Accumulations;5;Number of accumulations
RetryCount;0;Number of retries on error
AbortOnError;True;Abort on error
EnableQFactorMeasurement;False;Enable/Disable q-Factor measurement
Bfrom;313;B from
Bto;363;B to
SweepTime;60;Sweep time
Modulation;0.2;Modulation
ModulationFreq;100;Modulation
BHoldEnabled;False;B hold enabled
BHold;0;B hold
MicrowavePower;2;Microwave power
MarkerEnabled;False;
MarkerStartField;0;
MarkerEndField;0;
Mode;;
KineticGFact;0;
KineticTotalTransientTime;0;
KineticTimeResolution;0;
TempFrom;5;
TempUseSlope;False;
TempTo;5;
TempdT;1;
TempSetupTime;0;
GonFrom;0;
GonTo;180;
GonSteps;20;
XRayEnabled;False;
XRayTime;3;
XRayVoltage;40;
XRayCurrent;0.5;
UVEnabled;False;
UVIntensity;0;
UVTime;0;
UVLeadTime;0;
UVWavelength;0;
PowSweepFrom;1;
PowSweepTo;5;
PowSweepSteps;5;
AmpModSweepFrom;0;
AmpModSweepTo;1;
AmpModSweepSteps;10;
ExtTriggerEnabled;False;
ExtTrigLeadTime;0;
ExtTrigOnTime;5;

Meas
BField [mT];MW_Absorption []
313.022462310791;524.741180825233
313.044085163265;524.239373742187
313.065708015739;523.694139968676
313.087330868213;523.125668706198
313.108953720687;522.563448829551
313.130576573161;522.045139060299
313.152199425635;521.565671527293
313.173822278109;521.110227676567
313.195445130584;520.688128498095
313.217067983058;520.315446009765
313.238690835532;520.011014896827
313.260313688006;519.784537346511
313.28193654048;519.612473886622
313.303559392954;519.467057341747
313.325182245428;519.329291139156
313.346805097902;519.191967812377
313.368427950376;519.046248347728
313.39005080285;518.873618377465
313.411673655324;518.656643470581
313.433296507798;518.388776574968
313.454919360272;518.07385930725
313.476542212746;517.710309045924
313.49816506522;517.284617917028
313.519787917694;516.783700476957
313.541410770169;516.231887997849
313.563033622643;515.679560224953
313.584656475117;515.155622087756
313.606279327591;514.660612230018
313.627902180065;514.16127612173
313.649525032539;513.631836872601
313.671147885013;513.097388615991
313.692770737487;512.597810837456
313.714393589961;512.128694330312
313.736016442435;511.675360293787
313.757639294909;511.211249523894
313.779262147383;510.731215732486
313.800884999857;510.23586672333
313.822507852331;509.743934054348
313.844130704805;509.256234538236
313.86575355728;508.784635223773
313.887376409754;508.341405729748
313.908999262228;507.920867698113
313.930622114702;507.505117981882
313.952244967176;507.081429136039
313.97386781965;506.662374885651
313.995490672124;506.260308602124
314.017113524598;505.87109014374
314.038736377072;505.47939362636
314.060359229546;505.072899393374
314.08198208202;504.648114527239
314.103604934494;504.212285188891
314.125227786968;503.776019374411
314.146850639442;503.343595320514
314.168473491916;502.905320657888
314.190096344391;502.45064505846
314.211719196865;502.000209730905
314.233342049339;501.580686559612
314.254964901813;501.194114895168
314.276587754287;500.828094173983
314.298210606761;500.468700849891
314.319833459235;500.117702912943
314.341456311709;499.771200820874
314.363079164183;499.416436180189
314.384702016657;499.049081156524
314.406324869131;498.679627911616
314.427947721605;498.318803961634
314.449570574079;497.957930206125
314.471193426553;497.586910309538
314.492816279027;497.204326107775
314.514439131501;496.817924196065
314.536061983976;496.443372014099
314.55768483645;496.081066355632
314.579307688924;495.722569815174
314.600930541398;495.362288509077
314.622553393872;494.986064721127
314.644176246346;494.580602451731
314.66579909882;494.137154271959
314.687421951294;493.647027215332
314.709044803768;493.113038840461
314.730667656242;492.545685751903
314.752290508716;491.952458314622
314.77391336119;491.3407812254
314.795536213664;490.717783112477
314.817159066138;490.091600295555
314.838781918612;489.475462315073
314.860404771086;488.907550523905
314.882027623561;488.401491005652
314.903650476035;487.94946159993
314.925273328509;487.538750631194
314.946896180983;487.15786170065
314.968519033457;486.802388675766
314.990141885931;486.478285989471
315.011764738405;486.19226524027
315.033387590879;485.934390235298
315.055010443353;485.691255971585
315.076633295827;485.460951771075
315.098256148301;485.245449739447
315.119879000775;485.050973604455
315.141501853249;484.88421933514
315.163124705723;484.747404619559
315.184747558197;484.637527525172
315.206370410671;484.55797333693
315.227993263146;484.516512887158
315.24961611562;484.509566151572
315.271238968094;484.524603045342
315.292861820568;484.545498681013
315.314484673042;484.558659081024
315.336107525516;484.549807553169
315.35773037799;484.508582189393
315.379353230464;484.427099200552
315.400976082938;484.288660817399
315.422598935412;484.074233317469
315.444221787886;483.777803133898
315.46584464036;483.409045760128
315.487467492834;482.970881096542
315.509090345308;482.466037511933
315.530713197782;481.915642336111
315.552336050256;481.337944101302
315.573958902731;480.735546662987
315.595581755205;480.107439461827
315.617204607679;479.469612369633
315.638827460153;478.837404688242
315.660450312627;478.214196119046
315.682073165101;477.600118910147
315.703696017575;477.010936391191
315.725318870049;476.470986637867
315.746941722523;475.979802062784
315.768564574997;475.524367913207
315.790187427471;475.104007882358
315.811810279945;474.735036683875
315.833433132419;474.425077736399
315.855055984893;474.15964987205
315.876678837367;473.926602617862
315.898301689842;473.722798124833
315.919924542316;473.548287594459
315.94154739479;473.396437628294
315.963170247264;473.256523990479
315.984793099738;473.132840088153
316.006415952212;473.026325675692
316.028038804686;472.936397240901
316.04966165716;472.874444474274
316.071284509634;472.846321764507
316.092907362108;472.845928734888
316.114530214582;472.866974066455
316.136153067056;472.908232233521
316.15777591953;472.971953034273
316.179398772004;473.05824907535
316.201021624478;473.166405569605
316.222644476953;473.293113128919
316.244267329427;473.430241608032
316.265890181901;473.576445085498
316.287513034375;473.7264878159
316.309135886849;473.866912620031
316.330758739323;473.98295121594
316.352381591797;474.058714260063
316.374004444271;474.077588319198
316.395627296745;474.030753171553
316.417250149219;473.910381770148
316.438873001693;473.709395222604
316.460495854167;473.427326230281
316.482118706641;473.064625387776
316.503741559115;472.627291159316
316.525364411589;472.126461388376
316.546987264063;471.57311462758
316.568610116538;470.984734840275
316.590232969012;470.372478385121
316.611855821486;469.751051172987
316.63347867396;469.153125435216
316.655101526434;468.589944728612
316.676724378908;468.054794601445
316.698347231382;467.542764781489
316.719970083856;467.061414883301
316.74159293633;466.621139845327
316.763215788804;466.215866202826
316.784838641278;465.833638653713
316.806461493752;465.469022475483
316.828084346226;465.113910941425
316.8497071987;464.762194233005
316.871330051174;464.422812050166
316.892952903648;464.082076376899
316.914575756123;463.720945152458
316.936198608597;463.333752055881
316.957821461071;462.922091329713
316.979444313545;462.500449645017
317.001067166019;462.064871247336
317.022690018493;461.603081485624
317.044312870967;461.13639894743
317.065935723441;460.687912277338
317.087558575915;460.250687948676
317.109181428389;459.828837628968
317.130804280863;459.440123627248
317.152427133337;459.096133767563
317.174049985811;458.795144013383
317.195672838285;458.529234129851
317.217295690759;458.301340736205
317.238918543234;458.114905875344
317.260541395708;457.973302376908
317.282164248182;457.872643742278
317.303787100656;457.806151415465
317.32540995313;457.762042741153
317.347032805604;457.72308188531
317.368655658078;457.686333416941
317.390278510552;457.649007045019
317.411901363026;457.603294487237
317.4335242155;457.540585523806
317.455147067974;457.452516026181
317.476769920448;457.328254498228
317.498392772922;457.154641541577
317.520015625396;456.920792358161
317.54163847787;456.617046547956
317.563261330344;456.244465184472
317.584884182819;455.807309875683
317.606507035293;455.313055196863
317.628129887767;454.758182671111
317.649752740241;454.141512831979
317.671375592715;453.486371982466
317.692998445189;452.822422581635
317.714621297663;452.167000385318
317.736244150137;451.52582300305
317.757867002611;450.888002421649
317.779489855085;450.24247052215
317.801112707559;449.593287496124
317.822735560033;448.973547195521
317.844358412507;448.396893807243
317.865981264981;447.847702757248
317.887604117455;447.324189711544
317.909226969929;446.827232827933
317.930849822404;446.357221360277
317.952472674878;445.900739268289
317.974095527352;445.432073999644
317.995718379826;444.944858201929
318.0173412323;444.448445782863
318.038964084774;443.938988420467
318.060586937248;443.394619829807
318.082209789722;442.794670664243
318.103832642196;442.130287952026
318.12545549467;441.395416959355
318.147078347144;440.597220181266
318.168701199618;439.760433390586
318.190324052092;438.892063445972
318.211946904566;437.976696196246
318.23356975704;437.009361253541
318.255192609514;436.011353214892
318.276815461989;435.001632847583
318.298438314463;434.000259461318
318.320061166937;433.0658587327
318.341684019411;432.254082148402
318.363306871885;431.548883250349
318.384929724359;430.9310610837
318.406552576833;430.400979769633
318.428175429307;429.948665216399
318.449798281781;429.559992916083
318.471421134255;429.233298801583
318.493043986729;428.949055151686
318.514666839203;428.677723858093
318.536289691677;428.409351800439
318.557912544151;428.139103583983
318.579535396625;427.857116659263
318.6011582491;427.56916800779
318.622781101574;427.278150234826
318.644403954048;426.978275338024
318.666026806522;426.663492695449
318.687649658996;426.330121565636
318.70927251147;425.978589010806
318.730895363944;425.614916836138
318.752518216418;425.243487194201
318.774141068892;424.859182555531
318.795763921366;424.44900503192
318.81738677384;424.011103932883
318.839009626314;423.558929840715
318.860632478788;423.097194577764
318.882255331262;422.617551387994
318.903878183736;422.112241238776
318.925501036211;421.57312032218
318.947123888685;420.997724269468
318.968746741159;420.400399686891
318.990369593633;419.809536638003
319.011992446107;419.219941057186
319.033615298581;418.598513724026
319.055238151055;417.924249425792
319.076861003529;417.237801941814
319.098483856003;416.576846512655
319.120106708477;415.923422402832
319.141729560951;415.262212685018
319.163352413425;414.593944274661
319.184975265899;413.912809715363
319.206598118373;413.206617179432
319.228220970847;412.501555342132
319.249843823321;411.814767883028
319.271466675796;411.14554410225
319.29308952827;410.490469963058
319.314712380744;409.832380746408
319.336335233218;409.174137306555
319.357958085692;408.543326216385
319.379580938166;407.944717100419
319.40120379064;407.356987431585
319.422826643114;406.761380780561
319.444449495588;406.147850702942
319.466072348062;405.528885806517
319.487695200536;404.937110893557
319.50931805301;404.391780743467
319.530940905484;403.888327837341
319.552563757958;403.416339820513
319.574186610432;402.975265070089
319.595809462906;402.568766841926
319.617432315381;402.191091578753
319.639055167855;401.834189817404
319.660678020329;401.495734932008
319.682300872803;401.176680276335
319.703923725277;400.880726758953
319.725546577751;400.612519034809
319.747169430225;400.37231367297
319.768792282699;400.161149474016
319.790415135173;399.979670150249
319.812037987647;399.822745732779
319.833660840121;399.691710458845
319.855283692595;399.585365123202
319.876906545069;399.50053811175
319.898529397543;399.440231854437
319.920152250017;399.399619820569
319.941775102491;399.386644047625
319.963397954966;399.403669855108
319.98502080744;399.452541401757
320.006643659914;399.536801744302
320.028266512388;399.657475860871
320.049889364862;399.815242708061
320.071512217336;400.007608644243
320.09313506981;400.235007180087
320.114757922284;400.503514508284
320.136380774758;400.813627147746
320.158003627232;401.157998633921
320.179626479706;401.522678072063
320.20124933218;401.897365657127
320.222872184654;402.295622260265
320.244495037128;402.71997581449
320.266117889602;403.131116578075
320.287740742077;403.495938229833
320.309363594551;403.811262196642
320.330986447025;404.084228099254
320.352609299499;404.314606854962
320.374232151973;404.471732341552
320.395855004447;404.497420092872
320.417477856921;404.365922961921
320.439100709395;404.089822969815
320.460723561869;403.674506205261
320.482346414343;403.105152573511
320.503969266817;402.342562700766
320.525592119291;401.351343235676
320.547214971765;400.184690334629
320.568837824239;398.960433037963
320.590460676713;397.754041789735
320.612083529187;396.591555360084
320.633706381662;395.477844495996
320.655329234136;394.407155632437
320.67695208661;393.373520860752
320.698574939084;392.443063836337
320.720197791558;391.668734907002
320.741820644032;391.031339957218
320.763443496506;390.509488985798
320.78506634898;390.126082573127
320.806689201454;389.880948004976
320.828312053928;389.723696063752
320.849934906402;389.608360125755
320.871557758876;389.504921301079
320.89318061135;389.393706475243
320.914803463824;389.252854287783
320.936426316298;389.051015769967
320.958049168773;388.762530687874
320.979672021247;388.358955024618
321.001294873721;387.822127185817
321.022917726195;387.168740393285
321.044540578669;386.404876004605
321.066163431143;385.517116508438
321.087786283617;384.474199436529
321.109409136091;383.28131123794
321.131031988565;381.989604872362
321.152654841039;380.630951196001
321.174277693513;379.224188004554
321.195900545987;377.837428932074
321.217523398461;376.532220253713
321.239146250935;375.294158540893
321.260769103409;374.078166077444
321.282391955884;372.899152799943
321.304014808358;371.817152268653
321.325637660832;370.871895013892
321.347260513306;370.078163078282
321.36888336578;369.454080085067
321.390506218254;368.993943242129
321.412129070728;368.686105900694
321.433751923202;368.516386131202
321.455374775676;368.469437858822
321.47699762815;368.512517209171
321.498620480624;368.617611698115
321.520243333098;368.78091793709
321.541866185572;369.002562949667
321.563489038046;369.258185898733
321.58511189052;369.511686411236
321.606734742994;369.747190302985
321.628357595469;369.965658924714
321.649980447943;370.166709991971
321.671603300417;370.345695523277
321.693226152891;370.500257664669
321.714849005365;370.629995723406
321.736471857839;370.73591329486
321.758094710313;370.821905697691
321.779717562787;370.893438130677
321.801340415261;370.950797225315
321.822963267735;370.996336954224
321.844586120209;371.035882212947
321.866208972683;371.066833232387
321.887831825157;371.085420946051
321.909454677631;371.089642198196
321.931077530105;371.0757436345
321.952700382579;371.040934634995
321.974323235054;370.977124001955
321.995946087528;370.873612022308
322.017568940002;370.717434587235
322.039191792476;370.503078498536
322.06081464495;370.237480734403
322.082437497424;369.952360390105
322.104060349898;369.664770742038
322.125683202372;369.360204387306
322.147306054846;369.041579871483
322.16892890732;368.724853518032
322.190551759794;368.403137411029
322.212174612268;368.065764534833
322.233797464742;367.711839389788
322.255420317216;367.335014246688
322.27704316969;366.945584722543
322.298666022164;366.551691384434
322.320288874639;366.159315168951
322.341911727113;365.772728254931
322.363534579587;365.384300718712
322.385157432061;364.974537692403
322.406780284535;364.523672290169
322.428403137009;364.041634663865
322.450025989483;363.539118177855
322.471648841957;362.982350648631
322.493271694431;362.334438556966
322.514894546905;361.622419064781
322.536517399379;360.896737014705
322.558140251853;360.152010226755
322.579763104327;359.350228497185
322.601385956801;358.46502790618
322.623008809275;357.514665814358
322.644631661749;356.534040528385
322.666254514224;355.550700788761
322.687877366698;354.575868005102
322.709500219172;353.600221144577
322.731123071646;352.620456027041
322.75274592412;351.644928633423
322.774368776594;350.711875676386
322.795991629068;349.850726908131
322.817614481542;349.044045890709
322.839237334016;348.272011443786
322.86086018649;347.521168044441
322.882483038964;346.78865366088
322.904105891438;346.06854272485
322.925728743912;345.360989847002
322.947351596386;344.684837411495
322.96897444886;344.049252155291
322.990597301335;343.445068589518
323.012220153809;342.870190937837
323.033843006283;342.323060206557
323.055465858757;341.775887425843
323.077088711231;341.223147771848
323.098711563705;340.673518732213
323.120334416179;340.13353048056
323.141957268653;339.621702780887
323.163580121127;339.145794575002
323.185202973601;338.689448716338
323.206825826075;338.245218630861
323.228448678549;337.816093310746
323.250071531023;337.396256424078
323.271694383497;336.988114651124
323.293317235971;336.586045497022
323.314940088446;336.174721550556
323.33656294092;335.748370466564
323.358185793394;335.298036400166
323.379808645868;334.807170267822
323.401431498342;334.26951145938
323.423054350816;333.706783689674
323.44467720329;333.125233818208
323.466300055764;332.518761988576
323.487922908238;331.886080317908
323.509545760712;331.218849400658
323.531168613186;330.499816669634
323.55279146566;329.721273101231
323.574414318134;328.925355788054
323.596037170608;328.126025385099
323.617660023082;327.318746324563
323.639282875556;326.520449573193
323.660905728031;325.719490699598
323.682528580505;324.940164402113
323.704151432979;324.187064978247
323.725774285453;323.438607563308
323.747397137927;322.665115065718
323.769019990401;321.854322967257
323.790642842875;321.031443204443
323.812265695349;320.210936537069
323.833888547823;319.385315863356
323.855511400297;318.54427823426
323.877134252771;317.693517585377
323.898757105245;316.828456031384
323.920379957719;315.930113849212
323.942002810193;314.98525354715
323.963625662667;314.006764335999
323.985248515142;313.029235826468
324.006871367616;312.052257430747
324.02849422009;311.062692652579
324.050117072564;310.080875748606
324.071739925038;309.113084490466
324.093362777512;308.152850989081
324.114985629986;307.187331644505
324.13660848246;306.227598978769
324.158231334934;305.306969856422
324.179854187408;304.447836292435
324.201477039882;303.624831580819
324.223099892356;302.790056021148
324.24472274483;301.915297726011
324.266345597304;301.000167633499
324.287968449778;300.085310141884
324.309591302252;299.186008046487
324.331214154727;298.301095404308
324.352837007201;297.401506734499
324.374459859675;296.46944834974
324.396082712149;295.488661189781
324.417705564623;294.433665233777
324.439328417097;293.298770181749
324.460951269571;292.10025531462
324.482574122045;290.846243451208
324.504196974519;289.538767442788
324.525819826993;288.183249008863
324.547442679467;286.787710951235
324.569065531941;285.322185831786
324.590688384415;283.720777343794
324.612311236889;281.994638159351
324.633934089363;280.255428610954
324.655556941837;278.590862450164
324.677179794312;276.993282565059
324.698802646786;275.415454537903
324.72042549926;273.819823465089
324.742048351734;272.188465216055
324.763671204208;270.571796968365
