Name;ESR_BC_1_359s_X_gon_80dg_result

Recipe
Accumulations;5;Number of accumulations
RetryCount;0;Number of retries on error
AbortOnError;True;Abort on error
EnableQFactorMeasurement;False;Enable/Disable q-Factor measurement
Bfrom;313;B from
Bto;363;B to
SweepTime;60;Sweep time
Modulation;0.2;Modulation
ModulationFreq;100;Modulation
BHoldEnabled;False;B hold enabled
BHold;0;B hold
MicrowavePower;2;Microwave power
MarkerEnabled;False;
MarkerStartField;0;
MarkerEndField;0;
Mode;;
KineticGFact;0;
KineticTotalTransientTime;0;
KineticTimeResolution;0;
TempFrom;5;
TempUseSlope;False;
TempTo;5;
TempdT;1;
TempSetupTime;0;
GonFrom;0;
GonTo;180;
GonSteps;20;
XRayEnabled;False;
XRayTime;3;
XRayVoltage;40;
XRayCurrent;0.5;
UVEnabled;False;
UVIntensity;0;
UVTime;0;
UVLeadTime;0;
UVWavelength;0;
PowSweepFrom;1;
PowSweepTo;5;
PowSweepSteps;5;
AmpModSweepFrom;0;
AmpModSweepTo;1;
AmpModSweepSteps;10;
ExtTriggerEnabled;False;
ExtTrigLeadTime;0;
ExtTrigOnTime;5;

Meas
BField [mT];MW_Absorption []
313.016338806152;578.994644919998
313.037962079069;578.755821839817
313.059585351985;578.496533067015
313.081208624902;578.226464267742
313.102831897818;577.951608017368
313.124455170735;577.66877159683
313.146078443651;577.365591869108
313.167701716568;577.035012529909
313.189324989484;576.668928569798
313.2109482624;576.265770514417
313.232571535317;575.841144552488
313.254194808233;575.392871568126
313.27581808115;574.896604672824
313.297441354066;574.355881975102
313.319064626983;573.776327473786
313.340687899899;573.152369856938
313.362311172816;572.465474761736
313.383934445732;571.695312064632
313.405557718649;570.855277451935
313.427180991565;569.968748224125
313.448804264481;569.057447701042
313.470427537398;568.151777683533
313.492050810314;567.250760381468
313.513674083231;566.355109559727
313.535297356147;565.46547893362
313.556920629064;564.572040490922
313.57854390198;563.667600878603
313.600167174897;562.730823970405
313.621790447813;561.764890973828
313.64341372073;560.844740809826
313.665036993646;560.013058918437
313.686660266562;559.205189000778
313.708283539479;558.355468796565
313.729906812395;557.430869970294
313.751530085312;556.45661817547
313.773153358228;555.472614496365
313.794776631145;554.52785476819
313.816399904061;553.630642955982
313.838023176978;552.775267081715
313.859646449894;551.963317708696
313.881269722811;551.185234330785
313.902892995727;550.422872953838
313.924516268643;549.68880235607
313.94613954156;549.008996288678
313.967762814476;548.388901839129
313.989386087393;547.816603514032
314.011009360309;547.272630904781
314.032632633226;546.735377311306
314.054255906142;546.176963295147
314.075879179059;545.555768278315
314.097502451975;544.861064814947
314.119125724892;544.131475347633
314.140748997808;543.382081999866
314.162372270725;542.57154432361
314.183995543641;541.69368409952
314.205618816557;540.788604599473
314.227242089474;539.900324921376
314.24886536239;539.041679001002
314.270488635307;538.194872446076
314.292111908223;537.349843605115
314.31373518114;536.515550145106
314.335358454056;535.725747408423
314.356981726973;534.996132465591
314.378604999889;534.307376360082
314.400228272806;533.624921424731
314.421851545722;532.945394735749
314.443474818638;532.310570526744
314.465098091555;531.70940103286
314.486721364471;531.107704766692
314.508344637388;530.496646192234
314.529967910304;529.859835593796
314.551591183221;529.166358724472
314.573214456137;528.436616120307
314.594837729054;527.707390376816
314.61646100197;526.976572550608
314.638084274887;526.221160323331
314.659707547803;525.452769969999
314.681330820719;524.717375053654
314.702954093636;524.020979819041
314.724577366552;523.358918603625
314.746200639469;522.737896516436
314.767823912385;522.171701755855
314.789447185302;521.666914636654
314.811070458218;521.223904439525
314.832693731135;520.849210216407
314.854317004051;520.531699552627
314.875940276968;520.251599910957
314.897563549884;520.001489684206
314.9191868228;519.772976212853
314.940810095717;519.549862663377
314.962433368633;519.32070668292
314.98405664155;519.073130105074
315.005679914466;518.791625262835
315.027303187383;518.465088500433
315.048926460299;518.087836455909
315.070549733216;517.6708964406
315.092173006132;517.236188261424
315.113796279049;516.782821741798
315.135419551965;516.295966643037
315.157042824881;515.769983389782
315.178666097798;515.211843738079
315.200289370714;514.640852402419
315.221912643631;514.06705438497
315.243535916547;513.495653869137
315.265159189464;512.923948530735
315.28678246238;512.331073680089
315.308405735297;511.706720097251
315.330029008213;511.097894526435
315.35165228113;510.521338514326
315.373275554046;509.947958353928
315.394898826962;509.364314380345
315.416522099879;508.772675121058
315.438145372795;508.180278889181
315.459768645712;507.593160932887
315.481391918628;507.014527497398
315.503015191545;506.446622326964
315.524638464461;505.905843861823
315.546261737378;505.396863475275
315.567885010294;504.885196158005
315.589508283211;504.3374890895
315.611131556127;503.738330325052
315.632754829043;503.119988589271
315.65437810196;502.476127565909
315.676001374876;501.764152495826
315.697624647793;500.946412301963
315.719247920709;500.037314696071
315.740871193626;499.085321604497
315.762494466542;498.11421927164
315.784117739459;497.086181988664
315.805741012375;495.971188549472
315.827364285292;494.802134497696
315.848987558208;493.612769193464
315.870610831124;492.396739552733
315.892234104041;491.174143359184
315.913857376957;489.973194041412
315.935480649874;488.805492723024
315.95710392279;487.682688676174
315.978727195707;486.56867554395
316.000350468623;485.43959781323
316.02197374154;484.342409352068
316.043597014456;483.301605672989
316.065220287373;482.311919382274
316.086843560289;481.368385654372
316.108466833205;480.460182559524
316.130090106122;479.565557672508
316.151713379038;478.687750796094
316.173336651955;477.868223566222
316.194959924871;477.108370583515
316.216583197788;476.393931243481
316.238206470704;475.735080048994
316.259829743621;475.133824882231
316.281453016537;474.585453679934
316.303076289454;474.085006545587
316.32469956237;473.618790430427
316.346322835286;473.167365761385
316.367946108203;472.718815864278
316.389569381119;472.272352350137
316.411192654036;471.83075269202
316.432815926952;471.387875570332
316.454439199869;470.926305569336
316.476062472785;470.43433475072
316.497685745702;469.898020539538
316.519309018618;469.289217180665
316.540932291535;468.60170752596
316.562555564451;467.887608379168
316.584178837367;467.157915687933
316.605802110284;466.387813719803
316.6274253832;465.55252669157
316.649048656117;464.643652407936
316.670671929033;463.672914859331
316.69229520195;462.69109418126
316.713918474866;461.726357918922
316.735541747783;460.798393185926
316.757165020699;459.902547407045
316.778788293616;459.007337964771
316.800411566532;458.117019341193
316.822034839448;457.264575971925
316.843658112365;456.467254486396
316.865281385281;455.696158932527
316.886904658198;454.939533970663
316.908527931114;454.211065417091
316.930151204031;453.507577170042
316.951774476947;452.819947504065
316.973397749864;452.160261317902
316.99502102278;451.52852675617
317.016644295697;450.943683997696
317.038267568613;450.409115883583
317.05989084153;449.914893416636
317.081514114446;449.455818254423
317.103137387362;449.029143345251
317.124760660279;448.636601786217
317.146383933195;448.273750963124
317.168007206112;447.923928183996
317.189630479028;447.571000370821
317.211253751945;447.208459698331
317.232877024861;446.841024790885
317.254500297778;446.46579069774
317.276123570694;446.079284838976
317.297746843611;445.68011430599
317.319370116527;445.267818472687
317.340993389443;444.816624108349
317.36261666236;444.306216568333
317.384239935276;443.745268607572
317.405863208193;443.168816835633
317.427486481109;442.57867658663
317.449109754026;441.968771100663
317.470733026942;441.37222471379
317.492356299859;440.790270717478
317.513979572775;440.204943403245
317.535602845692;439.622374269683
317.557226118608;439.058240437777
317.578849391524;438.510034676328
317.600472664441;437.967864858319
317.622095937357;437.432195973062
317.643719210274;436.914857950354
317.66534248319;436.405411363469
317.686965756107;435.878065487894
317.708589029023;435.302244962777
317.73021230194;434.661993268827
317.751835574856;433.99476917743
317.773458847773;433.30772616759
317.795082120689;432.581117993032
317.816705393605;431.804557313278
317.838328666522;430.955742551138
317.859951939438;430.034272957224
317.881575212355;429.092606831464
317.903198485271;428.144570795046
317.924821758188;427.164044891096
317.946445031104;426.159290192565
317.968068304021;425.173434234632
317.989691576937;424.238229044719
318.011314849854;423.352609263617
318.03293812277;422.515954552353
318.054561395686;421.724137393513
318.076184668603;420.958366581422
318.097807941519;420.207282489111
318.119431214436;419.479703535123
318.141054487352;418.78933015008
318.162677760269;418.134431073688
318.184301033185;417.527214971297
318.205924306102;416.991542802968
318.227547579018;416.508770016056
318.249170851935;416.05250330461
318.270794124851;415.60882825153
318.292417397767;415.176595894122
318.314040670684;414.769755811465
318.3356639436;414.394569206715
318.357287216517;414.044389269389
318.378910489433;413.708534502077
318.40053376235;413.382586506181
318.422157035266;413.065211227125
318.443780308183;412.754743625849
318.465403581099;412.443276900533
318.487026854016;412.123052594138
318.508650126932;411.806327753264
318.530273399848;411.492497151514
318.551896672765;411.170358342646
318.573519945681;410.835196354224
318.595143218598;410.477520169564
318.616766491514;410.095985049007
318.638389764431;409.698339358231
318.660013037347;409.286189288878
318.681636310264;408.861684125874
318.70325958318;408.429400593334
318.724882856097;407.976744152559
318.746506129013;407.495279754875
318.768129401929;406.990251517148
318.789752674846;406.491941267917
318.811375947762;406.021433019835
318.832999220679;405.580534842839
318.854622493595;405.1629809644
318.876245766512;404.765394564955
318.897869039428;404.387274402888
318.919492312345;404.027856601838
318.941115585261;403.678588843383
318.962738858178;403.318183647802
318.984362131094;402.939955542056
319.00598540401;402.544103736961
319.027608676927;402.121406988008
319.049231949843;401.653956045431
319.07085522276;401.149634996961
319.092478495676;400.601991463209
319.114101768593;399.997934514052
319.135725041509;399.335566602537
319.157348314426;398.655406437647
319.178971587342;397.977923372664
319.200594860259;397.272300934006
319.222218133175;396.500318879139
319.243841406091;395.657501033285
319.265464679008;394.82755622454
319.287087951924;393.999959557494
319.308711224841;393.141360322593
319.330334497757;392.249511950692
319.351957770674;391.328612674812
319.37358104359;390.367301550463
319.395204316507;389.408660464464
319.416827589423;388.512362015051
319.43845086234;387.663993484142
319.460074135256;386.824631036743
319.481697408172;385.97383398823
319.503320681089;385.109987575126
319.524943954005;384.276642105906
319.546567226922;383.526467497422
319.568190499838;382.873518063832
319.589813772755;382.292106123834
319.611437045671;381.756895905226
319.633060318588;381.254923458009
319.654683591504;380.801006923978
319.676306864421;380.406214464752
319.697930137337;380.078247128517
319.719553410253;379.80491065944
319.74117668317;379.571574860496
319.762799956086;379.369858815908
319.784423229003;379.195693386125
319.806046501919;379.047050702452
319.827669774836;378.920016269342
319.849293047752;378.808426498362
319.870916320669;378.719851044492
319.892539593585;378.683116975698
319.914162866502;378.705546756307
319.935786139418;378.786666450476
319.957409412335;378.929520173426
319.979032685251;379.137796299501
320.000655958167;379.40027445373
320.022279231084;379.707937251021
320.043902504;380.064032334718
320.065525776917;380.47132762467
320.087149049833;380.908599966486
320.10877232275;381.344317057438
320.130395595666;381.756522239198
320.152018868583;382.140569197959
320.173642141499;382.504493829646
320.195265414416;382.853447852062
320.216888687332;383.17939100016
320.238511960248;383.475880584476
320.260135233165;383.736818439946
320.281758506081;383.956133616552
320.303381778998;384.131719100985
320.325005051914;384.25945899727
320.346628324831;384.324413781232
320.368251597747;384.310054824865
320.389874870664;384.207197164282
320.41149814358;384.005883437236
320.433121416497;383.684517185609
320.454744689413;383.214373169299
320.476367962329;382.552705890382
320.497991235246;381.657395384825
320.519614508162;380.546918673836
320.541237781079;379.274183472974
320.562861053995;377.876108816137
320.584484326912;376.359015148159
320.606107599828;374.704261768858
320.627730872745;372.931318696074
320.649354145661;371.154410166845
320.670977418578;369.454738011691
320.692600691494;367.841483261965
320.71422396441;366.322884575373
320.735847237327;364.886330350428
320.757470510243;363.510508540962
320.77909378316;362.258649936501
320.800717056076;361.218887836388
320.822340328993;360.342700105415
320.843963601909;359.575693111731
320.865586874826;358.876448895456
320.887210147742;358.20327115188
320.908833420659;357.52314418533
320.930456693575;356.818197438727
320.952079966491;356.08346853694
320.973703239408;355.302003302602
320.995326512324;354.432384712948
321.016949785241;353.426437664864
321.038573058157;352.285756959086
321.060196331074;351.038334195545
321.08181960399;349.706023528277
321.103442876907;348.299561188232
321.125066149823;346.820193487098
321.14668942274;345.277940901616
321.168312695656;343.661369241991
321.189935968572;341.968778387222
321.211559241489;340.223837855942
321.233182514405;338.469438648046
321.254805787322;336.756809547412
321.276429060238;335.11676114222
321.298052333155;333.543438103982
321.319675606071;332.018740135994
321.341298878988;330.538463933797
321.362922151904;329.108623726302
321.384545424821;327.754693784937
321.406168697737;326.52052217164
321.427791970653;325.407563697846
321.44941524357;324.380371100131
321.471038516486;323.447338369958
321.492661789403;322.628867706346
321.514285062319;321.920544767858
321.535908335236;321.308488323735
321.557531608152;320.766194283446
321.579154881069;320.290734572269
321.600778153985;319.890543001141
321.622401426902;319.553333396881
321.644024699818;319.266481168842
321.665647972734;319.032360189284
321.687271245651;318.848697997398
321.708894518567;318.704831270353
321.730517791484;318.590839548841
321.7521410644;318.497603814823
321.773764337317;318.417603309808
321.795387610233;318.336665954347
321.81701088315;318.23826864424
321.838634156066;318.117296333943
321.860257428983;317.973739916424
321.881880701899;317.808942261838
321.903503974815;317.627663809432
321.925127247732;317.432655403194
321.946750520648;317.215172619933
321.968373793565;316.968776957373
321.989997066481;316.688150205784
322.011620339398;316.376184707606
322.033243612314;316.066109777168
322.054866885231;315.783009631437
322.076490158147;315.505280386308
322.098113431064;315.20909936047
322.11973670398;314.888507505096
322.141359976896;314.539825054728
322.162983249813;314.161224754593
322.184606522729;313.746794480768
322.206229795646;313.294621352427
322.227853068562;312.824769668049
322.249476341479;312.340741973591
322.271099614395;311.831869092689
322.292722887312;311.29023719539
322.314346160228;310.73532971617
322.335969433145;310.184536532371
322.357592706061;309.634441161127
322.379215978977;309.091067637988
322.400839251894;308.568776177803
322.42246252481;308.073021677554
322.444085797727;307.590688416033
322.465709070643;307.102581647982
322.48733234356;306.600871381829
322.508955616476;306.124228724764
322.530578889393;305.708665818125
322.552202162309;305.335126572571
322.573825435226;304.967136996577
322.595448708142;304.598329749257
322.617071981058;304.256310817506
322.638695253975;303.946230638216
322.660318526891;303.640194847572
322.681941799808;303.320551642044
322.703565072724;302.99106207147
322.725188345641;302.64359566499
322.746811618557;302.253300876026
322.768434891474;301.803867186545
322.79005816439;301.288465668431
322.811681437307;300.695815771276
322.833304710223;300.017599452581
322.85492798314;299.259831402584
322.876551256056;298.42461344834
322.898174528972;297.493172287112
322.919797801889;296.480205739274
322.941421074805;295.410629005025
322.963044347722;294.304479436465
322.984667620638;293.181279454357
323.006290893555;292.037975540006
323.027914166471;290.867512164427
323.049537439388;289.702566710819
323.071160712304;288.560660187278
323.092783985221;287.43341551841
323.114407258137;286.304162435994
323.136030531053;285.172552977253
323.15765380397;284.038070897485
323.179277076886;282.906236831987
323.200900349803;281.80044203494
323.222523622719;280.731052167103
323.244146895636;279.739027857462
323.265770168552;278.843340882129
323.287393441469;278.019037549881
323.309016714385;277.247412020563
323.330639987302;276.526073889791
323.352263260218;275.862883056513
323.373886533134;275.277028478944
323.395509806051;274.769357538169
323.417133078967;274.320715472085
323.438756351884;273.902185240613
323.4603796248;273.506327733051
323.482002897717;273.126493946859
323.503626170633;272.758256423244
323.52524944355;272.408523502816
323.546872716466;272.089001550888
323.568495989383;271.789175489662
323.590119262299;271.505989599522
323.611742535215;271.244823650468
323.633365808132;271.01717815255
323.654989081048;270.838305949667
323.676612353965;270.70825286529
323.698235626881;270.616021367929
323.719858899798;270.554641940508
323.741482172714;270.53011444376
323.763105445631;270.536954277337
323.784728718547;270.559803358843
323.806351991464;270.583727007281
323.82797526438;270.591335510695
323.849598537296;270.562152590485
323.871221810213;270.484827271978
323.892845083129;270.36494338251
323.914468356046;270.204005204164
323.936091628962;269.996132789212
323.957714901879;269.734657629171
323.979338174795;269.428370630125
324.000961447712;269.10594063185
324.022584720628;268.774985127921
324.044207993545;268.428496339798
324.065831266461;268.062082666052
324.087454539377;267.67376542752
324.109077812294;267.25699407447
324.13070108521;266.795287304255
324.152324358127;266.262991679857
324.173947631043;265.646026297576
324.19557090396;264.948933102459
324.217194176876;264.179820717603
324.238817449793;263.348197742252
324.260440722709;262.462817395344
324.282063995626;261.52633747357
324.303687268542;260.511074975899
324.325310541458;259.397381028396
324.346933814375;258.217242460162
324.368557087291;257.016162309078
324.390180360208;255.812586721411
324.411803633124;254.572385755432
324.433426906041;253.270601044859
324.455050178957;251.916070196442
324.476673451874;250.598828708913
324.49829672479;249.321499838727
324.519919997707;248.058688956068
324.541543270623;246.804624081672
324.563166543539;245.565562707871
324.584789816456;244.328322328212
324.606413089372;243.048147862668
324.628036362289;241.727084275371
324.649659635205;240.422507999816
324.671282908122;239.163675431201
324.692906181038;237.932567244443
324.714529453955;236.703833666115
324.736152726871;235.504000493757
324.757775999788;234.358225056201
324.779399272704;233.255949947552
