Name;ESR_BC_1_3600s_Z_gon_100dg_result

Recipe
Accumulations;5;Number of accumulations
RetryCount;0;Number of retries on error
AbortOnError;True;Abort on error
EnableQFactorMeasurement;False;Enable/Disable q-Factor measurement
Bfrom;313;B from
Bto;363;B to
SweepTime;60;Sweep time
Modulation;0.2;Modulation
ModulationFreq;100;Modulation
BHoldEnabled;False;B hold enabled
BHold;0;B hold
MicrowavePower;2;Microwave power
MarkerEnabled;False;
MarkerStartField;0;
MarkerEndField;0;
Mode;;
KineticGFact;0;
KineticTotalTransientTime;0;
KineticTimeResolution;0;
TempFrom;5;
TempUseSlope;False;
TempTo;5;
TempdT;1;
TempSetupTime;0;
GonFrom;0;
GonTo;180;
GonSteps;20;
XRayEnabled;False;
XRayTime;3;
XRayVoltage;40;
XRayCurrent;0.5;
UVEnabled;False;
UVIntensity;0;
UVTime;0;
UVLeadTime;0;
UVWavelength;0;
PowSweepFrom;1;
PowSweepTo;5;
PowSweepSteps;5;
AmpModSweepFrom;0;
AmpModSweepTo;1;
AmpModSweepSteps;10;
ExtTriggerEnabled;False;
ExtTrigLeadTime;0;
ExtTrigOnTime;5;

Meas
BField [mT];MW_Absorption []
313.024325714111;69.1887334874753
313.0459472071;68.9525753785712
313.067568700089;68.7651084537469
313.089190193077;68.6283282383815
313.110811686066;68.5294689961177
313.132433179054;68.4607204526627
313.154054672043;68.4194380411657
313.175676165032;68.4018817224427
313.19729765802;68.4036523601199
313.218919151009;68.4215870383519
313.240540643998;68.4608286528459
313.262162136986;68.5225318984559
313.283783629975;68.5901183326269
313.305405122963;68.6445563166346
313.327026615952;68.6951480572697
313.348648108941;68.7615357698862
313.370269601929;68.8474073895405
313.391891094918;68.9529242868047
313.413512587907;69.0795688719581
313.435134080895;69.2261524812735
313.456755573884;69.3890733246513
313.478377066872;69.5650627650951
313.499998559861;69.7500519774615
313.52162005285;69.9320027354373
313.543241545838;70.107458946704
313.564863038827;70.286117429904
313.586484531815;70.4801124274104
313.608106024804;70.6753422410744
313.629727517793;70.8652096400185
313.651349010781;71.0368571876074
313.67297050377;71.170772686518
313.694591996759;71.2768018930658
313.716213489747;71.3703693156957
313.737834982736;71.4612913626392
313.759456475724;71.5402052156151
313.781077968713;71.5662885942541
313.802699461702;71.5447688769714
313.82432095469;71.4950122288991
313.845942447679;71.4280391732252
313.867563940667;71.3498348646142
313.889185433656;71.2653664888543
313.910806926645;71.1713208336976
313.932428419633;71.0611390955141
313.954049912622;70.9431545857196
313.975671405611;70.8181519441787
313.997292898599;70.6623835572983
314.018914391588;70.4606663681602
314.040535884576;70.2191743346923
314.062157377565;69.9501300272351
314.083778870554;69.6572457783357
314.105400363542;69.3382807292217
314.127021856531;68.9963422335367
314.14864334952;68.6577052357736
314.170264842508;68.338214122455
314.191886335497;68.0174047501417
314.213507828485;67.6992447940365
314.235129321474;67.4134620647731
314.256750814463;67.1608985942374
314.278372307451;66.9309794575431
314.29999380044;66.7117677560075
314.321615293429;66.5020625862972
314.343236786417;66.30208367315
314.364858279406;66.109468706373
314.386479772394;65.9200514561201
314.408101265383;65.7204202856652
314.429722758372;65.4983363172014
314.45134425136;65.2550669962183
314.472965744349;65.003460839993
314.494587237337;64.7634581575678
314.516208730326;64.5459233930499
314.537830223315;64.3486364407193
314.559451716303;64.1803050667623
314.581073209292;64.0458484956959
314.602694702281;63.9437985208465
314.624316195269;63.8742709691862
314.645937688258;63.8444552487321
314.667559181246;63.8469099436624
314.689180674235;63.8725911940902
314.710802167224;63.9141285934224
314.732423660212;63.9657129674726
314.754045153201;64.0288731113376
314.77566664619;64.1027276596568
314.797288139178;64.1870426957703
314.818909632167;64.2808905760757
314.840531125155;64.378532943144
314.862152618144;64.4811575597031
314.883774111133;64.59686631918
314.905395604121;64.7364529837178
314.92701709711;64.9041729025056
314.948638590098;65.0965365695642
314.970260083087;65.3127096892309
314.991881576076;65.5476353269928
315.013503069064;65.8038214639255
315.035124562053;66.0842473251991
315.056746055042;66.3790536721519
315.07836754803;66.6715523026373
315.099989041019;66.9508615047711
315.121610534007;67.2127799304369
315.143232026996;67.4437454369699
315.164853519985;67.6284461020436
315.186475012973;67.7795419513695
315.208096505962;67.9114851091502
315.229717998951;68.0203754953876
315.251339491939;68.0919450185985
315.272960984928;68.1234033425919
315.294582477916;68.130747942441
315.316203970905;68.1283205350832
315.337825463894;68.114722761103
315.359446956882;68.0877722590072
315.381068449871;68.05002811215
315.402689942859;68.0040530645043
315.424311435848;67.9522429056336
315.445932928837;67.8995059784781
315.467554421825;67.8473187483465
315.489175914814;67.788632561452
315.510797407803;67.7129140735136
315.532418900791;67.622467452349
315.55404039378;67.5180332098676
315.575661886768;67.3820463275804
315.597283379757;67.2142682382876
315.618904872746;67.0193351397838
315.640526365734;66.7885797214345
315.662147858723;66.5265430608172
315.683769351712;66.2374301131674
315.7053908447;65.9196909017058
315.727012337689;65.5837233812337
315.748633830677;65.259263532909
315.770255323666;64.9492159383382
315.791876816655;64.6524281824843
315.813498309643;64.3798315225069
315.835119802632;64.1471596377241
315.856741295621;63.9615046596025
315.878362788609;63.8246917787745
315.899984281598;63.7391788528702
315.921605774586;63.7079224875493
315.943227267575;63.7326507188969
315.964848760564;63.8005054037453
315.986470253552;63.8946219674838
316.008091746541;64.0104268125584
316.029713239529;64.1463191955406
316.051334732518;64.2847239216454
316.072956225507;64.4136688299812
316.094577718495;64.5317357900492
316.116199211484;64.635403693147
316.137820704473;64.7188144173016
316.159442197461;64.7778075787547
316.18106369045;64.8103756330047
316.202685183438;64.8185390848893
316.224306676427;64.8066860208983
316.245928169416;64.7795556929257
316.267549662404;64.7386648080572
316.289171155393;64.6838577371005
316.310792648381;64.6133764773231
316.33241414137;64.5318525341978
316.354035634359;64.4520697814602
316.375657127347;64.3769969486149
316.397278620336;64.2970528521499
316.418900113325;64.2102788306046
316.440521606313;64.1257655458935
316.462143099302;64.058238619826
316.48376459229;64.0131342176023
316.505386085279;63.9845545359491
316.527007578268;63.9636767505393
316.548629071256;63.9483106693438
316.570250564245;63.9420984016032
316.591872057234;63.9445705994887
316.613493550222;63.9577821857751
316.635115043211;63.9810086616163
316.656736536199;64.0016507235733
316.678358029188;64.0162454424294
316.699979522177;64.0237332660132
316.721601015165;64.0261136659725
316.743222508154;64.0317259240568
316.764844001142;64.0459705566364
316.786465494131;64.0637208019642
316.80808698712;64.0765207081
316.829708480108;64.0795240459767
316.851329973097;64.0727878656782
316.872951466086;64.0567160835867
316.894572959074;64.0269007834753
316.916194452063;63.9778964118655
316.937815945051;63.9111660592676
316.95943743804;63.8244453721035
316.981058931029;63.7178536220071
317.002680424017;63.6009437522922
317.024301917006;63.4869851504233
317.045923409995;63.3725712777665
317.067544902983;63.2460806158922
317.089166395972;63.1162330763332
317.11078788896;62.9926730335087
317.132409381949;62.8709305337846
317.154030874938;62.7540439863103
317.175652367926;62.6559828481717
317.197273860915;62.5788669874603
317.218895353904;62.5177717705488
317.240516846892;62.4687474778915
317.262138339881;62.4333094701264
317.283759832869;62.4138929207279
317.305381325858;62.4140600840852
317.327002818847;62.4537096139007
317.348624311835;62.5326442943565
317.370245804824;62.6433590554664
317.391867297813;62.783739927189
317.413488790801;62.944183661503
317.43511028379;63.1083256649826
317.456731776778;63.2706105277984
317.478353269767;63.4297824195339
317.499974762756;63.576700399298
317.521596255744;63.6999676836939
317.543217748733;63.80106986735
317.564839241721;63.882587065938
317.58646073471;63.9494668444382
317.608082227699;63.9975503343481
317.629703720687;64.0294066963869
317.651325213676;64.0618063001126
317.672946706665;64.1053433676226
317.694568199653;64.159970016113
317.716189692642;64.2261384696306
317.73781118563;64.3010564052145
317.759432678619;64.3867295886334
317.781054171608;64.4875615539136
317.802675664596;64.5988979609482
317.824297157585;64.7129334078672
317.845918650573;64.8190593940394
317.867540143562;64.9031039980999
317.889161636551;64.9600744934661
317.910783129539;64.9916638175408
317.932404622528;64.9933827881721
317.954026115517;64.9627525650973
317.975647608505;64.9015114138999
317.997269101494;64.8160045728476
318.018890594482;64.7148739947395
318.040512087471;64.5946190755173
318.06213358046;64.4637011751311
318.083755073448;64.3456274985012
318.105376566437;64.2490542082981
318.126998059426;64.1805806884608
318.148619552414;64.1520146930114
318.170241045403;64.1690378259417
318.191862538391;64.2263561651042
318.21348403138;64.3208776046099
318.235105524369;64.4500560612932
318.256727017357;64.6116470047985
318.278348510346;64.7914324846771
318.299970003334;64.9726304726031
318.321591496323;65.1352835503337
318.343212989312;65.2604424906122
318.3648344823;65.3371697514311
318.386455975289;65.3656258437062
318.408077468278;65.3441466807669
318.429698961266;65.2695201822173
318.451320454255;65.1479677686288
318.472941947243;65.0002454647057
318.494563440232;64.8424404768056
318.516184933221;64.6715755882301
318.537806426209;64.4848464495093
318.559427919198;64.2893798778683
318.581049412187;64.0901805497213
318.602670905175;63.8858702426496
318.624292398164;63.6848577399631
318.645913891152;63.4962386956982
318.667535384141;63.3113179569439
318.68915687713;63.1220684549143
318.710778370118;62.936512889033
318.732399863107;62.7584546392601
318.754021356096;62.5745934488338
318.775642849084;62.3667109026094
318.797264342073;62.1438047908143
318.818885835061;61.9104682360539
318.84050732805;61.6558847848321
318.862128821039;61.3755414796283
318.883750314027;61.0842549686913
318.905371807016;60.7993966679942
318.926993300004;60.5339785344245
318.948614792993;60.2868718809175
318.970236285982;60.0552471915311
318.99185777897;59.83976468441
319.013479271959;59.6396165941643
319.035100764948;59.4529217656538
319.056722257936;59.2714707439099
319.078343750925;59.0968145772179
319.099965243913;58.9306168950674
319.121586736902;58.7761126620311
319.143208229891;58.6299580027966
319.164829722879;58.4837538029564
319.186451215868;58.3394821010108
319.208072708856;58.2104295876255
319.229694201845;58.0987662275507
319.251315694834;58.0041422608464
319.272937187822;57.9454566424129
319.294558680811;57.9362998624338
319.3161801738;57.9613878701441
319.337801666788;58.0164714026438
319.359423159777;58.1096753248507
319.381044652765;58.2465010093517
319.402666145754;58.4150538329066
319.424287638743;58.6036001967803
319.445909131731;58.788229114973
319.46753062472;58.9394080210589
319.489152117709;59.0625756412427
319.510773610697;59.1563998375016
319.532395103686;59.2110412262605
319.554016596674;59.2154851779906
319.575638089663;59.1557010339399
319.597259582652;59.035971962275
319.61888107564;58.8752266308867
319.640502568629;58.6808215476698
319.662124061618;58.451416142954
319.683745554606;58.1791655417186
319.705367047595;57.8844246820109
319.726988540583;57.6132487765256
319.748610033572;57.3889226069173
319.770231526561;57.2015254599883
319.791853019549;57.0462859752696
319.813474512538;56.9393074733211
319.835096005526;56.8779724970397
319.856717498515;56.8578761585009
319.878338991504;56.8776724907993
319.899960484492;56.935120486407
319.921581977481;57.020950274605
319.94320347047;57.1205472195824
319.964824963458;57.2271259207318
319.986446456447;57.3354664223569
320.008067949435;57.4373158195435
320.029689442424;57.5239062043067
320.051310935413;57.5905802961678
320.072932428401;57.6332099181857
320.09455392139;57.6425660487973
320.116175414379;57.6108719927988
320.137796907367;57.5370942228075
320.159418400356;57.4252615751452
320.181039893344;57.2782484087772
320.202661386333;57.0922349099628
320.224282879322;56.8611291815099
320.24590437231;56.5807708376157
320.267525865299;56.2498824751845
320.289147358287;55.8738721604727
320.310768851276;55.4578365635612
320.332390344265;55.0120773642093
320.354011837253;54.5548854774089
320.375633330242;54.0947074532778
320.397254823231;53.6335295971397
320.418876316219;53.1824567685476
320.440497809208;52.7488753995899
320.462119302196;52.336934899178
320.483740795185;51.9816173001773
320.505362288174;51.6994401742887
320.526983781162;51.4815001429395
320.548605274151;51.3186115009637
320.57022676714;51.2069995129498
320.591848260128;51.1453998556336
320.613469753117;51.1305120343065
320.635091246105;51.1567872764777
320.656712739094;51.224376659499
320.678334232083;51.3268796160901
320.699955725071;51.4511507932181
320.72157721806;51.5899728109773
320.743198711048;51.7398157477226
320.764820204037;51.9000190658699
320.786441697026;52.080259372399
320.808063190014;52.2950952491073
320.829684683003;52.5436660413233
320.851306175992;52.8176715717255
320.87292766898;53.11707411915
320.894549161969;53.4424585129129
320.916170654957;53.7877736824885
320.937792147946;54.1456439378553
320.959413640935;54.5176821728104
320.981035133923;54.9165095852126
321.002656626912;55.3390486337067
321.024278119901;55.7456030706377
321.045899612889;56.1191347280043
321.067521105878;56.4658109813652
321.089142598866;56.7953425374671
321.110764091855;57.1073452773683
321.132385584844;57.3975471535462
321.154007077832;57.6666578894818
321.175628570821;57.9181416040832
321.19725006381;58.1578533888916
321.218871556798;58.3907658264083
321.240493049787;58.6139984833838
321.262114542775;58.8151093172992
321.283736035764;58.9853306731707
321.305357528753;59.1265261493361
321.326979021741;59.2419750942524
321.34860051473;59.327210079425
321.370222007718;59.3746417564302
321.391843500707;59.3753283733633
321.413464993696;59.3279868424851
321.435086486684;59.2439214117528
321.456707979673;59.1274465364378
321.478329472662;58.9823018209011
321.49995096565;58.8208343301604
321.521572458639;58.6562510489745
321.543193951627;58.4946095668267
321.564815444616;58.331991367441
321.586436937605;58.1710859800781
321.608058430593;58.0213995629412
321.629679923582;57.8880596878195
321.651301416571;57.7694435461083
321.672922909559;57.6556161123821
321.694544402548;57.5335470460911
321.716165895536;57.399620342595
321.737787388525;57.2484012508006
321.759408881514;57.06244144368
321.781030374502;56.8322389332078
321.802651867491;56.5365011772799
321.824273360479;56.1572031148576
321.845894853468;55.7082312391272
321.867516346457;55.209910412399
321.889137839445;54.6716020042067
321.910759332434;54.0962730088972
321.932380825423;53.4816955846878
321.954002318411;52.8382995454252
321.9756238114;52.1996330802671
321.997245304388;51.5911737575003
322.018866797377;51.0057482922723
322.040488290366;50.4435506138014
322.062109783354;49.906063103562
322.083731276343;49.3927897768817
322.105352769331;48.909910672333
322.12697426232;48.4629332457613
322.148595755309;48.0563651293815
322.170217248297;47.6885303877152
322.191838741286;47.3668883389525
322.213460234275;47.1058958316679
322.235081727263;46.8964833983479
322.256703220252;46.7324074726345
322.27832471324;46.6199670178345
322.299946206229;46.5698486774528
322.321567699218;46.5735071096057
322.343189192206;46.6197206659522
322.364810685195;46.7042435497136
322.386432178184;46.8226446548418
322.408053671172;46.9688693038582
322.429675164161;47.135747379147
322.451296657149;47.3123305359041
322.472918150138;47.4747332513707
322.494539643127;47.5978268945366
322.516161136115;47.6672422008865
322.537782629104;47.6937801853567
322.559404122093;47.6825000719749
322.581025615081;47.6227699701281
322.60264710807;47.5159669682814
322.624268601058;47.3862950032967
322.645890094047;47.2511788415078
322.667511587036;47.1106305157436
322.689133080024;46.9561631757161
322.710754573013;46.7769703794714
322.732376066001;46.5830132171978
322.75399755899;46.3987361234093
322.775619051979;46.2273469948941
322.797240544967;46.0529888389999
322.818862037956;45.8733459140902
322.840483530945;45.6993758383453
322.862105023933;45.5400320872496
322.883726516922;45.3962261748949
322.90534800991;45.2551361412475
322.926969502899;45.1071155517445
322.948590995888;44.9435416137087
322.970212488876;44.776511510189
322.991833981865;44.6251945644546
323.013455474854;44.4984098292371
323.035076967842;44.396423238795
323.056698460831;44.310656607662
323.078319953819;44.2421436840912
323.099941446808;44.2010832650097
323.121562939797;44.1930397050256
323.143184432785;44.2213921623903
323.164805925774;44.2880746836205
323.186427418762;44.3880728352364
323.208048911751;44.5111658002628
323.22967040474;44.649270396722
323.251291897728;44.7967403825869
323.272913390717;44.9352671378181
323.294534883706;45.0521835303903
323.316156376694;45.1475964572242
323.337777869683;45.2223444277547
323.359399362671;45.2802884429988
323.38102085566;45.3268208834911
323.402642348649;45.3599969452747
323.424263841637;45.3804703105492
323.445885334626;45.3864224328126
323.467506827615;45.3803287486262
323.489128320603;45.3693999710756
323.510749813592;45.3546531670942
323.53237130658;45.3447186218553
323.553992799569;45.3420661239684
323.575614292558;45.3395165209668
323.597235785546;45.3328556255252
323.618857278535;45.3260968086404
323.640478771523;45.3302832323295
323.662100264512;45.3522291384579
323.683721757501;45.3879091519836
323.705343250489;45.435771350871
323.726964743478;45.4995779379855
323.748586236467;45.5834843715426
323.770207729455;45.6725077203245
323.791829222444;45.7437837285948
323.813450715432;45.7944793664708
323.835072208421;45.8284537833386
323.85669370141;45.8408619086345
323.878315194398;45.8229962011018
323.899936687387;45.769604790856
323.921558180376;45.6783740255647
323.943179673364;45.5487436458481
323.964801166353;45.3879237915139
323.986422659341;45.19956564757
324.00804415233;44.98350362871
324.029665645319;44.7484222987782
324.051287138307;44.5086496645043
324.072908631296;44.2788868089709
324.094530124285;44.0727843333439
324.116151617273;43.8942235240799
324.137773110262;43.7437995257018
324.15939460325;43.6295594551997
324.181016096239;43.5565707612698
324.202637589228;43.5169021118508
324.224259082216;43.502937254681
324.245880575205;43.5160182606224
324.267502068193;43.5499978901466
324.289123561182;43.5885917978438
324.310745054171;43.6162022336095
324.332366547159;43.626907578609
324.353988040148;43.6186327588637
324.375609533137;43.5879490923106
324.397231026125;43.5228197954352
324.418852519114;43.4177752102362
324.440474012102;43.2668491739858
324.462095505091;43.0750934707126
324.48371699808;42.8566620648221
324.505338491068;42.619074942993
324.526959984057;42.3631392928955
324.548581477046;42.0835245220612
324.570202970034;41.7907063637564
324.591824463023;41.4894708642772
324.613445956011;41.1757876314142
324.635067449;40.8577830156198
324.656688941989;40.5583228842163
324.678310434977;40.2815492355558
324.699931927966;40.0070717848155
324.721553420954;39.7232885484335
324.743174913943;39.4395116567687
324.764796406932;39.1749713228795
324.78641789992;38.9539594776811
