Name;ESR_BC_1_29min_X_gon_120dg_result

Recipe
Accumulations;5;Number of accumulations
RetryCount;0;Number of retries on error
AbortOnError;True;Abort on error
EnableQFactorMeasurement;False;Enable/Disable q-Factor measurement
Bfrom;313;B from
Bto;363;B to
SweepTime;60;Sweep time
Modulation;0.2;Modulation
ModulationFreq;100;Modulation
BHoldEnabled;False;B hold enabled
BHold;0;B hold
MicrowavePower;2;Microwave power
MarkerEnabled;False;
MarkerStartField;0;
MarkerEndField;0;
Mode;;
KineticGFact;0;
KineticTotalTransientTime;0;
KineticTimeResolution;0;
TempFrom;5;
TempUseSlope;False;
TempTo;5;
TempdT;1;
TempSetupTime;0;
GonFrom;0;
GonTo;180;
GonSteps;20;
XRayEnabled;False;
XRayTime;3;
XRayVoltage;40;
XRayCurrent;0.5;
UVEnabled;False;
UVIntensity;0;
UVTime;0;
UVLeadTime;0;
UVWavelength;0;
PowSweepFrom;1;
PowSweepTo;5;
PowSweepSteps;5;
AmpModSweepFrom;0;
AmpModSweepTo;1;
AmpModSweepSteps;10;
ExtTriggerEnabled;False;
ExtTrigLeadTime;0;
ExtTrigOnTime;5;

Meas
BField [mT];MW_Absorption []
313.016418609619;537.369161684061
313.038045265396;536.945616976505
313.059671921173;536.499360224088
313.081298576949;535.997201055374
313.102925232726;535.42059845879
313.124551888503;534.786965552116
313.14617854428;534.110225974815
313.167805200057;533.399073967689
313.189431855833;532.658835144424
313.21105851161;531.882680133188
313.232685167387;531.042555804392
313.254311823164;530.135511466599
313.27593847894;529.162846446439
313.297565134717;528.156290502681
313.319191790494;527.161255506956
313.340818446271;526.178109856587
313.362445102048;525.209561727138
313.384071757824;524.263351650888
313.405698413601;523.337040264952
313.427325069378;522.432548952043
313.448951725155;521.559346355733
313.470578380932;520.732888265998
313.492205036708;519.950732146201
313.513831692485;519.19426226532
313.535458348262;518.454736659872
313.557085004039;517.753189228054
313.578711659815;517.084650849866
313.600338315592;516.416190801979
313.621964971369;515.733170727137
313.643591627146;515.048955348351
313.665218282922;514.367776666242
313.686844938699;513.689730601518
313.708471594476;513.011861607089
313.730098250253;512.343924938828
313.75172490603;511.68150078592
313.773351561806;510.993253106085
313.794978217583;510.272416345564
313.81660487336;509.533543789814
313.838231529137;508.798046190664
313.859858184913;508.074655347463
313.88148484069;507.363277663354
313.903111496467;506.674086383083
313.924738152244;506.002698065831
313.946364808021;505.326071141999
313.967991463797;504.673378937193
313.989618119574;504.066495035606
314.011244775351;503.502598802878
314.032871431128;502.961718338726
314.054498086905;502.433367577342
314.076124742681;501.935540197531
314.097751398458;501.485441166962
314.119378054235;501.063699512949
314.141004710012;500.643531067295
314.162631365788;500.217284151986
314.184258021565;499.799747641454
314.205884677342;499.391744788088
314.227511333119;498.973339273925
314.249137988896;498.537479897302
314.270764644672;498.088523302117
314.292391300449;497.630247114688
314.314017956226;497.169858935659
314.335644612003;496.710706478205
314.357271267779;496.249822996251
314.378897923556;495.78844007885
314.400524579333;495.338968299899
314.42215123511;494.900170074192
314.443777890887;494.45706003061
314.465404546663;493.992170151706
314.48703120244;493.50258814765
314.508657858217;493.012020991292
314.530284513994;492.523749676248
314.55191116977;492.010931306526
314.573537825547;491.454326859658
314.595164481324;490.884954247403
314.616791137101;490.323398243784
314.638417792878;489.777001790728
314.660044448654;489.240321548022
314.681671104431;488.696015816693
314.703297760208;488.126167670829
314.724924415985;487.532637523584
314.746551071761;486.939377001319
314.768177727538;486.345453628078
314.789804383315;485.732844765269
314.811431039092;485.108259987775
314.833057694869;484.493699783984
314.854684350645;483.872260643722
314.876311006422;483.227107744071
314.897937662199;482.557962137849
314.919564317976;481.840626236397
314.941190973753;481.066292785595
314.962817629529;480.275026046396
314.984444285306;479.483741495183
315.006070941083;478.695693353884
315.02769759686;477.913764628097
315.049324252636;477.131008215611
315.070950908413;476.346441060357
315.09257756419;475.565326443713
315.114204219967;474.786019619603
315.135830875743;474.038059408989
315.15745753152;473.348106499901
315.179084187297;472.712638837144
315.200710843074;472.132167262097
315.222337498851;471.617137058691
315.243964154627;471.165090017958
315.265590810404;470.762016079786
315.287217466181;470.405665535294
315.308844121958;470.113604890654
315.330470777734;469.885418430505
315.352097433511;469.697549982354
315.373724089288;469.528067739858
315.395350745065;469.362389242969
315.416977400842;469.184515244936
315.438604056618;468.971256217741
315.460230712395;468.701419513173
315.481857368172;468.355875585305
315.503484023949;467.922529476112
315.525110679726;467.422754050725
315.546737335502;466.869835278815
315.568363991279;466.246806022283
315.589990647056;465.527635126699
315.611617302833;464.708205555593
315.633243958609;463.800128894289
315.654870614386;462.834832704624
315.676497270163;461.846317128831
315.69812392594;460.865775135813
315.719750581717;459.911234231515
315.741377237493;458.956352679363
315.76300389327;457.969779505353
315.784630549047;457.018944269689
315.806257204824;456.156829623414
315.8278838606;455.35599511179
315.849510516377;454.590348579866
315.871137172154;453.842039045136
315.892763827931;453.122011127488
315.914390483708;452.449470927499
315.936017139484;451.835109428126
315.957643795261;451.271687187287
315.979270451038;450.748490172751
316.000897106815;450.266883341586
316.022523762591;449.824005599817
316.044150418368;449.397185076515
316.065777074145;448.959046373073
316.087403729922;448.472783344153
316.109030385699;447.918257819666
316.130657041475;447.324587153561
316.152283697252;446.690149810988
316.173910353029;445.994416748148
316.195537008806;445.234789398547
316.217163664582;444.417451028027
316.238790320359;443.534648391942
316.260416976136;442.569350628122
316.282043631913;441.520544105575
316.30367028769;440.426470235049
316.325296943466;439.34151038291
316.346923599243;438.284438895243
316.36855025502;437.251841591128
316.390176910797;436.242658576621
316.411803566574;435.277874499296
316.43343022235;434.386257989608
316.455056878127;433.565520257651
316.476683533904;432.792763610337
316.498310189681;432.06687774534
316.519936845457;431.413552899161
316.541563501234;430.843106031529
316.563190157011;430.337611269827
316.584816812788;429.876035279675
316.606443468564;429.449586075275
316.628070124341;429.058466655788
316.649696780118;428.69832924544
316.671323435895;428.361145421405
316.692950091672;428.041742331759
316.714576747448;427.7397926984
316.736203403225;427.446650407278
316.757830059002;427.150454975637
316.779456714779;426.843742585443
316.801083370555;426.520063584979
316.822710026332;426.167213317524
316.844336682109;425.779686648029
316.865963337886;425.38036095047
316.887589993663;424.985794271504
316.909216649439;424.600618697807
316.930843305216;424.212272143154
316.952469960993;423.81163441699
316.97409661677;423.397590342643
316.995723272547;422.974478203421
317.017349928323;422.557909933831
317.0389765841;422.15352549571
317.060603239877;421.746462773179
317.082229895654;421.321735030172
317.10385655143;420.876347040392
317.125483207207;420.413847647498
317.147109862984;419.920686023767
317.168736518761;419.392556106688
317.190363174538;418.846132060403
317.211989830314;418.276452059056
317.233616486091;417.690373494498
317.255243141868;417.08350361415
317.276869797645;416.462881763453
317.298496453421;415.850437978521
317.320123109198;415.254019761676
317.341749764975;414.66672645016
317.363376420752;414.085013683507
317.385003076529;413.53591998163
317.406629732305;413.043269418809
317.428256388082;412.605363837527
317.449883043859;412.207771090463
317.471509699636;411.840901501
317.493136355412;411.495505967278
317.514763011189;411.167335706187
317.536389666966;410.85334729228
317.558016322743;410.541901766956
317.57964297852;410.214493591856
317.601269634296;409.861155239964
317.622896290073;409.478760503847
317.64452294585;409.067847045784
317.666149601627;408.636486528236
317.687776257403;408.185329627133
317.70940291318;407.705806128541
317.731029568957;407.177659954553
317.752656224734;406.586367639199
317.774282880511;405.96419417877
317.795909536287;405.338591844053
317.817536192064;404.702143968732
317.839162847841;404.03131071314
317.860789503618;403.33050772335
317.882416159395;402.61640000653
317.904042815171;401.906872859532
317.925669470948;401.207258450905
317.947296126725;400.506032371154
317.968922782502;399.777574946633
317.990549438278;399.019136043245
318.012176094055;398.261261385153
318.033802749832;397.515927334511
318.055429405609;396.787790921281
318.077056061385;396.081940967219
318.098682717162;395.382134425347
318.120309372939;394.666017873668
318.141936028716;393.949552111749
318.163562684493;393.247240171808
318.185189340269;392.562060667329
318.206815996046;391.89009000223
318.228442651823;391.219636664844
318.2500693076;390.55044181306
318.271695963376;389.901828752152
318.293322619153;389.282256438221
318.31494927493;388.682621375003
318.336575930707;388.102839391808
318.358202586484;387.554668545216
318.37982924226;387.043249251193
318.401455898037;386.566832838108
318.423082553814;386.125464089404
318.444709209591;385.730201057538
318.466335865368;385.381283263128
318.487962521144;385.069069491352
318.509589176921;384.789258446883
318.531215832698;384.527152229871
318.552842488475;384.261208180092
318.574469144251;383.980267051872
318.596095800028;383.692355922883
318.617722455805;383.397779633816
318.639349111582;383.086302806305
318.660975767359;382.750807271245
318.682602423135;382.383328778007
318.704229078912;381.971810057055
318.725855734689;381.513411946246
318.747482390466;381.026162455888
318.769109046242;380.522330777149
318.790735702019;380.002920205892
318.812362357796;379.484947551237
318.833989013573;378.989670379027
318.85561566935;378.51829707581
318.877242325126;378.06516677759
318.898868980903;377.628431883082
318.92049563668;377.216917787383
318.942122292457;376.83879390068
318.963748948233;376.480732818378
318.98537560401;376.122449562089
319.007002259787;375.742218036437
319.028628915564;375.319887641987
319.050255571341;374.865955088702
319.071882227117;374.393698230489
319.093508882894;373.885100502354
319.115135538671;373.325823116305
319.136762194448;372.727326375023
319.158388850224;372.108868334317
319.180015506001;371.477581248458
319.201642161778;370.836531130156
319.223268817555;370.212556981578
319.244895473332;369.624871727449
319.266522129108;369.075444560345
319.288148784885;368.55190060776
319.309775440662;368.046282767084
319.331402096439;367.57417413369
319.353028752215;367.153025858153
319.374655407992;366.786612161739
319.396282063769;366.470547801175
319.417908719546;366.204744857728
319.439535375323;365.992832990553
319.461162031099;365.822945768996
319.482788686876;365.677725394447
319.504415342653;365.542618904164
319.52604199843;365.416321720824
319.547668654206;365.293823534533
319.569295309983;365.163764739448
319.59092196576;365.018639275365
319.612548621537;364.858732457443
319.634175277314;364.683166842473
319.65580193309;364.490093078445
319.677428588867;364.272228977598
319.699055244644;364.012739093719
319.720681900421;363.703420055673
319.742308556197;363.375098471311
319.763935211974;363.042003598679
319.785561867751;362.694064965897
319.807188523528;362.319567044539
319.828815179305;361.924958703953
319.850441835081;361.524664999917
319.872068490858;361.12625181795
319.893695146635;360.737706041991
319.915321802412;360.358968583297
319.936948458189;360.014164403363
319.958575113965;359.722347630937
319.980201769742;359.493487127078
320.001828425519;359.332574923291
320.023455081296;359.236492517452
320.045081737072;359.204681158598
320.066708392849;359.234340237695
320.088335048626;359.324287643631
320.109961704403;359.476131788031
320.13158836018;359.693085035161
320.153215015956;359.972622988725
320.174841671733;360.302996544198
320.19646832751;360.686901068122
320.218094983287;361.127598979998
320.239721639063;361.592164457886
320.26134829484;362.036183572349
320.282974950617;362.439723415411
320.304601606394;362.786938113358
320.326228262171;363.048707119938
320.347854917947;363.207476329678
320.369481573724;363.239698184087
320.391108229501;363.11013070505
320.412734885278;362.785978673302
320.434361541054;362.254008047845
320.455988196831;361.514500119364
320.477614852608;360.578325828945
320.499241508385;359.4377769603
320.520868164162;358.09313076963
320.542494819938;356.608938601321
320.564121475715;355.042563328738
320.585748131492;353.412820675693
320.607374787269;351.744661501415
320.629001443045;350.088003703882
320.650628098822;348.495119404271
320.672254754599;346.986670381002
320.693881410376;345.584645816287
320.715508066153;344.353593337947
320.737134721929;343.307652676504
320.758761377706;342.424856536598
320.780388033483;341.695533868874
320.80201468926;341.124125258706
320.823641345036;340.688312545537
320.845268000813;340.34994251299
320.86689465659;340.076656626635
320.888521312367;339.843762501363
320.910147968144;339.624099103529
320.93177462392;339.390348354338
320.953401279697;339.116464002807
320.975027935474;338.775532599764
320.996654591251;338.342079574467
321.018281247027;337.814960021607
321.039907902804;337.20030309014
321.061534558581;336.495554590727
321.083161214358;335.696805359713
321.104787870135;334.80055886321
321.126414525911;333.80138736149
321.148041181688;332.713396996052
321.169667837465;331.569972742262
321.191294493242;330.377212493956
321.212921149018;329.106435811033
321.234547804795;327.731609330637
321.256174460572;326.365179282864
321.277801116349;325.075665763797
321.299427772126;323.887616177132
321.321054427902;322.80231109233
321.342681083679;321.806169030473
321.364307739456;320.877265768507
321.385934395233;320.029219281444
321.40756105101;319.306392916302
321.429187706786;318.715845534916
321.450814362563;318.247224839916
321.47244101834;317.8970614106
321.494067674117;317.662448664071
321.515694329893;317.527356748902
321.53732098567;317.464712260484
321.558947641447;317.448979629821
321.580574297224;317.463100033995
321.602200953001;317.501181599088
321.623827608777;317.557687594175
321.645454264554;317.616487907153
321.667080920331;317.664397991775
321.688707576108;317.697623374432
321.710334231884;317.713576242226
321.731960887661;317.70445332535
321.753587543438;317.660746599735
321.775214199215;317.584053019497
321.796840854992;317.48310192624
321.818467510768;317.366364281921
321.840094166545;317.235380683725
321.861720822322;317.085322057114
321.883347478099;316.909874585327
321.904974133875;316.71150254496
321.926600789652;316.497201189144
321.948227445429;316.264565110131
321.969854101206;316.010003458521
321.991480756983;315.737309571047
322.013107412759;315.452657924171
322.034734068536;315.160062610186
322.056360724313;314.874050556372
322.07798738009;314.617213070338
322.099614035866;314.394377965196
322.121240691643;314.20096013979
322.14286734742;314.028086457734
322.164494003197;313.874495749437
322.186120658974;313.750471639537
322.20774731475;313.666018368698
322.229373970527;313.610548459743
322.251000626304;313.568791615197
322.272627282081;313.525081939834
322.294253937857;313.46071002672
322.315880593634;313.362441862104
322.337507249411;313.219388212605
322.359133905188;313.013843014603
322.380760560965;312.730819935271
322.402387216741;312.357035313385
322.424013872518;311.88494597589
322.445640528295;311.335751821708
322.467267184072;310.718994717783
322.488893839848;310.029854866347
322.510520495625;309.272658926053
322.532147151402;308.471224009988
322.553773807179;307.622141287526
322.575400462956;306.689840615011
322.597027118732;305.657130478442
322.618653774509;304.548241699882
322.640280430286;303.404222729774
322.661907086063;302.279951341993
322.683533741839;301.154973502491
322.705160397616;300.006973130234
322.726787053393;298.855612585551
322.74841370917;297.745789896396
322.770040364947;296.732016633259
322.791667020723;295.797618725308
322.8132936765;294.910404142742
322.834920332277;294.048116096476
322.856546988054;293.198217538273
322.878173643831;292.380684723807
322.899800299607;291.631399162694
322.921426955384;290.939331630972
322.943053611161;290.278932725536
322.964680266938;289.645206066042
322.986306922714;289.037670028379
323.007933578491;288.447069309138
323.029560234268;287.858306137803
323.051186890045;287.245598635721
323.072813545822;286.587866188084
323.094440201598;285.900691001041
323.116066857375;285.260304411198
323.137693513152;284.681953572573
323.159320168929;284.132044421216
323.180946824705;283.608637060795
323.202573480482;283.113513511295
323.224200136259;282.648774253562
323.245826792036;282.230024099541
323.267453447813;281.867027558637
323.289080103589;281.546408278268
323.310706759366;281.251694660476
323.332333415143;280.964703739124
323.35396007092;280.679129206355
323.375586726696;280.399362966751
323.397213382473;280.126532202807
323.41884003825;279.849853836792
323.440466694027;279.554673869224
323.462093349804;279.229668409037
323.48372000558;278.879192944045
323.505346661357;278.512903987807
323.526973317134;278.128583272547
323.548599972911;277.712250320041
323.570226628687;277.266163766697
323.591853284464;276.79209260233
323.613479940241;276.287113302041
323.635106596018;275.747927103468
323.656733251795;275.163875294678
323.678359907571;274.549091247794
323.699986563348;273.943876462503
323.721613219125;273.342693947263
323.743239874902;272.734884540028
323.764866530678;272.115215348782
323.786493186455;271.492035002462
323.808119842232;270.854411435401
323.829746498009;270.198580277886
323.851373153786;269.551287293231
323.872999809562;268.934261505084
323.894626465339;268.338188189117
323.916253121116;267.739355887657
323.937879776893;267.118164503616
323.959506432669;266.471147582856
323.981133088446;265.81383947842
324.002759744223;265.154103693635
324.0243864;264.46424807273
324.046013055777;263.745355773618
324.067639711553;263.013498961892
324.08926636733;262.28283734283
324.110893023107;261.57096663744
324.132519678884;260.890498220393
324.15414633466;260.234225947945
324.175772990437;259.579640475083
324.197399646214;258.926986999012
324.219026301991;258.291050677518
324.240652957768;257.666492844588
324.262279613544;257.051425968334
324.283906269321;256.441596498004
324.305532925098;255.842658363661
324.327159580875;255.25051178236
324.348786236652;254.667102319848
324.370412892428;254.09168052678
324.392039548205;253.520446372352
324.413666203982;252.938536218345
324.435292859759;252.322784883387
324.456919515535;251.644405199161
324.478546171312;250.884126415218
324.500172827089;250.042000538022
324.521799482866;249.1130707145
324.543426138643;248.075333728143
324.565052794419;246.92311101045
324.586679450196;245.667883756088
324.608306105973;244.320389605967
324.62993276175;242.878061438188
324.651559417526;241.329480187638
324.673186073303;239.632507211328
324.69481272908;237.824004411546
324.716439384857;236.023273907147
324.738066040634;234.224196064633
324.75969269641;232.363452792191
324.781319352187;230.46087300015
