Name;ESR_BC_1_7200s_Y_gon_180dg_result

Recipe
Accumulations;5;Number of accumulations
RetryCount;0;Number of retries on error
AbortOnError;True;Abort on error
EnableQFactorMeasurement;False;Enable/Disable q-Factor measurement
Bfrom;313;B from
Bto;363;B to
SweepTime;60;Sweep time
Modulation;0.2;Modulation
ModulationFreq;100;Modulation
BHoldEnabled;False;B hold enabled
BHold;0;B hold
MicrowavePower;2;Microwave power
MarkerEnabled;False;
MarkerStartField;0;
MarkerEndField;0;
Mode;;
KineticGFact;0;
KineticTotalTransientTime;0;
KineticTimeResolution;0;
TempFrom;5;
TempUseSlope;False;
TempTo;5;
TempdT;1;
TempSetupTime;0;
GonFrom;0;
GonTo;180;
GonSteps;20;
XRayEnabled;False;
XRayTime;3;
XRayVoltage;40;
XRayCurrent;0.5;
UVEnabled;False;
UVIntensity;0;
UVTime;0;
UVLeadTime;0;
UVWavelength;0;
PowSweepFrom;1;
PowSweepTo;5;
PowSweepSteps;5;
AmpModSweepFrom;0;
AmpModSweepTo;1;
AmpModSweepSteps;10;
ExtTriggerEnabled;False;
ExtTrigLeadTime;0;
ExtTrigOnTime;5;

Meas
BField [mT];MW_Absorption []
313.016134490967;176.756769665655
313.037763038668;176.256539341408
313.05939158637;175.603739963022
313.081020134071;174.906600722877
313.102648681773;174.203716807258
313.124277229474;173.55366519912
313.145905777176;172.94203401743
313.167534324877;172.339725675186
313.189162872579;171.743818205431
313.21079142028;171.183854265527
313.232419967982;170.664427279294
313.254048515683;170.184979944655
313.275677063385;169.760086707625
313.297305611086;169.407622744239
313.318934158788;169.120371829294
313.340562706489;168.889040438554
313.362191254191;168.709320587698
313.383819801892;168.574283329104
313.405448349594;168.484673557819
313.427076897295;168.438157937191
313.448705444997;168.430144695111
313.470333992698;168.452758034565
313.491962540399;168.487626900963
313.513591088101;168.520844796042
313.535219635802;168.545013255579
313.556848183504;168.548278419867
313.578476731205;168.524185632392
313.600105278907;168.480952728816
313.621733826608;168.424727479615
313.64336237431;168.344577121616
313.664990922011;168.223080308189
313.686619469713;168.062156173905
313.708248017414;167.887651006166
313.729876565116;167.703703180597
313.751505112817;167.500763661005
313.773133660519;167.285420163703
313.79476220822;167.070979138726
313.816390755922;166.856216776387
313.838019303623;166.643376483968
313.859647851325;166.450764730415
313.881276399026;166.306959328655
313.902904946728;166.220968571215
313.924533494429;166.196274393007
313.946162042131;166.241293285843
313.967790589832;166.368233890301
313.989419137534;166.563591788243
314.011047685235;166.800837007186
314.032676232937;167.064561495263
314.054304780638;167.354452961235
314.07593332834;167.670029332107
314.097561876041;167.985494953268
314.119190423743;168.290504186273
314.140818971444;168.5845476106
314.162447519145;168.869023222248
314.184076066847;169.139176588323
314.205704614548;169.38723050119
314.22733316225;169.614856085467
314.248961709951;169.832179352529
314.270590257653;170.038993877102
314.292218805354;170.227820887656
314.313847353056;170.403128777069
314.335475900757;170.567545237419
314.357104448459;170.725061297631
314.37873299616;170.886658992964
314.400361543862;171.05136736032
314.421990091563;171.198233663939
314.443618639265;171.319985916219
314.465247186966;171.424849645261
314.486875734668;171.515872027887
314.508504282369;171.592536716677
314.530132830071;171.653816978799
314.551761377772;171.701642057407
314.573389925474;171.739281070048
314.595018473175;171.764779592787
314.616647020877;171.767673263873
314.638275568578;171.748530633954
314.65990411628;171.712241649769
314.681532663981;171.668593588888
314.703161211683;171.619848705885
314.724789759384;171.565397559853
314.746418307086;171.509997921343
314.768046854787;171.466764108837
314.789675402489;171.444085114537
314.81130395019;171.435712351331
314.832932497892;171.447141326065
314.854561045593;171.485079259337
314.876189593295;171.542807435175
314.897818140996;171.609307801877
314.919446688697;171.678153394788
314.941075236399;171.75508505983
314.9627037841;171.842220630461
314.984332331802;171.931280867861
315.005960879503;172.009465470539
315.027589427205;172.070637059121
315.049217974906;172.116573918814
315.070846522608;172.151956258437
315.092475070309;172.176921339296
315.114103618011;172.194773753445
315.135732165712;172.206286863811
315.157360713414;172.202243527828
315.178989261115;172.189941813097
315.200617808817;172.184298890556
315.222246356518;172.184264987411
315.24387490422;172.179615880786
315.265503451921;172.162131100288
315.287131999623;172.12347717667
315.308760547324;172.050208684269
315.330389095026;171.934562090253
315.352017642727;171.775474983418
315.373646190429;171.574751061343
315.39527473813;171.341313619282
315.416903285832;171.086004061375
315.438531833533;170.811837187196
315.460160381235;170.517185579189
315.481788928936;170.205497860494
315.503417476638;169.883705010436
315.525046024339;169.561175990285
315.546674572041;169.258700493505
315.568303119742;168.994792093252
315.589931667443;168.766080254038
315.611560215145;168.566069628806
315.633188762846;168.381472608841
315.654817310548;168.200225753209
315.676445858249;168.007366279599
315.698074405951;167.798273686378
315.719702953652;167.572634919077
315.741331501354;167.319138199287
315.762960049055;167.02778499006
315.784588596757;166.698605839109
315.806217144458;166.338092841374
315.82784569216;165.962307261262
315.849474239861;165.582785875876
315.871102787563;165.19923037405
315.892731335264;164.821557410654
315.914359882966;164.472197807404
315.935988430667;164.157471227366
315.957616978369;163.871597852418
315.97924552607;163.62137982834
316.000874073772;163.408811912626
316.022502621473;163.221047355542
316.044131169175;163.046464278057
316.065759716876;162.879655169666
316.087388264578;162.721664150804
316.109016812279;162.577975018789
316.130645359981;162.444312274716
316.152273907682;162.319821497693
316.173902455384;162.211268913899
316.195531003085;162.12396475688
316.217159550787;162.055858193047
316.238788098488;162.008630145663
316.26041664619;161.983734171893
316.282045193891;161.979380900549
316.303673741592;161.984673018592
316.325302289294;162.001087774049
316.346930836995;162.025735932209
316.368559384697;162.047908306979
316.390187932398;162.055172479124
316.4118164801;162.036856499624
316.433445027801;161.98575364087
316.455073575503;161.897406315867
316.476702123204;161.76345348955
316.498330670906;161.571221694082
316.519959218607;161.314623240175
316.541587766309;161.009325897747
316.56321631401;160.679460330991
316.584844861712;160.330585098541
316.606473409413;159.953924510716
316.628101957115;159.546385932064
316.649730504816;159.122963229445
316.671359052518;158.707498773673
316.692987600219;158.286591121636
316.714616147921;157.864412659827
316.736244695622;157.451161966352
316.757873243324;157.048146492319
316.779501791025;156.653356914955
316.801130338727;156.270642160808
316.822758886428;155.924383199084
316.84438743413;155.631074173612
316.866015981831;155.379141129458
316.887644529533;155.157715229956
316.909273077234;154.972732991894
316.930901624936;154.837763635728
316.952530172637;154.752211227111
316.974158720338;154.704691576809
316.99578726804;154.684123199155
317.017415815741;154.686924593884
317.039044363443;154.708711981175
317.060672911144;154.743578119506
317.082301458846;154.789390403196
317.103930006547;154.843188918599
317.125558554249;154.896565175806
317.14718710195;154.938904880203
317.168815649652;154.962975205942
317.190444197353;154.965635208939
317.212072745055;154.940860028062
317.233701292756;154.876958010074
317.255329840458;154.764257989943
317.276958388159;154.595497624675
317.298586935861;154.386522459799
317.320215483562;154.130017419505
317.341844031264;153.809000899355
317.363472578965;153.408778720728
317.385101126667;152.931259819126
317.406729674368;152.386253081045
317.42835822207;151.753219747582
317.449986769771;151.014433673378
317.471615317473;150.185485109567
317.493243865174;149.313859285372
317.514872412876;148.400291411868
317.536500960577;147.444457453043
317.558129508279;146.458522931294
317.57975805598;145.495361679546
317.601386603682;144.566068351228
317.623015151383;143.628645072762
317.644643699085;142.691607910112
317.666272246786;141.787643964076
317.687900794488;140.901401349821
317.709529342189;140.045760088578
317.73115788989;139.270469546282
317.752786437592;138.574633132233
317.774414985293;137.941687434967
317.796043532995;137.353049574362
317.817672080696;136.792392997358
317.839300628398;136.261234731763
317.860929176099;135.792565316132
317.882557723801;135.394394606318
317.904186271502;135.040552923793
317.925814819204;134.710723296421
317.947443366905;134.411182305621
317.969071914607;134.149373708813
317.990700462308;133.920794739285
318.01232901001;133.715664792285
318.033957557711;133.526105127339
318.055586105413;133.341460863609
318.077214653114;133.145061522125
318.098843200816;132.930709504319
318.120471748517;132.6977348049
318.142100296219;132.449304260015
318.16372884392;132.197069371647
318.185357391622;131.954139807807
318.206985939323;131.724571899818
318.228614487025;131.510596593241
318.250243034726;131.308198983811
318.271871582428;131.114203303856
318.293500130129;130.92226260558
318.315128677831;130.731548349993
318.336757225532;130.556907465896
318.358385773234;130.38452139626
318.380014320935;130.19206894056
318.401642868636;129.981538276108
318.423271416338;129.769591480895
318.444899964039;129.55307224488
318.466528511741;129.322944492585
318.488157059442;129.073933945584
318.509785607144;128.811331913888
318.531414154845;128.539192592903
318.553042702547;128.256387724112
318.574671250248;127.964670490972
318.59629979795;127.666924108677
318.617928345651;127.360265480204
318.639556893353;127.042929325889
318.661185441054;126.721504281171
318.682813988756;126.397272177859
318.704442536457;126.068173354613
318.726071084159;125.735331639135
318.74769963186;125.396968258259
318.769328179562;125.047420302119
318.790956727263;124.690491520515
318.812585274965;124.339120579692
318.834213822666;124.002821704642
318.855842370368;123.67839133879
318.877470918069;123.352053940099
318.899099465771;123.015735718608
318.920728013472;122.667098868671
318.942356561174;122.298298593091
318.963985108875;121.90878430333
318.985613656577;121.510199412381
319.007242204278;121.115564304318
319.02887075198;120.735699143373
319.050499299681;120.362595705309
319.072127847383;119.981318461585
319.093756395084;119.590568947288
319.115384942786;119.212481610868
319.137013490487;118.870162662546
319.158642038188;118.565880756918
319.18027058589;118.288818610262
319.201899133591;118.026332336381
319.223527681293;117.772027298346
319.245156228994;117.52844239133
319.266784776696;117.3076636397
319.288413324397;117.110949231362
319.310041872099;116.925425402438
319.3316704198;116.741233569677
319.353298967502;116.54523022219
319.374927515203;116.33867222618
319.396556062905;116.135391624814
319.418184610606;115.933878140909
319.439813158308;115.729034053042
319.461441706009;115.51922289153
319.483070253711;115.304451188023
319.504698801412;115.089166607756
319.526327349114;114.874686591209
319.547955896815;114.657567271839
319.569584444517;114.443455946568
319.591212992218;114.237806149437
319.61284153992;114.038190800926
319.634470087621;113.842923841446
319.656098635323;113.651696015276
319.677727183024;113.460964844593
319.699355730726;113.262402720705
319.720984278427;113.040397077012
319.742612826129;112.786552343168
319.76424137383;112.520043775455
319.785869921532;112.239127475481
319.807498469233;111.92553622696
319.829127016934;111.565133678805
319.850755564636;111.178015815883
319.872384112337;110.790588419604
319.894012660039;110.407826820289
319.91564120774;110.030937924212
319.937269755442;109.664500480665
319.958898303143;109.32780549071
319.980526850845;109.035378847387
320.002155398546;108.785007893974
320.023783946248;108.571876858995
320.045412493949;108.392029532702
320.067041041651;108.244111069995
320.088669589352;108.126631596237
320.110298137054;108.037273886356
320.131926684755;107.969936188548
320.153555232457;107.913276547081
320.175183780158;107.857818589047
320.19681232786;107.794850176169
320.218440875561;107.721606993466
320.240069423263;107.637448505092
320.261697970964;107.538956334793
320.283326518666;107.433454536607
320.304955066367;107.328607488582
320.326583614069;107.218462701008
320.34821216177;107.094241004481
320.369840709472;106.963944148436
320.391469257173;106.826482398978
320.413097804875;106.669373103018
320.434726352576;106.501344786953
320.456354900278;106.329536673631
320.477983447979;106.162395325025
320.499611995681;105.997898930999
320.521240543382;105.823467827423
320.542869091084;105.6409098854
320.564497638785;105.461174401512
320.586126186486;105.294664745882
320.607754734188;105.145792962723
320.629383281889;105.009935156997
320.651011829591;104.886487112995
320.672640377292;104.791785448286
320.694268924994;104.738180955211
320.715897472695;104.718947454279
320.737526020397;104.73268964465
320.759154568098;104.785472845079
320.7807831158;104.878687058774
320.802411663501;105.008794110633
320.824040211203;105.170076571021
320.845668758904;105.351173410103
320.867297306606;105.540193039413
320.888925854307;105.736544201354
320.910554402009;105.948047094153
320.93218294971;106.163720955811
320.953811497412;106.365338244437
320.975440045113;106.548629459877
320.997068592815;106.719584830097
321.018697140516;106.88937056998
321.040325688218;107.069178414383
321.061954235919;107.263418876762
321.083582783621;107.464510645081
321.105211331322;107.680473813057
321.126839879024;107.92997951787
321.148468426725;108.22495794152
321.170096974427;108.56207202154
321.191725522128;108.925329224261
321.21335406983;109.308154821543
321.234982617531;109.700731670881
321.256611165232;110.089470931471
321.278239712934;110.475592735228
321.299868260635;110.870822696492
321.321496808337;111.269466806094
321.343125356038;111.651861269925
321.36475390374;111.998097481939
321.386382451441;112.286026777978
321.408010999143;112.4947773163
321.429639546844;112.622833614645
321.451268094546;112.67309672149
321.472896642247;112.648059754512
321.494525189949;112.555893654045
321.51615373765;112.39884884254
321.537782285352;112.176268662451
321.559410833053;111.906706370564
321.581039380755;111.62056234041
321.602667928456;111.329956339147
321.624296476158;111.042568658683
321.645925023859;110.770322840495
321.667553571561;110.526241601436
321.689182119262;110.317733893427
321.710810666964;110.139547941104
321.732439214665;109.987369180867
321.754067762367;109.865129207
321.775696310068;109.765120125065
321.79732485777;109.667099119676
321.818953405471;109.543719274854
321.840581953173;109.380796618695
321.862210500874;109.185880620394
321.883839048576;108.96541784656
321.905467596277;108.708383815738
321.927096143979;108.400773038145
321.94872469168;108.017768309075
321.970353239382;107.53881671537
321.991981787083;106.987714831747
322.013610334784;106.437353423819
322.035238882486;105.91262963879
322.056867430187;105.396620994869
322.078495977889;104.8726140137
322.10012452559;104.338446943936
322.121753073292;103.803096010037
322.143381620993;103.275633510406
322.165010168695;102.757796998821
322.186638716396;102.249856843908
322.208267264098;101.75006345986
322.229895811799;101.270938029825
322.251524359501;100.817045589659
322.273152907202;100.371059827171
322.294781454904;99.9248037216836
322.316410002605;99.5054649301385
322.338038550307;99.137633354123
322.359667098008;98.815673429556
322.38129564571;98.5233645596601
322.402924193411;98.2513647493555
322.424552741113;97.9993602615446
322.446181288814;97.7784590191451
322.467809836516;97.6015832728839
322.489438384217;97.4724739199329
322.511066931919;97.3834612377511
322.53269547962;97.3203758353697
322.554324027322;97.2751186150343
322.575952575023;97.2518513675029
322.597581122725;97.2465114368994
322.619209670426;97.2425856240055
322.640838218128;97.2257942829097
322.662466765829;97.1960837076941
322.68409531353;97.1609022398333
322.705723861232;97.115852399879
322.727352408933;97.0382269904919
322.748980956635;96.9189792567412
322.770609504336;96.7663325033753
322.792238052038;96.5885658917922
322.813866599739;96.3840965203107
322.835495147441;96.1533303174495
322.857123695142;95.9019356526417
322.878752242844;95.6320938680417
322.900380790545;95.346537938915
322.922009338247;95.0506755314812
322.943637885948;94.7456375429406
322.96526643365;94.4397860211568
322.986894981351;94.146149920742
323.008523529053;93.8737452599034
323.030152076754;93.6279751102992
323.051780624456;93.4158341000051
323.073409172157;93.2389168575194
323.095037719859;93.0946463622274
323.11666626756;92.9799144581833
323.138294815262;92.8812266369201
323.159923362963;92.7932675763487
323.181551910665;92.7315424628834
323.203180458366;92.7026755813581
323.224809006068;92.6990230854733
323.246437553769;92.71752606623
323.268066101471;92.7572504868417
323.289694649172;92.8133991718612
323.311323196874;92.8803918957976
323.332951744575;92.9558604367122
323.354580292277;93.033926384716
323.376208839978;93.0972982988765
323.397837387679;93.1357649223602
323.419465935381;93.1460048250173
323.441094483082;93.1284281804243
323.462723030784;93.072748979797
323.484351578485;92.9699721232504
323.505980126187;92.8211353965544
323.527608673888;92.6294502215254
323.54923722159;92.3986279715599
323.570865769291;92.131140067308
323.592494316993;91.8272364683601
323.614122864694;91.489536592791
323.635751412396;91.1253876757004
323.657379960097;90.7448724963924
323.679008507799;90.3649805467546
323.7006370555;90.0028786728644
323.722265603202;89.6655180650108
323.743894150903;89.3581487498535
323.765522698605;89.0886205106106
323.787151246306;88.8673957266212
323.808779794008;88.6962334721897
323.830408341709;88.5702496859197
323.852036889411;88.4813192716911
323.873665437112;88.4235456953429
323.895293984814;88.4000700770147
323.916922532515;88.4073481376019
323.938551080217;88.4297178730476
323.960179627918;88.4547113913649
323.98180817562;88.4695224280812
324.003436723321;88.4637662083878
324.025065271023;88.4403294410698
324.046693818724;88.3938275582498
324.068322366425;88.3160200324039
324.089950914127;88.1972746805386
324.111579461828;88.0417702330008
324.13320800953;87.8641239649343
324.154836557231;87.6581395109611
324.176465104933;87.4261001311673
324.198093652634;87.1888945549998
324.219722200336;86.956979772025
324.241350748037;86.727551411133
324.262979295739;86.4982563998882
324.28460784344;86.271838416955
324.306236391142;86.064373378102
324.327864938843;85.8809582638188
324.349493486545;85.7120727106078
324.371122034246;85.5469705178023
324.392750581948;85.3870642006193
324.414379129649;85.2339236010398
324.436007677351;85.0837254262425
324.457636225052;84.9277579360121
324.479264772754;84.7627548062142
324.500893320455;84.5957715169626
324.522521868157;84.429350828141
324.544150415858;84.2567424024787
324.56577896356;84.0700601035054
324.587407511261;83.8711286781438
324.609036058963;83.6675800500828
324.630664606664;83.4608925373451
324.652293154366;83.2500698713636
324.673921702067;83.0394589535208
324.695550249769;82.8335397535821
324.71717879747;82.6321322980671
324.738807345171;82.4291837071465
324.760435892873;82.2214656028305
324.782064440574;82.0113918687936
