Name;ESR_BC_1_840s_X_gon_20dg_result

Recipe
Accumulations;5;Number of accumulations
RetryCount;0;Number of retries on error
AbortOnError;True;Abort on error
EnableQFactorMeasurement;False;Enable/Disable q-Factor measurement
Bfrom;313;B from
Bto;363;B to
SweepTime;60;Sweep time
Modulation;0.2;Modulation
ModulationFreq;100;Modulation
BHoldEnabled;False;B hold enabled
BHold;0;B hold
MicrowavePower;2;Microwave power
MarkerEnabled;False;
MarkerStartField;0;
MarkerEndField;0;
Mode;;
KineticGFact;0;
KineticTotalTransientTime;0;
KineticTimeResolution;0;
TempFrom;5;
TempUseSlope;False;
TempTo;5;
TempdT;1;
TempSetupTime;0;
GonFrom;0;
GonTo;180;
GonSteps;20;
XRayEnabled;False;
XRayTime;3;
XRayVoltage;40;
XRayCurrent;0.5;
UVEnabled;False;
UVIntensity;0;
UVTime;0;
UVLeadTime;0;
UVWavelength;0;
PowSweepFrom;1;
PowSweepTo;5;
PowSweepSteps;5;
AmpModSweepFrom;0;
AmpModSweepTo;1;
AmpModSweepSteps;10;
ExtTriggerEnabled;False;
ExtTrigLeadTime;0;
ExtTrigOnTime;5;

Meas
BField [mT];MW_Absorption []
313.013523254395;540.534348057496
313.035150450702;539.945438864183
313.05677764701;539.369333146937
313.078404843318;538.82605270362
313.100032039626;538.34038388159
313.121659235934;537.910605378414
313.143286432242;537.524617661942
313.164913628549;537.175517444996
313.186540824857;536.869885816082
313.208168021165;536.621511700331
313.229795217473;536.424168374124
313.251422413781;536.264859628651
313.273049610088;536.138808363825
313.294676806396;536.030329725074
313.316304002704;535.929933821119
313.337931199012;535.824777817544
313.35955839532;535.696243411524
313.381185591628;535.524476822985
313.402812787935;535.289896449085
313.424439984243;534.980978813275
313.446067180551;534.602636650824
313.467694376859;534.15837823914
313.489321573167;533.64700636569
313.510948769474;533.06168370222
313.532575965782;532.396371906873
313.55420316209;531.695431539052
313.575830358398;530.999904143882
313.597457554706;530.314836456811
313.619084751014;529.628888483789
313.640711947321;528.931723041589
313.662339143629;528.226597319946
313.683966339937;527.544622019311
313.705593536245;526.903681757868
313.727220732553;526.319207044562
313.748847928861;525.787614363798
313.770475125168;525.28823003086
313.792102321476;524.810471380947
313.813729517784;524.35611231103
313.835356714092;523.925581600366
313.8569839104;523.514912639267
313.878611106707;523.12166909405
313.900238303015;522.742010974272
313.921865499323;522.361078001711
313.943492695631;521.962993192741
313.965119891939;521.537820946809
313.986747088247;521.090202447329
314.008374284554;520.611033796978
314.030001480862;520.082515251013
314.05162867717;519.494750154295
314.073255873478;518.862108704909
314.094883069786;518.198654373565
314.116510266093;517.49399301118
314.138137462401;516.743621254793
314.159764658709;515.980719144859
314.181391855017;515.245579941644
314.203019051325;514.527526415093
314.224646247633;513.797363084473
314.24627344394;513.049290061791
314.267900640248;512.304265346075
314.289527836556;511.584002294005
314.311155032864;510.900646847768
314.332782229172;510.265682194059
314.35440942548;509.68120418505
314.376036621787;509.140834121873
314.397663818095;508.615599562227
314.419291014403;508.086515937594
314.440918210711;507.549148361321
314.462545407019;506.98683655202
314.484172603326;506.389951823561
314.505799799634;505.772069672349
314.527426995942;505.131759804975
314.54905419225;504.469108469637
314.570681388558;503.811701181143
314.592308584866;503.198487842272
314.613935781173;502.623795143959
314.635562977481;502.041970395652
314.657190173789;501.413916607839
314.678817370097;500.763941484881
314.700444566405;500.11767477428
314.722071762713;499.461601427011
314.74369895902;498.805517575487
314.765326155328;498.151431214017
314.786953351636;497.476747502335
314.808580547944;496.779011088936
314.830207744252;496.100112650034
314.851834940559;495.427958231539
314.873462136867;494.728428221809
314.895089333175;494.00282860804
314.916716529483;493.281454835377
314.938343725791;492.57258196625
314.959970922099;491.872797169592
314.981598118406;491.180537577898
315.003225314714;490.498837409701
315.024852511022;489.841813668524
315.04647970733;489.216437019163
315.068106903638;488.620097228551
315.089734099945;488.0542064091
315.111361296253;487.525160529563
315.132988492561;487.04725249858
315.154615688869;486.653626405699
315.176242885177;486.354583592886
315.197870081485;486.130608730543
315.219497277792;485.97090141911
315.2411244741;485.874151835981
315.262751670408;485.828866835422
315.284378866716;485.820970817914
315.306006063024;485.846236611383
315.327633259332;485.901814811118
315.349260455639;485.96876829299
315.370887651947;486.027519008626
315.392514848255;486.071141049138
315.414142044563;486.096646663384
315.435769240871;486.077828338872
315.457396437178;486.000468415471
315.479023633486;485.877543110983
315.500650829794;485.71292539237
315.522278026102;485.499930579663
315.54390522241;485.23153717221
315.565532418718;484.906193928919
315.587159615025;484.52365325051
315.608786811333;484.092073799553
315.630414007641;483.621138728352
315.652041203949;483.106982872722
315.673668400257;482.562073421097
315.695295596565;482.018253446121
315.716922792872;481.478963604283
315.73854998918;480.945358732212
315.760177185488;480.422364574008
315.781804381796;479.92343688493
315.803431578104;479.45477463583
315.825058774411;479.029690951105
315.846685970719;478.661136662204
315.868313167027;478.342478915164
315.889940363335;478.069495605425
315.911567559643;477.837919386546
315.933194755951;477.646396056456
315.954821952258;477.497234643238
315.976449148566;477.400336099671
315.998076344874;477.352628426018
316.019703541182;477.332494166863
316.04133073749;477.329571327505
316.062957933797;477.354551004526
316.084585130105;477.399291373083
316.106212326413;477.443928327707
316.127839522721;477.469540448495
316.149466719029;477.470336106061
316.171093915337;477.442395816705
316.192721111644;477.378624380599
316.214348307952;477.272114158538
316.23597550426;477.122335540334
316.257602700568;476.929866380249
316.279229896876;476.686725813264
316.300857093184;476.383482827149
316.322484289491;476.016628449168
316.344111485799;475.602725832848
316.365738682107;475.158228291672
316.387365878415;474.682251173673
316.408993074723;474.156237891357
316.43062027103;473.550824935944
316.452247467338;472.875020660438
316.473874663646;472.179094699044
316.495501859954;471.50342925784
316.517129056262;470.843107845516
316.53875625257;470.197191162641
316.560383448877;469.572217642322
316.582010645185;468.970375928038
316.603637841493;468.393075430501
316.625265037801;467.850850561886
316.646892234109;467.356996713724
316.668519430417;466.916111123904
316.690146626724;466.519531274527
316.711773823032;466.16829214784
316.73340101934;465.863399306815
316.755028215648;465.614115111638
316.776655411956;465.4306348878
316.798282608263;465.300597228386
316.819909804571;465.210021620106
316.841537000879;465.157770418718
316.863164197187;465.137462285298
316.884791393495;465.14311815038
316.906418589803;465.174064600364
316.92804578611;465.232209827846
316.949672982418;465.31722022457
316.971300178726;465.426412075337
316.992927375034;465.561034699342
317.014554571342;465.712913695249
317.03618176765;465.868207803914
317.057808963957;466.01877423772
317.079436160265;466.171178082759
317.101063356573;466.322122908444
317.122690552881;466.458846912713
317.144317749189;466.572939845316
317.165944945496;466.663939779139
317.187572141804;466.724411458032
317.209199338112;466.733574509856
317.23082653442;466.690303848309
317.252453730728;466.606021300456
317.274080927036;466.488693321347
317.295708123343;466.345224301199
317.317335319651;466.179542502685
317.338962515959;465.996633456496
317.360589712267;465.801642408865
317.382216908575;465.605453747584
317.403844104882;465.426493634701
317.42547130119;465.267187572268
317.447098497498;465.132346825165
317.468725693806;465.025254461145
317.490352890114;464.943836649638
317.511980086422;464.877843155933
317.533607282729;464.80402188719
317.555234479037;464.698740615719
317.576861675345;464.542700821034
317.598488871653;464.326005726082
317.620116067961;464.039641068157
317.641743264268;463.673333534674
317.663370460576;463.200182380536
317.684997656884;462.584770220827
317.706624853192;461.797991843792
317.7282520495;460.83140423866
317.749879245808;459.741780027909
317.771506442115;458.603632762531
317.793133638423;457.461500348566
317.814760834731;456.343364426936
317.836388031039;455.251823558077
317.858015227347;454.181871477751
317.879642423655;453.15296748255
317.901269619962;452.19911688222
317.92289681627;451.344311602602
317.944524012578;450.598049482026
317.966151208886;449.954082164195
317.987778405194;449.411876051414
318.009405601502;448.973352520035
318.031032797809;448.622393639334
318.052659994117;448.337085621865
318.074287190425;448.096308093105
318.095914386733;447.871478227903
318.117541583041;447.644595398645
318.139168779348;447.404040428806
318.160795975656;447.132721664141
318.182423171964;446.819156620034
318.204050368272;446.460103386955
318.22567756458;446.065773872522
318.247304760888;445.650109151488
318.268931957195;445.212283595316
318.290559153503;444.74407088897
318.312186349811;444.249506191443
318.333813546119;443.76057163237
318.355440742427;443.30989262405
318.377067938734;442.905582460035
318.398695135042;442.540420031534
318.42032233135;442.200536833558
318.441949527658;441.87373015192
318.463576723966;441.544864495782
318.485203920274;441.211607672472
318.506831116581;440.882849867664
318.528458312889;440.560784455648
318.550085509197;440.239006919379
318.571712705505;439.904296675113
318.593339901813;439.538582872598
318.614967098121;439.130985472838
318.636594294428;438.68765867294
318.658221490736;438.229675798166
318.679848687044;437.761597506431
318.701475883352;437.268790543376
318.72310307966;436.741759102761
318.744730275967;436.190446614985
318.766357472275;435.634865905823
318.787984668583;435.080059691302
318.809611864891;434.54040905754
318.831239061199;434.022713772519
318.852866257507;433.521407618323
318.874493453814;433.035334096836
318.896120650122;432.559640783197
318.91774784643;432.082486469845
318.939375042738;431.598017165724
318.961002239046;431.105476143079
318.982629435353;430.599633095107
319.004256631661;430.076206951292
319.025883827969;429.548770479526
319.047511024277;428.997427024468
319.069138220585;428.400814840681
319.090765416893;427.745000391493
319.1123926132;427.030665368416
319.134019809508;426.275444206312
319.155647005816;425.505360172971
319.177274202124;424.736789048735
319.198901398432;423.974173827901
319.22052859474;423.217704383628
319.242155791047;422.467214744987
319.263782987355;421.715795323057
319.285410183663;420.966268902146
319.307037379971;420.234517469019
319.328664576279;419.519513410505
319.350291772586;418.815137943011
319.371918968894;418.113292850915
319.393546165202;417.426110626739
319.41517336151;416.754029691688
319.436800557818;416.0849506879
319.458427754126;415.418813820714
319.480054950433;414.767409934047
319.501682146741;414.125292143692
319.523309343049;413.481934184026
319.544936539357;412.84932899775
319.566563735665;412.246670458912
319.588190931973;411.679808944361
319.60981812828;411.172125094186
319.631445324588;410.733678839364
319.653072520896;410.359959959093
319.674699717204;410.04516368268
319.696326913512;409.775454746182
319.717954109819;409.551326931128
319.739581306127;409.376640403228
319.761208502435;409.252381693324
319.782835698743;409.171065213223
319.804462895051;409.121149098895
319.826090091359;409.096379941856
319.847717287666;409.095325814548
319.869344483974;409.11880996172
319.890971680282;409.163537545521
319.91259887659;409.232474875847
319.934226072898;409.33747194211
319.955853269205;409.486037216381
319.977480465513;409.666390240849
319.999107661821;409.868485521525
320.020734858129;410.095119629261
320.042362054437;410.359071652497
320.063989250745;410.674332833708
320.085616447052;411.042608618896
320.10724364336;411.448626667186
320.128870839668;411.877560510275
320.150498035976;412.31833375282
320.172125232284;412.765217970387
320.193752428592;413.228769778347
320.215379624899;413.705168915707
320.237006821207;414.16053685016
320.258634017515;414.572777182283
320.280261213823;414.927928393465
320.301888410131;415.199502398287
320.323515606438;415.375407063827
320.345142802746;415.456359643439
320.366769999054;415.430996234611
320.388397195362;415.280905989809
320.41002439167;414.998476969889
320.431651587978;414.58472832323
320.453278784285;414.010387281774
320.474905980593;413.249080131799
320.496533176901;412.346637974281
320.518160373209;411.363753835749
320.539787569517;410.310923715761
320.561414765825;409.163925072819
320.583041962132;407.940900045337
320.60466915844;406.73943690171
320.626296354748;405.616377928671
320.647923551056;404.569640023568
320.669550747364;403.571028991932
320.691177943671;402.597226692357
320.712805139979;401.649657767765
320.734432336287;400.753984654688
320.756059532595;399.924580662674
320.777686728903;399.137290210861
320.799313925211;398.381995531117
320.820941121518;397.621437722969
320.842568317826;396.813873358339
320.864195514134;395.952667674678
320.885822710442;395.033192531958
320.90744990675;394.039889381778
320.929077103057;392.954316914899
320.950704299365;391.745806629147
320.972331495673;390.442360662247
320.993958691981;389.083060736283
321.015585888289;387.634632927812
321.037213084597;386.078574052314
321.058840280904;384.414097345983
321.080467477212;382.657333911206
321.10209467352;380.83349685546
321.123721869828;378.981490344818
321.145349066136;377.19117910081
321.166976262444;375.517404040912
321.188603458751;373.97086014926
321.210230655059;372.564999094844
321.231857851367;371.304529541861
321.253485047675;370.163711875821
321.275112243983;369.126698976196
321.29673944029;368.207555108341
321.318366636598;367.434074689898
321.339993832906;366.826916563994
321.361621029214;366.393304656165
321.383248225522;366.137059157807
321.40487542183;366.049387484471
321.426502618137;366.096467869531
321.448129814445;366.225891691077
321.469757010753;366.404055053485
321.491384207061;366.609471332841
321.513011403369;366.82114854353
321.534638599677;367.025913486816
321.556265795984;367.211190587294
321.577892992292;367.365231168885
321.5995201886;367.462356049806
321.621147384908;367.47188592921
321.642774581216;367.388676107657
321.664401777523;367.228447798795
321.686028973831;366.996571235627
321.707656170139;366.685913697361
321.729283366447;366.288884195186
321.750910562755;365.812633826489
321.772537759063;365.284168388838
321.79416495537;364.723842489686
321.815792151678;364.127980495102
321.837419347986;363.49271676979
321.859046544294;362.835981370182
321.880673740602;362.179128872753
321.90230093691;361.524716342254
321.923928133217;360.860414620595
321.945555329525;360.18458865051
321.967182525833;359.537912993736
321.988809722141;358.967062372548
322.010436918449;358.466204863291
322.032064114756;358.016042761959
322.053691311064;357.603432438467
322.075318507372;357.229770596691
322.09694570368;356.91189361081
322.118572899988;356.645347831138
322.140200096296;356.40985674602
322.161827292603;356.1859683475
322.183454488911;355.958069641382
322.205081685219;355.716813619028
322.226708881527;355.46225511963
322.248336077835;355.18712600842
322.269963274142;354.859219825358
322.29159047045;354.478869550219
322.313217666758;354.073806024915
322.334844863066;353.644068687655
322.356472059374;353.158823075499
322.378099255682;352.595671410054
322.399726451989;351.960160917818
322.421353648297;351.272860936231
322.442980844605;350.544537433229
322.464608040913;349.789194249479
322.486235237221;348.994412134179
322.507862433528;348.13354628584
322.529489629836;347.216546811451
322.551116826144;346.271022139552
322.572744022452;345.303154446752
322.59437121876;344.327729787862
322.615998415068;343.379422147642
322.637625611375;342.451713657769
322.659252807683;341.498842028217
322.680880003991;340.494043436545
322.702507200299;339.49589549827
322.724134396607;338.581073514364
322.745761592915;337.723734416317
322.767388789222;336.902553713049
322.78901598553;336.115569703764
322.810643181838;335.358217497911
322.832270378146;334.619305830581
322.853897574454;333.915236943293
322.875524770762;333.276000607145
322.897151967069;332.677814373252
322.918779163377;332.093462944814
322.940406359685;331.523019928204
322.962033555993;330.99645621454
322.983660752301;330.5222005183
323.005287948608;330.072753492683
323.026915144916;329.645886222103
323.048542341224;329.259788615226
323.070169537532;328.923759462127
323.09179673384;328.625959641879
323.113423930148;328.349404105219
323.135051126455;328.084266414691
323.156678322763;327.820080408687
323.178305519071;327.542828288666
323.199932715379;327.240164675621
323.221559911687;326.90330734459
323.243187107994;326.528420694372
323.264814304302;326.103465208543
323.28644150061;325.617395248564
323.308068696918;325.081387392443
323.329695893226;324.502700522596
323.351323089534;323.882287383004
323.372950285841;323.207865273998
323.394577482149;322.486270602548
323.416204678457;321.75079117838
323.437831874765;320.994308898227
323.459459071073;320.181904155349
323.481086267381;319.317605001724
323.502713463688;318.449794774065
323.524340659996;317.584346522993
323.545967856304;316.711397318851
323.567595052612;315.852345342159
323.58922224892;315.026276952933
323.610849445227;314.214438272874
323.632476641535;313.414344448601
323.654103837843;312.645596844624
323.675731034151;311.918679041054
323.697358230459;311.227863292267
323.718985426767;310.586834538114
323.740612623074;309.993590760177
323.762239819382;309.442794203119
323.78386701569;308.922727606475
323.805494211998;308.424330341434
323.827121408306;307.950077112516
323.848748604613;307.504079526477
323.870375800921;307.072718378876
323.892002997229;306.622989580639
323.913630193537;306.137909603004
323.935257389845;305.627777827239
323.956884586153;305.125138957551
323.97851178246;304.630043465738
324.000138978768;304.114333752384
324.021766175076;303.558560073905
324.043393371384;302.984247869066
324.065020567692;302.398522623498
324.086647764;301.811503495792
324.108274960307;301.236600254786
324.129902156615;300.670317151685
324.151529352923;300.095246058828
324.173156549231;299.494828330442
324.194783745539;298.861437403335
324.216410941846;298.202897994756
324.238038138154;297.52288561778
324.259665334462;296.806613858086
324.28129253077;296.06168922448
324.302919727078;295.316456932882
324.324546923386;294.576536263365
324.346174119693;293.802377788744
324.367801316001;292.973903414137
324.389428512309;292.115348547992
324.411055708617;291.266156119647
324.432682904925;290.435329080984
324.454310101233;289.598577738203
324.47593729754;288.727648564552
324.497564493848;287.816069306435
324.519191690156;286.871272923839
324.540818886464;285.889894446447
324.562446082772;284.864957586044
324.584073279079;283.802460390324
324.605700475387;282.723082760465
324.627327671695;281.621551962769
324.648954868003;280.468122242208
324.670582064311;279.285798180744
324.692209260619;278.095294112864
324.713836456926;276.905127139344
324.735463653234;275.675732519525
324.757090849542;274.37915755889
324.77871804585;273.101149780059
