Name;ESR_BC_1_3600s_X_gon_180dg_result

Recipe
Accumulations;5;Number of accumulations
RetryCount;0;Number of retries on error
AbortOnError;True;Abort on error
EnableQFactorMeasurement;False;Enable/Disable q-Factor measurement
Bfrom;313;B from
Bto;363;B to
SweepTime;60;Sweep time
Modulation;0.2;Modulation
ModulationFreq;100;Modulation
BHoldEnabled;False;B hold enabled
BHold;0;B hold
MicrowavePower;2;Microwave power
MarkerEnabled;False;
MarkerStartField;0;
MarkerEndField;0;
Mode;;
KineticGFact;0;
KineticTotalTransientTime;0;
KineticTimeResolution;0;
TempFrom;5;
TempUseSlope;False;
TempTo;5;
TempdT;1;
TempSetupTime;0;
GonFrom;0;
GonTo;180;
GonSteps;20;
XRayEnabled;False;
XRayTime;3;
XRayVoltage;40;
XRayCurrent;0.5;
UVEnabled;False;
UVIntensity;0;
UVTime;0;
UVLeadTime;0;
UVWavelength;0;
PowSweepFrom;1;
PowSweepTo;5;
PowSweepSteps;5;
AmpModSweepFrom;0;
AmpModSweepTo;1;
AmpModSweepSteps;10;
ExtTriggerEnabled;False;
ExtTrigLeadTime;0;
ExtTrigOnTime;5;

Meas
BField [mT];MW_Absorption []
313.033457870483;538.540719807562
313.055084012619;538.65471247039
313.076710154755;538.765160507079
313.098336296891;538.861444295717
313.119962439027;538.926707329354
313.141588581163;538.952626863052
313.163214723299;538.936408509765
313.184840865435;538.873630765408
313.206467007571;538.758496319111
313.228093149706;538.588481052125
313.249719291842;538.363337926041
313.271345433978;538.083588529229
313.292971576114;537.75092500905
313.31459771825;537.368856853597
313.336223860386;536.937386741158
313.357850002522;536.448459191987
313.379476144658;535.912236981312
313.401102286794;535.34716405544
313.422728428929;534.752425049416
313.444354571065;534.123506549042
313.465980713201;533.472221793781
313.487606855337;532.81073952836
313.509232997473;532.135918692073
313.530859139609;531.441262111352
313.552485281745;530.746304943563
313.574111423881;530.052154337953
313.595737566017;529.321741685108
313.617363708152;528.549034131413
313.638989850288;527.735316177334
313.660615992424;526.879021159536
313.68224213456;525.989012294774
313.703868276696;525.088583577963
313.725494418832;524.196933580721
313.747120560968;523.324226253871
313.768746703104;522.470255890159
313.79037284524;521.613079071785
313.811998987375;520.755390302422
313.833625129511;519.92116059977
313.855251271647;519.130141448708
313.876877413783;518.390544894065
313.898503555919;517.707942973052
313.920129698055;517.069419294669
313.941755840191;516.466270979952
313.963381982327;515.891556516392
313.985008124463;515.351898328654
314.006634266599;514.866640660034
314.028260408734;514.445280423851
314.04988655087;514.074941168845
314.071512693006;513.735275277256
314.093138835142;513.420076935849
314.114764977278;513.13636351946
314.136391119414;512.881481594552
314.15801726155;512.638477354694
314.179643403686;512.413618328318
314.201269545822;512.222710353512
314.222895687957;512.060168786915
314.244521830093;511.923314225624
314.266147972229;511.805974015939
314.287774114365;511.698330744813
314.309400256501;511.599987874765
314.331026398637;511.513305014846
314.352652540773;511.439754280717
314.374278682909;511.381978381193
314.395904825045;511.356884035047
314.41753096718;511.345892877436
314.439157109316;511.345634134719
314.460783251452;511.358600767104
314.482409393588;511.38702501907
314.504035535724;511.427363443563
314.52566167786;511.4723506933
314.547287819996;511.518626247428
314.568913962132;511.561377402802
314.590540104268;511.591724057829
314.612166246403;511.598690776177
314.633792388539;511.561662777738
314.655418530675;511.484238062483
314.677044672811;511.359133372644
314.698670814947;511.175191652295
314.720296957083;510.925476249167
314.741923099219;510.606261123414
314.763549241355;510.221121373818
314.785175383491;509.773630791162
314.806801525627;509.268993939175
314.828427667762;508.722616945149
314.850053809898;508.142778514496
314.871679952034;507.551507796547
314.89330609417;506.966052450446
314.914932236306;506.367354096243
314.936558378442;505.762083732502
314.958184520578;505.164164211517
314.979810662714;504.57254597822
315.00143680485;503.982807962916
315.023062946985;503.39056446045
315.044689089121;502.794292175113
315.066315231257;502.196910041306
315.087941373393;501.600907626691
315.109567515529;501.018980129358
315.131193657665;500.439423589486
315.152819799801;499.836096292497
315.174445941937;499.195958725336
315.196072084073;498.52029456599
315.217698226208;497.80994757822
315.239324368344;497.077203717921
315.26095051048;496.331662642578
315.282576652616;495.576102041242
315.304202794752;494.791765258328
315.325828936888;493.939422626484
315.347455079024;492.987346947247
315.36908122116;491.978183174918
315.390707363296;490.983665742709
315.412333505431;490.009921793336
315.433959647567;489.029876053113
315.455585789703;488.014658218169
315.477211931839;486.961839721114
315.498838073975;485.872547328695
315.520464216111;484.742959976054
315.542090358247;483.602110331357
315.563716500383;482.513826651507
315.585342642519;481.490996622751
315.606968784654;480.528804002487
315.62859492679;479.633326194006
315.650221068926;478.797169548704
315.671847211062;478.010098010424
315.693473353198;477.286428838518
315.715099495334;476.654077365889
315.73672563747;476.141655559663
315.758351779606;475.747670440813
315.779977921742;475.453539460005
315.801604063877;475.238297861969
315.823230206013;475.082023979452
315.844856348149;474.982374278545
315.866482490285;474.94658874858
315.888108632421;474.945428752461
315.909734774557;474.9539802443
315.931360916693;474.959850872364
315.952987058829;474.953681642062
315.974613200965;474.918608504802
315.9962393431;474.839931206959
316.017865485236;474.722971250122
316.039491627372;474.56873326159
316.061117769508;474.373785936048
316.082743911644;474.140281516145
316.10437005378;473.874830089281
316.125996195916;473.583576106086
316.147622338052;473.267847355649
316.169248480188;472.927494639183
316.190874622324;472.57018085876
316.212500764459;472.20731968083
316.234126906595;471.850282127251
316.255753048731;471.49498600048
316.277379190867;471.13221229634
316.299005333003;470.761743600594
316.320631475139;470.403803497074
316.342257617275;470.081900538166
316.363883759411;469.80270667939
316.385509901547;469.555868099388
316.407136043682;469.337296222064
316.428762185818;469.15232837218
316.450388327954;468.996045105855
316.47201447009;468.84884901307
316.493640612226;468.693617570206
316.515266754362;468.514923463081
316.536892896498;468.297466299697
316.558519038634;468.036888209565
316.58014518077;467.740698490882
316.601771322905;467.410444747627
316.623397465041;467.038638419753
316.645023607177;466.620697524907
316.666649749313;466.16686688332
316.688275891449;465.70609734844
316.709902033585;465.261909916183
316.731528175721;464.856434621712
316.753154317857;464.488784465981
316.774780459993;464.152590316903
316.796406602128;463.860650118269
316.818032744264;463.628914656782
316.8396588864;463.449519334103
316.861285028536;463.300169976512
316.882911170672;463.16713419495
316.904537312808;463.055087700052
316.926163454944;462.966331348451
316.94778959708;462.879334416832
316.969415739216;462.780802503912
316.991041881351;462.665330428573
317.012668023487;462.529829448028
317.034294165623;462.374020645343
317.055920307759;462.196738960415
317.077546449895;462.004299928311
317.099172592031;461.802402252091
317.120798734167;461.581446939309
317.142424876303;461.338588137892
317.164051018439;461.08162406978
317.185677160574;460.810293452908
317.20730330271;460.517821837538
317.228929444846;460.198890831662
317.250555586982;459.848467154468
317.272181729118;459.439486844102
317.293807871254;458.949455850453
317.31543401339;458.399788077822
317.337060155526;457.802595464557
317.358686297662;457.142452947944
317.380312439797;456.40555166108
317.401938581933;455.592209771026
317.423564724069;454.72575154061
317.445190866205;453.827448982461
317.466817008341;452.881298231303
317.488443150477;451.846671174421
317.510069292613;450.73669877618
317.531695434749;449.582942895081
317.553321576885;448.400631904716
317.574947719021;447.188030744617
317.596573861156;445.922466785416
317.618200003292;444.578862801098
317.639826145428;443.200042751609
317.661452287564;441.794831534916
317.6830784297;440.359029753173
317.704704571836;438.908728416507
317.726330713972;437.476856357597
317.747956856108;436.080140009006
317.769582998244;434.709422761022
317.791209140379;433.345410391754
317.812835282515;431.998662168884
317.834461424651;430.723646240775
317.856087566787;429.558618441094
317.877713708923;428.498924944797
317.899339851059;427.550781971567
317.920965993195;426.723529682484
317.942592135331;426.014856813045
317.964218277467;425.410368280634
317.985844419602;424.892659759449
318.007470561738;424.458207738382
318.029096703874;424.109946317698
318.05072284601;423.826815777717
318.072348988146;423.589092564948
318.093975130282;423.389065811967
318.115601272418;423.223257763956
318.137227414554;423.08460547026
318.15885355669;422.96445004343
318.180479698825;422.854207545168
318.202105840961;422.744803354057
318.223731983097;422.630702424765
318.245358125233;422.513787445425
318.266984267369;422.392628419074
318.288610409505;422.252528557393
318.310236551641;422.087448975043
318.331862693777;421.91010981245
318.353488835913;421.739218778153
318.375114978048;421.579711878514
318.396741120184;421.424645364704
318.41836726232;421.279203459264
318.439993404456;421.157113549936
318.461619546592;421.060014949327
318.483245688728;420.988418869055
318.504871830864;420.942834084687
318.526497973;420.919963496096
318.548124115136;420.912223990924
318.569750257271;420.90941833988
318.591376399407;420.901143836842
318.613002541543;420.880516329503
318.634628683679;420.843452598712
318.656254825815;420.782737306325
318.677880967951;420.68583483782
318.699507110087;420.544737280198
318.721133252223;420.359562594115
318.742759394359;420.12067104363
318.764385536495;419.81886536095
318.78601167863;419.448884091263
318.807637820766;419.020538698229
318.829263962902;418.562261396087
318.850890105038;418.087824262385
318.872516247174;417.596918122669
318.89414238931;417.082299278182
318.915768531446;416.532762218838
318.937394673582;415.967260625751
318.959020815718;415.426880478511
318.980646957853;414.910970538697
319.002273099989;414.404889471824
319.023899242125;413.912545517311
319.045525384261;413.436100433893
319.067151526397;412.985428730944
319.088777668533;412.568172389252
319.110403810669;412.16036608114
319.132029952805;411.742843908587
319.153656094941;411.30133706795
319.175282237076;410.841421337354
319.196908379212;410.382406106508
319.218534521348;409.910933358623
319.240160663484;409.405790201009
319.26178680562;408.866554010085
319.283412947756;408.284550349726
319.305039089892;407.651133845792
319.326665232028;406.987279326428
319.348291374164;406.320654730485
319.369917516299;405.652146095103
319.391543658435;404.973985264939
319.413169800571;404.3008455541
319.434795942707;403.686773846545
319.456422084843;403.149098147121
319.478048226979;402.694144362121
319.499674369115;402.311659561544
319.521300511251;402.002815874148
319.542926653387;401.752677287652
319.564552795523;401.562292543296
319.586178937658;401.417132555572
319.607805079794;401.302401968877
319.62943122193;401.207835757609
319.651057364066;401.121536933374
319.672683506202;401.037308178728
319.694309648338;400.941788616981
319.715935790474;400.820236065327
319.73756193261;400.659630711371
319.759188074746;400.459755831625
319.780814216881;400.233945055522
319.802440359017;399.987383057814
319.824066501153;399.72645996998
319.845692643289;399.468970027254
319.867318785425;399.218158372369
319.888944927561;398.967020696206
319.910571069697;398.709989757722
319.932197211833;398.466158955169
319.953823353969;398.251358349923
319.975449496104;398.083529542824
319.99707563824;397.977917066565
320.018701780376;397.939048663868
320.040327922512;397.963803261637
320.061954064648;398.044832636196
320.083580206784;398.172899474055
320.10520634892;398.347814022735
320.126832491056;398.575115280435
320.148458633192;398.846622990402
320.170084775327;399.147954480801
320.191710917463;399.47367553576
320.213337059599;399.804438216673
320.234963201735;400.121336523328
320.256589343871;400.41776801363
320.278215486007;400.677576306659
320.299841628143;400.85368140372
320.321467770279;400.911828811335
320.343093912415;400.840792490363
320.36472005455;400.641132741331
320.386346196686;400.312699094925
320.407972338822;399.82851061017
320.429598480958;399.144972419878
320.451224623094;398.269990599863
320.47285076523;397.236343670134
320.494476907366;396.077442943647
320.516103049502;394.799205209676
320.537729191638;393.378754383251
320.559355333774;391.861521073056
320.580981475909;390.324607291569
320.602607618045;388.789082141371
320.624233760181;387.271776398918
320.645859902317;385.833343188557
320.667486044453;384.507824719197
320.689112186589;383.253302242087
320.710738328725;382.062048720299
320.732364470861;380.97584369
320.753990612997;380.004677608189
320.775616755132;379.104799711632
320.797242897268;378.232859124509
320.818869039404;377.3786151715
320.84049518154;376.541264949115
320.862121323676;375.702041739981
320.883747465812;374.844486475198
320.905373607948;373.961961323801
320.926999750084;373.030508085693
320.94862589222;371.996366191008
320.970252034355;370.823914451578
320.991878176491;369.531023334562
321.013504318627;368.181406156072
321.035130460763;366.825411604005
321.056756602899;365.431310815441
321.078382745035;363.958249495882
321.100008887171;362.40980199361
321.121635029307;360.824599941561
321.143261171443;359.247626290877
321.164887313578;357.685567364047
321.186513455714;356.161327630029
321.20813959785;354.682409713366
321.229765739986;353.259082530073
321.251391882122;351.954271275424
321.273018024258;350.837501240181
321.294644166394;349.925537601659
321.31627030853;349.200618161994
321.337896450666;348.6591054281
321.359522592801;348.308939155327
321.381148734937;348.150289929853
321.402774877073;348.154765257091
321.424401019209;348.284105878522
321.446027161345;348.512731903685
321.467653303481;348.818683308472
321.489279445617;349.170849191334
321.510905587753;349.537246518205
321.532531729889;349.879030610521
321.554157872024;350.17461243307
321.57578401416;350.410369324889
321.597410156296;350.573302327271
321.619036298432;350.677349504784
321.640662440568;350.740385152183
321.662288582704;350.762949064781
321.68391472484;350.752797795214
321.705540866976;350.728759313565
321.727167009112;350.709968217737
321.748793151248;350.713514166302
321.770419293383;350.742204830671
321.792045435519;350.790448137918
321.813671577655;350.863198540736
321.835297719791;350.971614552025
321.856923861927;351.115246570132
321.878550004063;351.271202368558
321.900176146199;351.418175377552
321.921802288335;351.547710951585
321.943428430471;351.662640600728
321.965054572606;351.762990909863
321.986680714742;351.840839707426
322.008306856878;351.888743540435
322.029932999014;351.898023641996
322.05155914115;351.858835717024
322.073185283286;351.7651647663
322.094811425422;351.623005979683
322.116437567558;351.444760330837
322.138063709694;351.232291735045
322.159689851829;350.978889039537
322.181315993965;350.687961386006
322.202942136101;350.368987120616
322.224568278237;350.01745295398
322.246194420373;349.627993352186
322.267820562509;349.206748370362
322.289446704645;348.763931274203
322.311072846781;348.302919746293
322.332698988917;347.821652899316
322.354325131052;347.310397254759
322.375951273188;346.7458363985
322.397577415324;346.110513865836
322.41920355746;345.442915554079
322.440829699596;344.769388334569
322.462455841732;344.077505711186
322.484081983868;343.347075549373
322.505708126004;342.574413902027
322.52733426814;341.788656642553
322.548960410275;341.003903797721
322.570586552411;340.206388148148
322.592212694547;339.38069366948
322.613838836683;338.543877308332
322.635464978819;337.713042697007
322.657091120955;336.910710635958
322.678717263091;336.145047413644
322.700343405227;335.427410503071
322.721969547363;334.743872865741
322.743595689498;334.076060325766
322.765221831634;333.438106342985
322.78684797377;332.851807273001
322.808474115906;332.300892468215
322.830100258042;331.734292172024
322.851726400178;331.151154584619
322.873352542314;330.586760393846
322.89497868445;330.049694428422
322.916604826586;329.520391748869
322.938230968721;328.984507475281
322.959857110857;328.430898331581
322.981483252993;327.851671218869
323.003109395129;327.235101281796
323.024735537265;326.57305332133
323.046361679401;325.873962755974
323.067987821537;325.164138376944
323.089613963673;324.461557348628
323.111240105809;323.765973385414
323.132866247945;323.06539424246
323.15449239008;322.335495203171
323.176118532216;321.559357246023
323.197744674352;320.75181673255
323.219370816488;319.950819040791
323.240996958624;319.156925706938
323.26262310076;318.361376630333
323.284249242896;317.543917330133
323.305875385032;316.700744552986
323.327501527168;315.802555964713
323.349127669303;314.845929493497
323.370753811439;313.866113377033
323.392379953575;312.918964003735
323.414006095711;312.001411074547
323.435632237847;311.081821514432
323.457258379983;310.180016190123
323.478884522119;309.335915690039
323.500510664255;308.582551485314
323.522136806391;307.908269668184
323.543762948526;307.284365543196
323.565389090662;306.713512837562
323.587015232798;306.203544905592
323.608641374934;305.745472674074
323.63026751707;305.326562038137
323.651893659206;304.928668717823
323.673519801342;304.525734207744
323.695145943478;304.109498767629
323.716772085614;303.690683031146
323.738398227749;303.267386916342
323.760024369885;302.825592624019
323.781650512021;302.362675390225
323.803276654157;301.879873931603
323.824902796293;301.382414382184
323.846528938429;300.877684516714
323.868155080565;300.361126652993
323.889781222701;299.823423618589
323.911407364837;299.266994692172
323.933033506972;298.697103865518
323.954659649108;298.106974898274
323.976285791244;297.502107189525
323.99791193338;296.915414737465
324.019538075516;296.342801668011
324.041164217652;295.741598083787
324.062790359788;295.0988430411
324.084416501924;294.483573889914
324.10604264406;293.940138351485
324.127668786196;293.442475412038
324.149294928331;292.963453693865
324.170921070467;292.509622788049
324.192547212603;292.103374253203
324.214173354739;291.74272846236
324.235799496875;291.409340678939
324.257425639011;291.106820730151
324.279051781147;290.832852163523
324.300677923283;290.554179187173
324.322304065419;290.244952329742
324.343930207554;289.901840809068
324.36555634969;289.537010295249
324.387182491826;289.148173588522
324.408808633962;288.720174648942
324.430434776098;288.228448541462
324.452060918234;287.652824720881
324.47368706037;286.982277917136
324.495313202506;286.214776132591
324.516939344642;285.350440869105
324.538565486777;284.397349775018
324.560191628913;283.364237822764
324.581817771049;282.218282057978
324.603443913185;280.939916876058
324.625070055321;279.587559850723
324.646696197457;278.215954629643
324.668322339593;276.838882126105
324.689948481729;275.450826314542
324.711574623865;274.034282441574
324.733200766;272.577736454524
324.754826908136;271.08330619988
324.776453050272;269.533838316747
324.798079192408;267.934705625539
