Name;ESR_BC_1_3600s_Z_gon_160dg_result

Recipe
Accumulations;5;Number of accumulations
RetryCount;0;Number of retries on error
AbortOnError;True;Abort on error
EnableQFactorMeasurement;False;Enable/Disable q-Factor measurement
Bfrom;313;B from
Bto;363;B to
SweepTime;60;Sweep time
Modulation;0.2;Modulation
ModulationFreq;100;Modulation
BHoldEnabled;False;B hold enabled
BHold;0;B hold
MicrowavePower;2;Microwave power
MarkerEnabled;False;
MarkerStartField;0;
MarkerEndField;0;
Mode;;
KineticGFact;0;
KineticTotalTransientTime;0;
KineticTimeResolution;0;
TempFrom;5;
TempUseSlope;False;
TempTo;5;
TempdT;1;
TempSetupTime;0;
GonFrom;0;
GonTo;180;
GonSteps;20;
XRayEnabled;False;
XRayTime;3;
XRayVoltage;40;
XRayCurrent;0.5;
UVEnabled;False;
UVIntensity;0;
UVTime;0;
UVLeadTime;0;
UVWavelength;0;
PowSweepFrom;1;
PowSweepTo;5;
PowSweepSteps;5;
AmpModSweepFrom;0;
AmpModSweepTo;1;
AmpModSweepSteps;10;
ExtTriggerEnabled;False;
ExtTrigLeadTime;0;
ExtTrigOnTime;5;

Meas
BField [mT];MW_Absorption []
313.02217376709;81.5155524540519
313.043797680215;81.0081462945666
313.06542159334;80.5908873484029
313.087045506465;80.2945119496216
313.10866941959;80.1168621434412
313.130293332715;80.0420204471968
313.15191724584;80.0642419044732
313.173541158965;80.1839038712875
313.19516507209;80.4070751816657
313.216788985215;80.7222747905892
313.23841289834;81.1137257988403
313.260036811465;81.575428121835
313.28166072459;82.0810678527929
313.303284637715;82.5920683118867
313.32490855084;83.1141254763146
313.346532463965;83.6547394937007
313.368156377091;84.1857988135563
313.389780290216;84.6780201038168
313.411404203341;85.1384709411047
313.433028116466;85.5674677823669
313.454652029591;85.9669874184759
313.476275942716;86.3448375035766
313.497899855841;86.700247885787
313.519523768966;87.036381741165
313.541147682091;87.3611110724195
313.562771595216;87.6693109836961
313.584395508341;87.9546964594257
313.606019421466;88.2215721896904
313.627643334591;88.4644018637328
313.649267247716;88.6635024713118
313.670891160841;88.7963094116749
313.692515073966;88.8603772514518
313.714138987091;88.8586039153271
313.735762900216;88.7921832871919
313.757386813341;88.6583887107896
313.779010726466;88.4475644473437
313.800634639591;88.1639518780951
313.822258552716;87.8271273234938
313.843882465841;87.4511837321545
313.865506378966;87.0386940118831
313.887130292092;86.6016935503855
313.908754205217;86.1618693344945
313.930378118342;85.7235836250382
313.952002031467;85.2954594644266
313.973625944592;84.8978054331719
313.995249857717;84.5455551716801
314.016873770842;84.2475904916657
314.038497683967;84.0020767414785
314.060121597092;83.7983407183044
314.081745510217;83.6303205602895
314.103369423342;83.4912330593557
314.124993336467;83.3688708324809
314.146617249592;83.2517833302422
314.168241162717;83.1313574323329
314.189865075842;83.0029133498441
314.211488988967;82.864960246906
314.233112902092;82.7153687412616
314.254736815217;82.5604213200569
314.276360728342;82.4110623620507
314.297984641467;82.2684498621237
314.319608554592;82.1309422689628
314.341232467717;82.003191581782
314.362856380842;81.8981797235962
314.384480293968;81.8356460815775
314.406104207093;81.8345819780584
314.427728120218;81.8924986605218
314.449352033343;81.9996030606468
314.470975946468;82.1414101006638
314.492599859593;82.3067948266655
314.514223772718;82.5074174986507
314.535847685843;82.7452911702055
314.557471598968;82.9757601719542
314.579095512093;83.1852693317797
314.600719425218;83.3792005999812
314.622343338343;83.5580320296161
314.643967251468;83.7149683013874
314.665591164593;83.8492361368338
314.687215077718;83.9625016890735
314.708838990843;84.0559699088002
314.730462903968;84.1238753390953
314.752086817093;84.1554395745996
314.773710730218;84.1529533433921
314.795334643343;84.1161305357998
314.816958556468;84.0430487345763
314.838582469593;83.9332635729948
314.860206382718;83.8042134261836
314.881830295843;83.6429465830245
314.903454208969;83.4416433777428
314.925078122094;83.2051493664602
314.946702035219;82.9386833200482
314.968325948344;82.6384501031042
314.989949861469;82.3000391999728
315.011573774594;81.9236056063272
315.033197687719;81.5170881061372
315.054821600844;81.1048307668169
315.076445513969;80.7097965248038
315.098069427094;80.3294815084452
315.119693340219;79.9483082094202
315.141317253344;79.561913342003
315.162941166469;79.1875331112095
315.184565079594;78.842586984798
315.206188992719;78.5240650996462
315.227812905844;78.2300906146181
315.249436818969;77.9559212446814
315.271060732094;77.6920569571942
315.292684645219;77.4253434815226
315.314308558344;77.1512810860918
315.335932471469;76.879652726088
315.357556384594;76.6289810742637
315.379180297719;76.4020921865516
315.400804210845;76.2003938645527
315.42242812397;76.027712833857
315.444052037095;75.8828725828864
315.46567595022;75.7706823343279
315.487299863345;75.7032495691657
315.50892377647;75.687021611986
315.530547689595;75.7202723172148
315.55217160272;75.789777042814
315.573795515845;75.8850001528485
315.59541942897;76.0084122971067
315.617043342095;76.1515382787427
315.63866725522;76.3003509438964
315.660291168345;76.4481448307801
315.68191508147;76.5937878567616
315.703538994595;76.7234973268557
315.72516290772;76.8202245593016
315.746786820845;76.8901398146783
315.76841073397;76.9465171175708
315.790034647095;77.00321349292
315.81165856022;77.0685996249443
315.833282473345;77.1431447090738
315.85490638647;77.2387319389259
315.876530299595;77.3722675803157
315.89815421272;77.5533191599114
315.919778125845;77.7845709405084
315.941402038971;78.0623647935303
315.963025952096;78.3795377911629
315.984649865221;78.7194608152226
316.006273778346;79.0660251889757
316.027897691471;79.4162389660077
316.049521604596;79.7696101230991
316.071145517721;80.1036765750817
316.092769430846;80.396248000659
316.114393343971;80.6482526887529
316.136017257096;80.8496532690313
316.157641170221;80.9791884368584
316.179265083346;81.0430946109836
316.200888996471;81.0560807557953
316.222512909596;81.0130816965165
316.244136822721;80.8928966680541
316.265760735846;80.6979614818154
316.287384648971;80.4385275214363
316.309008562096;80.1165903902489
316.330632475221;79.7262736418601
316.352256388346;79.2701502757414
316.373880301471;78.7724582921774
316.395504214596;78.2577595033651
316.417128127721;77.7262518840261
316.438752040847;77.1665080923565
316.460375953972;76.5763086106511
316.481999867097;75.9920622463092
316.503623780222;75.4612436844435
316.525247693347;74.9965167838954
316.546871606472;74.6054943543199
316.568495519597;74.2996953390336
316.590119432722;74.0712724149634
316.611743345847;73.9198098546771
316.633367258972;73.8561219956727
316.654991172097;73.8854129332044
316.676615085222;74.0008463659726
316.698238998347;74.183280005276
316.719862911472;74.4072624795788
316.741486824597;74.6494714302161
316.763110737722;74.8946628212312
316.784734650847;75.1222131198397
316.806358563972;75.3131890115702
316.827982477097;75.4685112926574
316.849606390222;75.5824589177303
316.871230303347;75.6435022018787
316.892854216472;75.650596287151
316.914478129597;75.6132416816377
316.936102042723;75.5436494099412
316.957725955848;75.4566889038936
316.979349868973;75.3701343324626
317.000973782098;75.293512952903
317.022597695223;75.2344785909483
317.044221608348;75.2072612330308
317.065845521473;75.2269211295879
317.087469434598;75.2959963097121
317.109093347723;75.4044555259804
317.130717260848;75.5413016339891
317.152341173973;75.7054216398875
317.173965087098;75.8870325589631
317.195589000223;76.0670656960938
317.217212913348;76.2324987406143
317.238836826473;76.3887242656374
317.260460739598;76.5425935830265
317.282084652723;76.6952934279752
317.303708565848;76.8452493485437
317.325332478973;76.9976531468474
317.346956392098;77.155359830909
317.368580305223;77.3169583790026
317.390204218348;77.4835266485535
317.411828131473;77.6534712819942
317.433452044598;77.8330547792543
317.455075957724;78.0251536274892
317.476699870849;78.2146160400943
317.498323783974;78.3893154788625
317.519947697099;78.5502978613939
317.541571610224;78.6988981183739
317.563195523349;78.831387747852
317.584819436474;78.9434209849991
317.606443349599;79.0407040119879
317.628067262724;79.1352293167368
317.649691175849;79.2350812051812
317.671315088974;79.3420150255065
317.692939002099;79.460525850586
317.714562915224;79.6022172780141
317.736186828349;79.7650839000136
317.757810741474;79.9410349730608
317.779434654599;80.1263128029573
317.801058567724;80.3148831003795
317.822682480849;80.5040487041234
317.844306393974;80.696205984536
317.865930307099;80.8939029549653
317.887554220224;81.0938716584029
317.909178133349;81.2865656681689
317.930802046474;81.4654742713514
317.9524259596;81.6165821415612
317.974049872725;81.7393950069084
317.99567378585;81.8456021713375
318.017297698975;81.9370479608213
318.0389216121;82.0064423667075
318.060545525225;82.0475479114516
318.08216943835;82.0560404745922
318.103793351475;82.02981877948
318.1254172646;81.975004692761
318.147041177725;81.8877449711437
318.16866509085;81.7557649217478
318.190289003975;81.5765708631027
318.2119129171;81.3508906121341
318.233536830225;81.0810848257015
318.25516074335;80.7716075406709
318.276784656475;80.4218291531103
318.2984085696;80.0313806586126
318.320032482725;79.614791169928
318.34165639585;79.1836885555258
318.363280308975;78.7456736783413
318.3849042221;78.3249214550729
318.406528135225;77.9483943086333
318.42815204835;77.6115987971099
318.449775961475;77.3048518682853
318.4713998746;77.0441086863577
318.493023787726;76.8449527378868
318.514647700851;76.6978192369257
318.536271613976;76.5901387481563
318.557895527101;76.5141526506811
318.579519440226;76.4597330433332
318.601143353351;76.4197887714406
318.622767266476;76.390386644752
318.644391179601;76.3688135086579
318.666015092726;76.3544168228801
318.687639005851;76.3361741739465
318.709262918976;76.2987017559728
318.730886832101;76.242315509098
318.752510745226;76.1712357258668
318.774134658351;76.0869637034593
318.795758571476;75.9889636413061
318.817382484601;75.8751118785198
318.839006397726;75.7402259943062
318.860630310851;75.5936341637949
318.882254223976;75.456678478927
318.903878137101;75.3351462003385
318.925502050226;75.2270003985334
318.947125963351;75.1376362395535
318.968749876476;75.0704184280309
318.990373789602;75.025763681484
319.011997702727;75.0184966878367
319.033621615852;75.0576855778287
319.055245528977;75.1352490546594
319.076869442102;75.2405603581141
319.098493355227;75.3648411750048
319.120117268352;75.4987001220312
319.141741181477;75.6226472747363
319.163365094602;75.7353083785899
319.184989007727;75.8311514412017
319.206612920852;75.8973966170155
319.228236833977;75.9294069883299
319.249860747102;75.9359825264852
319.271484660227;75.9152561307115
319.293108573352;75.8531773764333
319.314732486477;75.7459532085541
319.336356399602;75.6160431753114
319.357980312727;75.4780951855454
319.379604225852;75.3496260241053
319.401228138977;75.2448704945356
319.422852052102;75.1716586420075
319.444475965227;75.1326230858857
319.466099878352;75.1309852123771
319.487723791477;75.1712562868697
319.509347704603;75.2478698413063
319.530971617728;75.3549533240577
319.552595530853;75.4714391220695
319.574219443978;75.5695590414918
319.595843357103;75.6391564663861
319.617467270228;75.6659860390987
319.639091183353;75.6332576636384
319.660715096478;75.5401825908058
319.682339009603;75.3918147310099
319.703962922728;75.1852739131673
319.725586835853;74.9126036926146
319.747210748978;74.5829259316456
319.768834662103;74.214900700478
319.790458575228;73.8151511622878
319.812082488353;73.3863442842234
319.833706401478;72.9344021608233
319.855330314603;72.4538445514398
319.876954227728;71.942018578827
319.898578140853;71.4098941879713
319.920202053978;70.8812091768945
319.941825967103;70.3719610722271
319.963449880228;69.8805993803568
319.985073793353;69.4107812271793
320.006697706479;68.9821665563316
320.028321619604;68.613853760557
320.049945532729;68.3204731132023
320.071569445854;68.1073251727811
320.093193358979;67.9722098291118
320.114817272104;67.9147399817072
320.136441185229;67.9381336337288
320.158065098354;68.0407016433925
320.179689011479;68.219382576186
320.201312924604;68.4638516702371
320.222936837729;68.7622982734612
320.244560750854;69.0908889230996
320.266184663979;69.4230196078647
320.287808577104;69.7355564139518
320.309432490229;70.0089690237272
320.331056403354;70.2361164627054
320.352680316479;70.4176258111379
320.374304229604;70.5498582416464
320.395928142729;70.6400396283274
320.417552055854;70.7007141339044
320.439175968979;70.741425153277
320.460799882104;70.7617697927094
320.482423795229;70.7669067937935
320.504047708354;70.7677791229643
320.525671621479;70.7732985193749
320.547295534605;70.7862573940111
320.56891944773;70.8206540183987
320.590543360855;70.8926488182838
320.61216727398;71.0056238320595
320.633791187105;71.1464061989908
320.65541510023;71.2967938980702
320.677039013355;71.4574794589717
320.69866292648;71.6363402572939
320.720286839605;71.8390249612221
320.74191075273;72.0644819408354
320.763534665855;72.3036557516906
320.78515857898;72.5467119358786
320.806782492105;72.7871259001377
320.82840640523;73.0132481510843
320.850030318355;73.2118080578498
320.87165423148;73.3801107132415
320.893278144605;73.5228899600581
320.91490205773;73.6400790112866
320.936525970855;73.7151927273024
320.95814988398;73.7337542629683
320.979773797105;73.7014027239804
321.00139771023;73.6265893307636
321.023021623355;73.5114612632456
321.044645536481;73.3543597867575
321.066269449606;73.1559319509363
321.087893362731;72.9182077096852
321.109517275856;72.6437140577081
321.131141188981;72.3390075721809
321.152765102106;72.0128611488827
321.174389015231;71.6677810954272
321.196012928356;71.3045396128797
321.217636841481;70.9354435876714
321.239260754606;70.5769251788177
321.260884667731;70.2329298525805
321.282508580856;69.8970193505929
321.304132493981;69.5671547070342
321.325756407106;69.2521389395194
321.347380320231;68.9648912712475
321.369004233356;68.7059889078884
321.390628146481;68.4777168703428
321.412252059606;68.2781151818719
321.433875972731;68.1009266996844
321.455499885856;67.9392549562528
321.477123798981;67.7988480469137
321.498747712106;67.6876759206095
321.520371625231;67.5996441752973
321.541995538357;67.5091445723275
321.563619451482;67.3957346578316
321.585243364607;67.2470539256368
321.606867277732;67.0625565238679
321.628491190857;66.8394508280641
321.650115103982;66.5567482447184
321.671739017107;66.2066772364259
321.693362930232;65.7911629200265
321.714986843357;65.3152956826704
321.736610756482;64.8057587961503
321.758234669607;64.282658031251
321.779858582732;63.7368984791799
321.801482495857;63.165025150952
321.823106408982;62.5874023245628
321.844730322107;62.012255259373
321.866354235232;61.470236927783
321.887978148357;60.9648181627485
321.909602061482;60.4979568498243
321.931225974607;60.0864007392541
321.952849887732;59.7358040647661
321.974473800857;59.4431878734471
321.996097713982;59.2088618848723
322.017721627107;59.0403251191988
322.039345540232;58.9252477662021
322.060969453358;58.863775479671
322.082593366483;58.8549011558279
322.104217279608;58.9003280043175
322.125841192733;58.9996048968684
322.147465105858;59.1333154165748
322.169089018983;59.2870557332861
322.190712932108;59.4615375553214
322.212336845233;59.6565677593551
322.233960758358;59.8641138066706
322.255584671483;60.0653420561832
322.277208584608;60.25435849932
322.298832497733;60.4342636025461
322.320456410858;60.5972723189241
322.342080323983;60.7355582611865
322.363704237108;60.8497284461204
322.385328150233;60.9461650679563
322.406952063358;61.0262490402955
322.428575976483;61.0877284213304
322.450199889608;61.1332568861179
322.471823802733;61.1569828564817
322.493447715858;61.1518460266244
322.515071628983;61.1232850667435
322.536695542108;61.0803155166003
322.558319455233;61.0210463546046
322.579943368359;60.9508797004605
322.601567281484;60.8772384060556
322.623191194609;60.8081268976727
322.644815107734;60.7558164377206
322.666439020859;60.7156001139246
322.688062933984;60.6851471749841
322.709686847109;60.6724496868943
322.731310760234;60.6815679476238
322.752934673359;60.6956131714645
322.774558586484;60.7066233183094
322.796182499609;60.706172931306
322.817806412734;60.6811244605588
322.839430325859;60.6221827803149
322.861054238984;60.525564225404
322.882678152109;60.3919168262147
322.904302065234;60.2225966512747
322.925925978359;60.0240687398973
322.947549891484;59.8039366401546
322.969173804609;59.5596070306947
322.990797717734;59.3014578135229
323.012421630859;59.0471342541448
323.034045543984;58.8040354129908
323.055669457109;58.5818103161629
323.077293370234;58.3937914765297
323.09891728336;58.2530510909147
323.120541196485;58.1677839443988
323.14216510961;58.1424534990729
323.163789022735;58.1801452082574
323.18541293586;58.2766093526527
323.207036848985;58.4265019757757
323.22866076211;58.6202548589748
323.250284675235;58.8504685753026
323.27190858836;59.1107593494145
323.293532501485;59.3939035082923
323.31515641461;59.6856828936653
323.336780327735;59.9551849335175
323.35840424086;60.2011793398219
323.380028153985;60.4291258513353
323.40165206711;60.6305418783319
323.423275980235;60.7950680833434
323.44489989336;60.9281604865792
323.466523806485;61.0390294031586
323.48814771961;61.1408362953653
323.509771632735;61.2408959913592
323.53139554586;61.3410963035555
323.553019458985;61.4421444187031
323.57464337211;61.5509463481266
323.596267285236;61.6715880917645
323.617891198361;61.8002272106332
323.639515111486;61.9218911134235
323.661139024611;62.0343009667957
323.682762937736;62.1358999172518
323.704386850861;62.2222248958555
323.726010763986;62.2813794134943
323.747634677111;62.3046168769911
323.769258590236;62.2861436945347
323.790882503361;62.2244932296888
323.812506416486;62.1407758453025
323.834130329611;62.0375995479045
323.855754242736;61.9103176748918
323.877378155861;61.7668190584418
323.899002068986;61.6169719905674
323.920625982111;61.4628300105585
323.942249895236;61.2984105298147
323.963873808361;61.1141108009584
323.985497721486;60.9004111903716
324.007121634611;60.6586819197852
324.028745547736;60.3865766245881
324.050369460861;60.0748789857423
324.071993373986;59.7038260357185
324.093617287112;59.2597842672805
324.115241200237;58.7570132752595
324.136865113362;58.2105067483581
324.158489026487;57.6312822511217
324.180112939612;57.016681012269
324.201736852737;56.3563330888606
324.223360765862;55.6748759694202
324.244984678987;55.0052916945973
324.266608592112;54.3499113468855
324.288232505237;53.7073856865892
324.309856418362;53.0867229346636
324.331480331487;52.5105531370198
324.353104244612;51.9977892969296
324.374728157737;51.5778983773175
324.396352070862;51.2467608247877
324.417975983987;50.9789187432943
324.439599897112;50.7673452085006
324.461223810237;50.6357703547468
324.482847723362;50.5787536991577
324.504471636487;50.604567428011
324.526095549612;50.7098109612769
324.547719462737;50.8815999888711
324.569343375862;51.1084366219203
324.590967288987;51.3899221119307
324.612591202113;51.7274973556784
324.634215115238;52.0996798868598
324.655839028363;52.4833601792859
324.677462941488;52.8659297358295
324.699086854613;53.2463403390853
324.720710767738;53.6145603849436
324.742334680863;53.9504975383619
324.763958593988;54.241588912342
