Name;ESR_BC_1_3600s_X_gon_40dg_result

Recipe
Accumulations;5;Number of accumulations
RetryCount;0;Number of retries on error
AbortOnError;True;Abort on error
EnableQFactorMeasurement;False;Enable/Disable q-Factor measurement
Bfrom;313;B from
Bto;363;B to
SweepTime;60;Sweep time
Modulation;0.2;Modulation
ModulationFreq;100;Modulation
BHoldEnabled;False;B hold enabled
BHold;0;B hold
MicrowavePower;2;Microwave power
MarkerEnabled;False;
MarkerStartField;0;
MarkerEndField;0;
Mode;;
KineticGFact;0;
KineticTotalTransientTime;0;
KineticTimeResolution;0;
TempFrom;5;
TempUseSlope;False;
TempTo;5;
TempdT;1;
TempSetupTime;0;
GonFrom;0;
GonTo;180;
GonSteps;20;
XRayEnabled;False;
XRayTime;3;
XRayVoltage;40;
XRayCurrent;0.5;
UVEnabled;False;
UVIntensity;0;
UVTime;0;
UVLeadTime;0;
UVWavelength;0;
PowSweepFrom;1;
PowSweepTo;5;
PowSweepSteps;5;
AmpModSweepFrom;0;
AmpModSweepTo;1;
AmpModSweepSteps;10;
ExtTriggerEnabled;False;
ExtTrigLeadTime;0;
ExtTrigOnTime;5;

Meas
BField [mT];MW_Absorption []
313.016032791138;615.384374461558
313.037657070474;614.794545170879
313.05928134981;614.197090090382
313.080905629146;613.613788397148
313.102529908482;613.045551297223
313.124154187818;612.469409617138
313.145778467154;611.86067574872
313.16740274649;611.230318408228
313.189027025826;610.604929736078
313.210651305162;609.986674389847
313.232275584498;609.340572041025
313.253899863834;608.652873142621
313.275524143169;607.958279449411
313.297148422505;607.254750796159
313.318772701841;606.518533739903
313.340396981177;605.753502273219
313.362021260513;604.993642137735
313.383645539849;604.244298070585
313.405269819185;603.472289780056
313.426894098521;602.664024386629
313.448518377857;601.842045784386
313.470142657193;601.032117666417
313.491766936529;600.231629999255
313.513391215865;599.432144645826
313.535015495201;598.625270808459
313.556639774537;597.799785654797
313.578264053873;596.963602414026
313.599888333209;596.103738924035
313.621512612545;595.212325354392
313.643136891881;594.333874765166
313.664761171217;593.500453645255
313.686385450553;592.696031126999
313.708009729889;591.894368426062
313.729634009225;591.083953474132
313.751258288561;590.260621116097
313.772882567897;589.397099263923
313.794506847233;588.46604968325
313.816131126569;587.494296740997
313.837755405905;586.49903672578
313.859379685241;585.445163264246
313.881003964577;584.306762948412
313.902628243913;583.087253736201
313.924252523249;581.819595811077
313.945876802585;580.504020387586
313.967501081921;579.211259263977
313.989125361257;577.990925161535
314.010749640593;576.826291958811
314.032373919929;575.704576754062
314.053998199265;574.656505892572
314.075622478601;573.678437149051
314.097246757937;572.756575969723
314.118871037273;571.8937142739
314.140495316609;571.099856080627
314.162119595945;570.388979964435
314.183743875281;569.738699756376
314.205368154617;569.104598781779
314.226992433953;568.455200604879
314.248616713289;567.792930914267
314.270240992625;567.126916196076
314.291865271961;566.44152874328
314.313489551297;565.719968913625
314.335113830633;564.96861500894
314.356738109968;564.184275385461
314.378362389304;563.369784506202
314.39998666864;562.536195424385
314.421610947976;561.707930053899
314.443235227312;560.917746176327
314.464859506648;560.16995628374
314.486483785984;559.448961926321
314.50810806532;558.767341392922
314.529732344656;558.156248895895
314.551356623992;557.604021497515
314.572980903328;557.09001913984
314.594605182664;556.595549423294
314.616229462;556.116169615502
314.637853741336;555.669133270419
314.659478020672;555.2603833852
314.681102300008;554.856981272958
314.702726579344;554.427516157407
314.72435085868;553.974648488335
314.745975138016;553.49549632399
314.767599417352;552.984077927844
314.789223696688;552.452793327061
314.810847976024;551.917037886044
314.83247225536;551.372144661525
314.854096534696;550.808338761503
314.875720814032;550.213545453255
314.897345093368;549.604955241025
314.918969372704;549.017810626384
314.94059365204;548.471102351767
314.962217931376;547.973278119986
314.983842210712;547.513834981843
315.005466490048;547.07960135186
315.027090769384;546.678651511061
315.04871504872;546.336558390152
315.070339328056;546.060249615359
315.091963607392;545.838865975008
315.113587886728;545.664772016302
315.135212166064;545.530857590627
315.1568364454;545.426588989335
315.178460724736;545.338841727711
315.200085004072;545.250385526649
315.221709283408;545.144295146524
315.243333562744;545.010631652889
315.26495784208;544.846155277975
315.286582121416;544.644175379983
315.308206400752;544.387446213527
315.329830680088;544.045489653949
315.351454959424;543.598931398705
315.373079238759;543.092411525424
315.394703518095;542.540027388712
315.416327797431;541.907013430008
315.437952076767;541.185588157196
315.459576356103;540.396819676363
315.481200635439;539.537238588539
315.502824914775;538.590141907466
315.524449194111;537.589232520751
315.546073473447;536.593482060961
315.567697752783;535.627071310813
315.589322032119;534.683168491849
315.610946311455;533.797147023995
315.632570590791;532.971603914384
315.654194870127;532.173798283451
315.675819149463;531.393874934492
315.697443428799;530.684180539924
315.719067708135;530.04387959959
315.740691987471;529.458598514143
315.762316266807;528.91172730291
315.783940546143;528.385211090543
315.805564825479;527.877805270552
315.827189104815;527.371889521587
315.848813384151;526.847557618495
315.870437663487;526.306308199572
315.892061942823;525.752633484465
315.913686222159;525.188839278497
315.935310501495;524.608180611658
315.956934780831;523.992688777745
315.978559060167;523.333247910698
316.000183339503;522.650248243657
316.021807618839;521.959093300796
316.043431898175;521.253381648759
316.065056177511;520.538520795356
316.086680456847;519.838899655282
316.108304736183;519.167853158
316.129929015519;518.554490586525
316.151553294855;518.011551099606
316.173177574191;517.521839935346
316.194801853527;517.059243239772
316.216426132863;516.608506884625
316.238050412199;516.170913865714
316.259674691535;515.750007811504
316.281298970871;515.331134399114
316.302923250207;514.905281427606
316.324547529543;514.475532916671
316.346171808879;514.04631119001
316.367796088215;513.621424290671
316.389420367551;513.205472046729
316.411044646887;512.795585422497
316.432668926223;512.38519100131
316.454293205558;511.967905040833
316.475917484894;511.543160037669
316.49754176423;511.120635963319
316.519166043566;510.704687208207
316.540790322902;510.284774090386
316.562414602238;509.842663980066
316.584038881574;509.386195005769
316.60566316091;508.923462213255
316.627287440246;508.438212587392
316.648911719582;507.939650218874
316.670535998918;507.434995570483
316.692160278254;506.927996626125
316.71378455759;506.438303192786
316.735408836926;505.953343387094
316.757033116262;505.464358556818
316.778657395598;504.98955991366
316.800281674934;504.524135644973
316.82190595427;504.045854131749
316.843530233606;503.533779860865
316.865154512942;502.999222750402
316.886778792278;502.447308549883
316.908403071614;501.863234876831
316.93002735095;501.277588258373
316.951651630286;500.710776898281
316.973275909622;500.145655153505
316.994900188958;499.580887305241
317.016524468294;499.038379272079
317.03814874763;498.507417340237
317.059773026966;497.970902706169
317.081397306302;497.443719719154
317.103021585638;496.957183479511
317.124645864974;496.514538049113
317.14627014431;496.103210264061
317.167894423646;495.710223587387
317.189518702982;495.326113464401
317.211142982318;494.952647023986
317.232767261654;494.601200532545
317.25439154099;494.269585805634
317.276015820326;493.939727054304
317.297640099662;493.593000165649
317.319264378998;493.238644774954
317.340888658334;492.883817289179
317.36251293767;492.518509897505
317.384137217006;492.130250661765
317.405761496342;491.727158531308
317.427385775678;491.325505538399
317.449010055014;490.915444728899
317.47063433435;490.491215457003
317.492258613686;490.077678168216
317.513882893022;489.669990180299
317.535507172357;489.256539551494
317.557131451693;488.83888008793
317.578755731029;488.401143881268
317.600380010365;487.922024941365
317.622004289701;487.381109949748
317.643628569037;486.766306093543
317.665252848373;486.098793213603
317.686877127709;485.38793278198
317.708501407045;484.608565669543
317.730125686381;483.744032162856
317.751749965717;482.821036102504
317.773374245053;481.882500777885
317.794998524389;480.932993720301
317.816622803725;479.95232370309
317.838247083061;478.940773516692
317.859871362397;477.949331651412
317.881495641733;477.010037226689
317.903119921069;476.097520364095
317.924744200405;475.201183387752
317.946368479741;474.358994806568
317.967992759077;473.594950336722
317.989617038413;472.896149437003
318.011241317749;472.239998286901
318.032865597085;471.618987099129
318.054489876421;471.036255101533
318.076114155757;470.491854958854
318.097738435093;469.98698122808
318.119362714429;469.523650150332
318.140986993765;469.104724743722
318.162611273101;468.735387063902
318.184235552437;468.413923608944
318.205859831773;468.130902594701
318.227484111109;467.883288623729
318.249108390445;467.669715627393
318.270732669781;467.483882915029
318.292356949117;467.309803487048
318.313981228453;467.131241327661
318.335605507789;466.947341275352
318.357229787125;466.764848380392
318.378854066461;466.569839210871
318.400478345797;466.349664123314
318.422102625133;466.101828408725
318.443726904469;465.820452348315
318.465351183805;465.494080780157
318.486975463141;465.123019185876
318.508599742477;464.727022975468
318.530224021813;464.301889873306
318.551848301149;463.843588387685
318.573472580485;463.372389120345
318.595096859821;462.893277312413
318.616721139156;462.4027682759
318.638345418492;461.900007718715
318.659969697828;461.388711582656
318.681593977164;460.88454480175
318.7032182565;460.399957945887
318.724842535836;459.92570447888
318.746466815172;459.443525492179
318.768091094508;458.9453549719
318.789715373844;458.411443405107
318.81133965318;457.848926301095
318.832963932516;457.266761961825
318.854588211852;456.680609371267
318.876212491188;456.098656005019
318.897836770524;455.515307176251
318.91946104986;454.923069791408
318.941085329196;454.306116998931
318.962709608532;453.666734022191
318.984333887868;453.044939373539
319.005958167204;452.472539097418
319.02758244654;451.922709746736
319.049206725876;451.377480035275
319.070831005212;450.834139008702
319.092455284548;450.29378532317
319.114079563884;449.762051545377
319.13570384322;449.230668573106
319.157328122556;448.683616418857
319.178952401892;448.120251796208
319.200576681228;447.57304982075
319.222200960564;447.067674207988
319.2438252399;446.609901533559
319.265449519236;446.19880047184
319.287073798572;445.805567378181
319.308698077908;445.417921679402
319.330322357244;445.05517445026
319.35194663658;444.713543496036
319.373570915916;444.377763335761
319.395195195252;444.045058730485
319.416819474588;443.704279965623
319.438443753924;443.340971763656
319.46006803326;442.963193903247
319.481692312596;442.580189421739
319.503316591932;442.200719682756
319.524940871268;441.823731027381
319.546565150604;441.428495061592
319.56818942994;440.996125951366
319.589813709276;440.535249154319
319.611437988612;440.049261105922
319.633062267948;439.54893578621
319.654686547284;439.025231878805
319.67631082662;438.457799205385
319.697935105955;437.864443386949
319.719559385291;437.291691390933
319.741183664627;436.744192745242
319.762807943963;436.199817750317
319.784432223299;435.651385899529
319.806056502635;435.114246961772
319.827680781971;434.600828374761
319.849305061307;434.121518748105
319.870929340643;433.683158466778
319.892553619979;433.300820943743
319.914177899315;432.981796706606
319.935802178651;432.720336607593
319.957426457987;432.513315239963
319.979050737323;432.354490316578
320.000675016659;432.243438410751
320.022299295995;432.178701219764
320.043923575331;432.153664558709
320.065547854667;432.162293039878
320.087172134003;432.213269200026
320.108796413339;432.297883843565
320.130420692675;432.405560003997
320.152044972011;432.530096132557
320.173669251347;432.673461495458
320.195293530683;432.837304243344
320.216917810019;433.011036228019
320.238542089355;433.174964917642
320.260166368691;433.314814601808
320.281790648027;433.419699246768
320.303414927363;433.475550486276
320.325039206699;433.452390501143
320.346663486035;433.305374195136
320.368287765371;433.011034702009
320.389912044707;432.567672278884
320.411536324043;431.95755358137
320.433160603379;431.116661112128
320.454784882715;429.989807460104
320.476409162051;428.636357097958
320.498033441387;427.148482623852
320.519657720723;425.524797142532
320.541282000059;423.736894156263
320.562906279395;421.816409465532
320.584530558731;419.871170611322
320.606154838067;418.008119348122
320.627779117403;416.281909431754
320.649403396739;414.703943214824
320.671027676075;413.255766211925
320.692651955411;411.923505954051
320.714276234747;410.750211962127
320.735900514083;409.769787137468
320.757524793419;408.978977842667
320.779149072754;408.362823210845
320.80077335209;407.887742318771
320.822397631426;407.500637801486
320.844021910762;407.155051922892
320.865646190098;406.811244503476
320.887270469434;406.430960045836
320.90889474877;405.994890002366
320.930519028106;405.485353142651
320.952143307442;404.877974660643
320.973767586778;404.163926570477
320.995391866114;403.339194732051
321.01701614545;402.394796549821
321.038640424786;401.34879014408
321.060264704122;400.239749705891
321.081888983458;399.06331683249
321.103513262794;397.814487032142
321.12513754213;396.51855739393
321.146761821466;395.219532056668
321.168386100802;393.924155137556
321.190010380138;392.620221440382
321.211634659474;391.327872032877
321.23325893881;390.069927497633
321.254883218146;388.862855039391
321.276507497482;387.730753429044
321.298131776818;386.69081210231
321.319756056154;385.749976832947
321.34138033549;384.899641966472
321.363004614826;384.13239240285
321.384628894162;383.463706445268
321.406253173498;382.910127579768
321.427877452834;382.473340797648
321.44950173217;382.127660146817
321.471126011506;381.846621309948
321.492750290842;381.608497396662
321.514374570178;381.413244183709
321.535998849514;381.259110469357
321.55762312885;381.13046656274
321.579247408186;381.001542202604
321.600871687522;380.862523508792
321.622495966858;380.713095233289
321.644120246194;380.545012028205
321.66574452553;380.342557426297
321.687368804866;380.100469085424
321.708993084202;379.824592689206
321.730617363538;379.513414607376
321.752241642874;379.164521431942
321.77386592221;378.775651091377
321.795490201545;378.333205259053
321.817114480882;377.825153298867
321.838738760217;377.273485599062
321.860363039553;376.703319992434
321.881987318889;376.119867495172
321.903611598225;375.505923972346
321.925235877561;374.84937886126
321.946860156897;374.144441506998
321.968484436233;373.438063714402
321.990108715569;372.760163731431
322.011732994905;372.090691340441
322.033357274241;371.418271858745
322.054981553577;370.76565025663
322.076605832913;370.16075079832
322.098230112249;369.600894484811
322.119854391585;369.080752740261
322.141478670921;368.607088680594
322.163102950257;368.175262557047
322.184727229593;367.768738986095
322.206351508929;367.374730803841
322.227975788265;366.996674322275
322.249600067601;366.627494201767
322.271224346937;366.246542348102
322.292848626273;365.838900874692
322.314472905609;365.39385850866
322.336097184945;364.898344747453
322.357721464281;364.336683843073
322.379345743617;363.701379221469
322.400970022953;362.975236788252
322.422594302289;362.123266845939
322.444218581625;361.166065288919
322.465842860961;360.139241397341
322.487467140297;359.076164385398
322.509091419633;358.00017069959
322.530715698969;356.924148670179
322.552339978305;355.842727476706
322.573964257641;354.734808674828
322.595588536977;353.606397368471
322.617212816313;352.494361760665
322.638837095649;351.455379412391
322.660461374985;350.510465367694
322.682085654321;349.623130142667
322.703709933657;348.788951245933
322.725334212993;347.99037975627
322.746958492329;347.201424295
322.768582771665;346.414099997885
322.790207051001;345.62262016965
322.811831330337;344.828097170146
322.833455609673;344.05815837976
322.855079889008;343.300982575256
322.876704168344;342.538957326935
322.89832844768;341.768791730279
322.919952727016;341.010031932388
322.941577006352;340.304922620074
322.963201285688;339.630974487452
322.984825565024;338.984186245203
323.00644984436;338.3778944822
323.028074123696;337.821567701741
323.049698403032;337.315698937441
323.071322682368;336.837677994129
323.092946961704;336.375287949937
323.11457124104;335.927079831383
323.136195520376;335.491877792905
323.157819799712;335.045688133184
323.179444079048;334.5710158857
323.201068358384;334.058834297752
323.22269263772;333.50628583492
323.244316917056;332.899276304693
323.265941196392;332.204308179735
323.287565475728;331.39941507327
323.309189755064;330.534165299706
323.3308140344;329.710902359175
323.352438313736;328.934477036223
323.374062593072;328.172527791104
323.395686872408;327.410637205636
323.417311151744;326.654354090431
323.43893543108;325.939542449521
323.460559710416;325.284829794273
323.482183989752;324.660444613686
323.503808269088;324.036959443904
323.525432548424;323.415122005166
323.54705682776;322.820288447788
323.568681107096;322.263721881406
323.590305386432;321.724360960866
323.611929665768;321.182902365677
323.633553945104;320.64973797695
323.65517822444;320.131667763751
323.676802503776;319.625658801933
323.698426783112;319.135440131949
323.720051062448;318.653835980466
323.741675341784;318.193943647686
323.76329962112;317.773935104065
323.784923900456;317.396334066506
323.806548179792;317.069811074637
323.828172459128;316.804858415369
323.849796738464;316.593269206497
323.8714210178;316.419761241249
323.893045297136;316.268360958907
323.914669576472;316.126308781549
323.936293855807;315.973980513906
323.957918135143;315.78199947161
323.979542414479;315.537195855747
324.001166693815;315.258594984058
324.022790973151;314.928015645034
324.044415252487;314.509812633303
324.066039531823;313.998247160952
324.087663811159;313.401559087505
324.109288090495;312.701969811282
324.130912369831;311.873085409547
324.152536649167;310.909689669392
324.174160928503;309.815475230198
324.195785207839;308.613261309156
324.217409487175;307.349977000484
324.239033766511;306.057553336611
324.260658045847;304.700270712005
324.282282325183;303.22266687418
324.303906604519;301.618630708108
324.325530883855;299.891513871743
324.347155163191;298.093498979768
324.368779442527;296.364184569823
324.390403721863;294.738908040138
324.412028001199;293.162550454716
324.433652280535;291.604356839247
324.455276559871;290.101039830876
324.476900839207;288.684109778471
324.498525118543;287.338958650785
324.520149397879;286.044493061983
324.541773677215;284.781917611706
324.563397956551;283.492923751798
324.585022235887;282.118395190759
324.606646515223;280.658529455742
324.628270794559;279.154597301337
324.649895073895;277.610670784616
324.671519353231;275.98560359609
324.693143632567;274.307379997836
324.714767911903;272.61628083203
324.736392191239;270.902252369888
324.758016470575;269.15614899224
324.779640749911;267.401246970892
