Name;ESR_BC_1_7200s_Y_gon_40dg_result

Recipe
Accumulations;5;Number of accumulations
RetryCount;0;Number of retries on error
AbortOnError;True;Abort on error
EnableQFactorMeasurement;False;Enable/Disable q-Factor measurement
Bfrom;313;B from
Bto;363;B to
SweepTime;60;Sweep time
Modulation;0.2;Modulation
ModulationFreq;100;Modulation
BHoldEnabled;False;B hold enabled
BHold;0;B hold
MicrowavePower;2;Microwave power
MarkerEnabled;False;
MarkerStartField;0;
MarkerEndField;0;
Mode;;
KineticGFact;0;
KineticTotalTransientTime;0;
KineticTimeResolution;0;
TempFrom;5;
TempUseSlope;False;
TempTo;5;
TempdT;1;
TempSetupTime;0;
GonFrom;0;
GonTo;180;
GonSteps;20;
XRayEnabled;False;
XRayTime;3;
XRayVoltage;40;
XRayCurrent;0.5;
UVEnabled;False;
UVIntensity;0;
UVTime;0;
UVLeadTime;0;
UVWavelength;0;
PowSweepFrom;1;
PowSweepTo;5;
PowSweepSteps;5;
AmpModSweepFrom;0;
AmpModSweepTo;1;
AmpModSweepSteps;10;
ExtTriggerEnabled;False;
ExtTrigLeadTime;0;
ExtTrigOnTime;5;

Meas
BField [mT];MW_Absorption []
313.025637664795;152.611176666844
313.047257700008;152.122146581748
313.068877735221;151.634195933101
313.090497770433;151.140149060725
313.112117805646;150.660071247112
313.133737840859;150.196421363897
313.155357876072;149.73599658153
313.176977911285;149.267114183431
313.198597946497;148.775957293475
313.22021798171;148.26060932505
313.241838016923;147.733102242631
313.263458052136;147.20541531994
313.285078087348;146.685570485991
313.306698122561;146.17586451556
313.328318157774;145.687729235018
313.349938192987;145.260587640869
313.3715582282;144.887731146545
313.393178263412;144.557661775884
313.414798298625;144.269174797625
313.436418333838;144.024129324894
313.458038369051;143.825417034814
313.479658404264;143.679995422247
313.501278439476;143.595774122053
313.522898474689;143.568289135378
313.544518509902;143.577141765525
313.566138545115;143.63003225507
313.587758580328;143.736599916272
313.60937861554;143.901389729832
313.630998650753;144.132372388073
313.652618685966;144.426149024376
313.674238721179;144.763605782383
313.695858756392;145.136435915784
313.717478791604;145.548640850463
313.739098826817;145.984232027505
313.76071886203;146.409957029792
313.782338897243;146.810788529064
313.803958932455;147.181652783464
313.825578967668;147.5095683073
313.847199002881;147.773898506885
313.868819038094;147.960046325899
313.890439073307;148.066042471074
313.912059108519;148.101352758892
313.933679143732;148.079988933703
313.955299178945;148.01674512774
313.976919214158;147.92540579167
313.998539249371;147.806103800472
314.020159284583;147.66199714878
314.041779319796;147.50786559362
314.063399355009;147.354894337591
314.085019390222;147.206979519582
314.106639425435;147.068884884054
314.128259460647;146.93758444862
314.14987949586;146.811467891634
314.171499531073;146.694145402258
314.193119566286;146.588464997236
314.214739601499;146.495293018424
314.236359636711;146.410657429605
314.257979671924;146.326662970076
314.279599707137;146.240623008717
314.30121974235;146.152713911488
314.322839777563;146.067037844601
314.344459812775;145.986233992827
314.366079847988;145.915067533416
314.387699883201;145.860998388755
314.409319918414;145.820740011571
314.430939953627;145.782234061896
314.452559988839;145.738906206668
314.474180024052;145.688514374518
314.495800059265;145.639173899354
314.517420094478;145.593363724623
314.53904012969;145.547251722539
314.560660164903;145.494365363576
314.582280200116;145.437932392555
314.603900235329;145.384304653366
314.625520270542;145.333639489542
314.647140305754;145.289085535921
314.668760340967;145.259271062989
314.69038037618;145.252328880904
314.712000411393;145.25389579031
314.733620446606;145.255840641565
314.755240481818;145.262817777138
314.776860517031;145.280768530034
314.798480552244;145.312746603451
314.820100587457;145.360619316292
314.84172062267;145.425721050774
314.863340657882;145.507982895761
314.884960693095;145.607764652883
314.906580728308;145.726997096251
314.928200763521;145.865836234768
314.949820798734;146.024207624704
314.971440833946;146.204318860078
314.993060869159;146.409373158556
315.014680904372;146.632043209698
315.036300939585;146.856398447308
315.057920974798;147.074456760212
315.07954101001;147.287597371631
315.101161045223;147.483942836115
315.122781080436;147.644651218752
315.144401115649;147.767640595773
315.166021150861;147.854049344457
315.187641186074;147.901637559942
315.209261221287;147.913538274999
315.2308812565;147.898214577852
315.252501291713;147.865241903511
315.274121326925;147.825704464148
315.295741362138;147.793629411829
315.317361397351;147.776513249879
315.338981432564;147.769788175832
315.360601467777;147.775678715363
315.382221502989;147.807518068063
315.403841538202;147.87931918654
315.425461573415;147.991105520498
315.447081608628;148.130617272855
315.468701643841;148.29088934858
315.490321679053;148.466193029753
315.511941714266;148.64283721563
315.533561749479;148.81477014999
315.555181784692;148.979535326334
315.576801819905;149.126928805074
315.598421855117;149.247182060995
315.62004189033;149.341090561408
315.641661925543;149.406779854132
315.663281960756;149.442822195737
315.684901995969;149.44549456181
315.706522031181;149.415584128389
315.728142066394;149.358450933675
315.749762101607;149.279531835151
315.77138213682;149.184401722482
315.793002172033;149.074441421534
315.814622207245;148.94476246498
315.836242242458;148.801486040865
315.857862277671;148.661252766663
315.879482312884;148.532884091253
315.901102348096;148.413787128524
315.922722383309;148.293186104358
315.944342418522;148.170360366785
315.965962453735;148.052364466409
315.987582488948;147.941094951273
316.00920252416;147.828843565171
316.030822559373;147.708396619665
316.052442594586;147.576754312888
316.074062629799;147.435980013192
316.095682665012;147.287015844853
316.117302700224;147.131642579078
316.138922735437;146.975560708289
316.16054277065;146.817417759286
316.182162805863;146.647663290093
316.203782841076;146.463756244986
316.225402876288;146.264468998946
316.247022911501;146.046450549579
316.268642946714;145.81381396523
316.290262981927;145.580883320478
316.31188301714;145.354371617549
316.333503052352;145.129250646037
316.355123087565;144.907692778951
316.376743122778;144.698979621195
316.398363157991;144.513776733333
316.419983193204;144.356380656199
316.441603228416;144.229658524007
316.463223263629;144.143178655412
316.484843298842;144.090413135377
316.506463334055;144.054504304321
316.528083369267;144.034087232257
316.54970340448;144.02296093941
316.571323439693;144.009475787682
316.592943474906;143.983840960488
316.614563510119;143.937749960158
316.636183545331;143.865118249772
316.657803580544;143.764139920131
316.679423615757;143.629957501139
316.70104365097;143.462206064617
316.722663686183;143.265478443895
316.744283721395;143.039956304643
316.765903756608;142.796490781107
316.787523791821;142.558745716018
316.809143827034;142.346662129674
316.830763862247;142.163478811573
316.852383897459;142.00416764422
316.874003932672;141.879126126558
316.895623967885;141.801911530194
316.917244003098;141.765873956427
316.938864038311;141.761287319189
316.960484073523;141.782613269886
316.982104108736;141.82783140694
317.003724143949;141.883713732917
317.025344179162;141.941365187185
317.046964214375;141.994004829426
317.068584249587;142.032063647052
317.0902042848;142.046335833187
317.111824320013;142.028111417583
317.133444355226;141.971667780921
317.155064390439;141.875395958783
317.176684425651;141.739508556073
317.198304460864;141.566251397554
317.219924496077;141.366820349695
317.24154453129;141.145515618112
317.263164566502;140.894391979651
317.284784601715;140.606191394531
317.306404636928;140.295238179975
317.328024672141;139.986600508354
317.349644707354;139.697617392239
317.371264742566;139.433274455976
317.392884777779;139.194023427228
317.414504812992;138.973836175533
317.436124848205;138.76844570092
317.457744883418;138.596801816271
317.47936491863;138.475729561247
317.500984953843;138.395971532249
317.522604989056;138.349757130762
317.544225024269;138.334983232798
317.565845059482;138.347440590631
317.587465094694;138.382897451777
317.609085129907;138.434246824218
317.63070516512;138.491943111718
317.652325200333;138.545022187556
317.673945235546;138.591159408799
317.695565270758;138.634710680945
317.717185305971;138.67213865143
317.738805341184;138.690258455396
317.760425376397;138.691940372707
317.782045411609;138.689716025135
317.803665446822;138.687316243272
317.825285482035;138.686581442072
317.846905517248;138.688577111911
317.868525552461;138.693614447798
317.890145587673;138.703713371203
317.911765622886;138.718361645472
317.933385658099;138.730693357437
317.955005693312;138.736200672495
317.976625728525;138.73332899712
317.998245763737;138.71994672867
318.01986579895;138.694221333054
318.041485834163;138.658464742902
318.063105869376;138.619052543986
318.084725904589;138.582609708769
318.106345939801;138.555459818256
318.127965975014;138.544391723735
318.149586010227;138.557686108597
318.17120604544;138.60530909699
318.192826080653;138.692644583526
318.214446115865;138.816436244696
318.236066151078;138.971765606351
318.257686186291;139.159118837673
318.279306221504;139.377717403953
318.300926256717;139.61787348485
318.322546291929;139.86576766779
318.344166327142;140.106164134132
318.365786362355;140.331062504851
318.387406397568;140.539580717275
318.40902643278;140.720492025422
318.430646467993;140.863106208059
318.452266503206;140.959441298
318.473886538419;141.006891531515
318.495506573632;140.99889618444
318.517126608844;140.925398026377
318.538746644057;140.795955067225
318.56036667927;140.61849304887
318.581986714483;140.392871590385
318.603606749696;140.112407470536
318.625226784908;139.79667432262
318.646846820121;139.47336501172
318.668466855334;139.137033294562
318.690086890547;138.778606731292
318.71170692576;138.396429501293
318.733326960972;138.005429253955
318.754946996185;137.615689009594
318.776567031398;137.22552304309
318.798187066611;136.835736642941
318.819807101824;136.440606632648
318.841427137036;136.039113572154
318.863047172249;135.655729251779
318.884667207462;135.289783057175
318.906287242675;134.930648666888
318.927907277888;134.586797978882
318.9495273131;134.262209396931
318.971147348313;133.963453456842
318.992767383526;133.686841126373
319.014387418739;133.421800302749
319.036007453952;133.173319888053
319.057627489164;132.973697644692
319.079247524377;132.811090858288
319.10086755959;132.671640942826
319.122487594803;132.551948936411
319.144107630015;132.448440196195
319.165727665228;132.349399058792
319.187347700441;132.246959845533
319.208967735654;132.129678705648
319.230587770867;131.982666988409
319.252207806079;131.807155407186
319.273827841292;131.615147658427
319.295447876505;131.410881705076
319.317067911718;131.200134075304
319.338687946931;130.995116574467
319.360307982143;130.79775381555
319.381928017356;130.610595734077
319.403548052569;130.455356591762
319.425168087782;130.350471266519
319.446788122995;130.290106858405
319.468408158207;130.261438888966
319.49002819342;130.256729284348
319.511648228633;130.263548360441
319.533268263846;130.270015187993
319.554888299059;130.269092690127
319.576508334271;130.248930171148
319.598128369484;130.191022924054
319.619748404697;130.08424934544
319.64136843991;129.924139298734
319.662988475123;129.704133760841
319.684608510335;129.421882063374
319.706228545548;129.082934134899
319.727848580761;128.691297779565
319.749468615974;128.250681900011
319.771088651186;127.758639631168
319.792708686399;127.223775402328
319.814328721612;126.682774832926
319.835948756825;126.153618156941
319.857568792038;125.644171579534
319.87918882725;125.15632546639
319.900808862463;124.689428675866
319.922428897676;124.246096199893
319.944048932889;123.839505962994
319.965668968102;123.487697310868
319.987289003314;123.191292130245
320.008909038527;122.940405483299
320.03052907374;122.740035048954
320.052149108953;122.606080255855
320.073769144166;122.536802264076
320.095389179378;122.515408325045
320.117009214591;122.536413953228
320.138629249804;122.601402019928
320.160249285017;122.702413240257
320.18186932023;122.831582033408
320.203489355442;122.98341486082
320.225109390655;123.153505568133
320.246729425868;123.336924012834
320.268349461081;123.531699481662
320.289969496294;123.736161527462
320.311589531506;123.938534643967
320.333209566719;124.12106522682
320.354829601932;124.275566134026
320.376449637145;124.409584374569
320.398069672358;124.529368206272
320.41968970757;124.640216347837
320.441309742783;124.746548676122
320.462929777996;124.850737969769
320.484549813209;124.953544835024
320.506169848421;125.0577155316
320.527789883634;125.170307363541
320.549409918847;125.301032267088
320.57102995406;125.458126050662
320.592649989273;125.648473106993
320.614270024485;125.879325064684
320.635890059698;126.149528184112
320.657510094911;126.445388534269
320.679130130124;126.75410469416
320.700750165337;127.067479163407
320.722370200549;127.373654768543
320.743990235762;127.664333186663
320.765610270975;127.934694828221
320.787230306188;128.173536712156
320.808850341401;128.371560251327
320.830470376613;128.529281012879
320.852090411826;128.642560661918
320.873710447039;128.708374839445
320.895330482252;128.728351015686
320.916950517465;128.706396193073
320.938570552677;128.649460991495
320.96019058789;128.559708278171
320.981810623103;128.435532420079
321.003430658316;128.277491521065
321.025050693529;128.097294935735
321.046670728741;127.907238335132
321.068290763954;127.707147141897
321.089910799167;127.493243625215
321.11153083438;127.271472997629
321.133150869592;127.059959145124
321.154770904805;126.872932804117
321.176390940018;126.699870080847
321.198010975231;126.533375872255
321.219631010444;126.384695803273
321.241251045656;126.270710681245
321.262871080869;126.196543178529
321.284491116082;126.151361364264
321.306111151295;126.123599377477
321.327731186508;126.111409382048
321.34935122172;126.114390859473
321.370971256933;126.131457778348
321.392591292146;126.146747519763
321.414211327359;126.154584946215
321.435831362572;126.156639999233
321.457451397784;126.152704965114
321.479071432997;126.132145258665
321.50069146821;126.089807560254
321.522311503423;126.025626769679
321.543931538636;125.948364720317
321.565551573848;125.86321146059
321.587171609061;125.766197285173
321.608791644274;125.653410624374
321.630411679487;125.524216527787
321.652031714699;125.388828132244
321.673651749912;125.261410860307
321.695271785125;125.14666644194
321.716891820338;125.051470051216
321.738511855551;124.982578452193
321.760131890763;124.947250959951
321.781751925976;124.950376038703
321.803371961189;124.98475173959
321.824991996402;125.032788160426
321.846612031615;125.082604507203
321.868232066827;125.128508546386
321.88985210204;125.165093045394
321.911472137253;125.181486492739
321.933092172466;125.165167912781
321.954712207679;125.105649434258
321.976332242891;125.000531679795
321.997952278104;124.842968464119
322.019572313317;124.626803352809
322.04119234853;124.357067121555
322.062812383743;124.037824473767
322.084432418955;123.672740953536
322.106052454168;123.263862490628
322.127672489381;122.805718240287
322.149292524594;122.311457551238
322.170912559807;121.824586626607
322.192532595019;121.330798669514
322.214152630232;120.826183383398
322.235772665445;120.313151741037
322.257392700658;119.792270499298
322.27901273587;119.264412250577
322.300632771083;118.728266097927
322.322252806296;118.192544472183
322.343872841509;117.6971537764
322.365492876722;117.254534323875
322.387112911934;116.858331886736
322.408732947147;116.492718414695
322.43035298236;116.163364088832
322.451973017573;115.876631617396
322.473593052786;115.629144394248
322.495213087998;115.423734979975
322.516833123211;115.276949862377
322.538453158424;115.200932069011
322.560073193637;115.188408414018
322.58169322885;115.222958579785
322.603313264062;115.296174772058
322.624933299275;115.409760626751
322.646553334488;115.559200242555
322.668173369701;115.741921820382
322.689793404914;115.9352972849
322.711413440126;116.130197972728
322.733033475339;116.322869987307
322.754653510552;116.504032255727
322.776273545765;116.655466007745
322.797893580978;116.762583694343
322.81951361619;116.821388032326
322.841133651403;116.826685926429
322.862753686616;116.770685638075
322.884373721829;116.64540977604
322.905993757042;116.457550517962
322.927613792254;116.229016779281
322.949233827467;115.954035480711
322.97085386268;115.618393805362
322.992473897893;115.239138607937
323.014093933105;114.852957340868
323.035713968318;114.468358205631
323.057334003531;114.083678964128
323.078954038744;113.705957418493
323.100574073957;113.341186408322
323.122194109169;112.996129629144
323.143814144382;112.678793009637
323.165434179595;112.404105194205
323.187054214808;112.171358466227
323.208674250021;111.970475222747
323.230294285233;111.793949505326
323.251914320446;111.6390431804
323.273534355659;111.500992038156
323.295154390872;111.371395239883
323.316774426085;111.244454052583
323.338394461297;111.111750754671
323.36001449651;110.970159962534
323.381634531723;110.820024661699
323.403254566936;110.652011974986
323.424874602149;110.459371049187
323.446494637361;110.259344023799
323.468114672574;110.068386949585
323.489734707787;109.875136199042
323.511354743;109.675756384068
323.532974778213;109.482048355738
323.554594813425;109.308354581209
323.576214848638;109.14733944326
323.597834883851;108.990900520059
323.619454919064;108.837190927566
323.641074954277;108.687616367721
323.662694989489;108.543650630444
323.684315024702;108.407007536512
323.705935059915;108.279974114131
323.727555095128;108.167556636489
323.74917513034;108.074676245767
323.770795165553;108.002235788349
323.792415200766;107.946814916826
323.814035235979;107.907300080325
323.835655271192;107.885062365739
323.857275306404;107.878168298809
323.878895341617;107.881758090791
323.90051537683;107.891636653699
323.922135412043;107.90147082543
323.943755447256;107.902667128505
323.965375482468;107.889967828869
323.986995517681;107.861895440454
324.008615552894;107.81787992555
324.030235588107;107.754520454403
324.05185562332;107.668905663465
324.073475658532;107.560468178371
324.095095693745;107.435310442778
324.116715728958;107.301208222456
324.138335764171;107.162610844273
324.159955799384;107.022954088593
324.181575834596;106.883821192465
324.203195869809;106.750087350473
324.224815905022;106.634153455896
324.246435940235;106.548311123564
324.268055975448;106.491191919837
324.28967601066;106.441738180901
324.311296045873;106.396286485149
324.332916081086;106.363941000145
324.354536116299;106.336767944532
324.376156151511;106.304358258811
324.397776186724;106.265889953431
324.419396221937;106.222083646552
324.44101625715;106.1819750964
324.462636292363;106.150449806591
324.484256327575;106.119449409323
324.505876362788;106.088279831768
324.527496398001;106.072992157682
324.549116433214;106.09565676395
324.570736468427;106.157339449289
324.592356503639;106.257811307984
324.613976538852;106.393008921446
324.635596574065;106.552657271508
324.657216609278;106.737118616163
324.678836644491;106.95789731966
324.700456679703;107.204431513933
324.722076714916;107.45426519309
324.743696750129;107.705220348683
324.765316785342;107.957479239102
324.786936820555;108.198766025068
