Name;ESR_BC_1_29min_Y_gon_140dg_result

Recipe
Accumulations;5;Number of accumulations
RetryCount;0;Number of retries on error
AbortOnError;True;Abort on error
EnableQFactorMeasurement;False;Enable/Disable q-Factor measurement
Bfrom;313;B from
Bto;363;B to
SweepTime;60;Sweep time
Modulation;0.2;Modulation
ModulationFreq;100;Modulation
BHoldEnabled;False;B hold enabled
BHold;0;B hold
MicrowavePower;2;Microwave power
MarkerEnabled;False;
MarkerStartField;0;
MarkerEndField;0;
Mode;;
KineticGFact;0;
KineticTotalTransientTime;0;
KineticTimeResolution;0;
TempFrom;5;
TempUseSlope;False;
TempTo;5;
TempdT;1;
TempSetupTime;0;
GonFrom;0;
GonTo;180;
GonSteps;20;
XRayEnabled;False;
XRayTime;3;
XRayVoltage;40;
XRayCurrent;0.5;
UVEnabled;False;
UVIntensity;0;
UVTime;0;
UVLeadTime;0;
UVWavelength;0;
PowSweepFrom;1;
PowSweepTo;5;
PowSweepSteps;5;
AmpModSweepFrom;0;
AmpModSweepTo;1;
AmpModSweepSteps;10;
ExtTriggerEnabled;False;
ExtTrigLeadTime;0;
ExtTrigOnTime;5;

Meas
BField [mT];MW_Absorption []
313.026534957886;176.841187222809
313.048154523709;176.238039903185
313.069774089533;175.504259243951
313.091393655356;174.683285534211
313.113013221179;173.802242015699
313.134632787003;172.84548966914
313.156252352826;171.805534245165
313.177871918649;170.733061356727
313.199491484473;169.700221333911
313.221111050296;168.726481499836
313.24273061612;167.806790564354
313.264350181943;166.950427440517
313.285969747766;166.161411571068
313.30758931359;165.45930468217
313.329208879413;164.864556631353
313.350828445236;164.361832858342
313.37244801106;163.945001161835
313.394067576883;163.617626126788
313.415687142707;163.373190261502
313.43730670853;163.198262568513
313.458926274353;163.092076687069
313.480545840177;163.046595907944
313.502165406;163.049878600017
313.523784971823;163.089873821772
313.545404537647;163.151621060298
313.56702410347;163.223225490466
313.588643669294;163.292298982592
313.610263235117;163.360750333053
313.63188280094;163.431228796868
313.653502366764;163.501089944086
313.675121932587;163.564569763822
313.69674149841;163.62043063589
313.718361064234;163.675529912487
313.739980630057;163.726499639578
313.761600195881;163.771228470797
313.783219761704;163.819618971729
313.804839327527;163.876642177739
313.826458893351;163.935341320346
313.848078459174;163.991782938724
313.869698024997;164.040698803045
313.891317590821;164.057955135517
313.912937156644;164.03341310033
313.934556722468;163.964292338077
313.956176288291;163.838298759513
313.977795854114;163.647080621537
313.999415419938;163.396522725932
314.021034985761;163.086882104309
314.042654551585;162.720309770645
314.064274117408;162.314193240123
314.085893683231;161.869925590305
314.107513249055;161.383613315967
314.129132814878;160.873142772744
314.150752380701;160.384772558456
314.172371946525;159.959107550635
314.193991512348;159.579177774883
314.215611078171;159.21824564116
314.237230643995;158.893596992582
314.258850209818;158.646868548532
314.280469775642;158.467767911943
314.302089341465;158.331879620252
314.323708907288;158.22615508239
314.345328473112;158.151740378123
314.366948038935;158.10839720603
314.388567604759;158.077673460339
314.410187170582;158.03964016546
314.431806736405;157.990365157435
314.453426302229;157.939082903948
314.475045868052;157.886734275711
314.496665433875;157.82914401614
314.518284999699;157.76415200757
314.539904565522;157.685675547114
314.561524131346;157.586814756126
314.583143697169;157.474185309536
314.604763262992;157.354395133146
314.626382828816;157.220472879239
314.648002394639;157.06505250578
314.669621960462;156.89119949387
314.691241526286;156.708888816019
314.712861092109;156.522158621115
314.734480657933;156.330554045093
314.756100223756;156.135196264849
314.777719789579;155.947390212083
314.799339355403;155.780899831095
314.820958921226;155.642316108631
314.842578487049;155.538989887263
314.864198052873;155.477398368749
314.885817618696;155.458034811847
314.90743718452;155.475626695545
314.929056750343;155.526537546992
314.950676316166;155.602839194733
314.97229588199;155.698126669765
314.993915447813;155.807453546399
315.015535013637;155.920081022849
315.03715457946;156.021972611516
315.058774145283;156.104162268048
315.080393711107;156.159581085104
315.10201327693;156.181773838606
315.123632842753;156.169563526254
315.145252408577;156.119841396908
315.1668719744;156.027647793285
315.188491540223;155.888808106935
315.210111106047;155.694332057772
315.23173067187;155.430357480941
315.253350237694;155.104613196185
315.274969803517;154.746522549701
315.29658936934;154.365600170788
315.318208935164;153.968932545529
315.339828500987;153.567885005265
315.361448066811;153.16540830283
315.383067632634;152.771615051103
315.404687198457;152.404813088748
315.426306764281;152.06576166151
315.447926330104;151.748173448037
315.469545895927;151.462800589091
315.491165461751;151.2220166098
315.512785027574;151.016052824786
315.534404593398;150.830911224441
315.556024159221;150.65730418333
315.577643725044;150.491787716797
315.599263290868;150.334670593916
315.620882856691;150.182613440258
315.642502422514;150.028006858774
315.664121988338;149.847601903971
315.685741554161;149.633803783964
315.707361119985;149.394135477766
315.728980685808;149.131167016573
315.750600251631;148.84390182815
315.772219817455;148.534947315512
315.793839383278;148.211481990427
315.815458949101;147.887199191605
315.837078514925;147.570964958831
315.858698080748;147.259717856485
315.880317646572;146.952514240826
315.901937212395;146.664945691266
315.923556778218;146.410187867772
315.945176344042;146.188842635659
315.966795909865;146.015312858743
315.988415475689;145.903361351767
316.010035041512;145.849801704834
316.031654607335;145.853445792032
316.053274173159;145.909835728051
316.074893738982;146.011202706834
316.096513304805;146.151964316213
316.118132870629;146.320130985892
316.139752436452;146.501644943703
316.161372002275;146.687268911608
316.182991568099;146.861591730267
316.204611133922;147.004923711769
316.226230699746;147.094725498476
316.247850265569;147.118834716394
316.269469831392;147.076287300929
316.291089397216;146.965059798833
316.312708963039;146.782407379646
316.334328528863;146.539797429198
316.355948094686;146.248623602508
316.377567660509;145.910219875599
316.399187226333;145.528591047699
316.420806792156;145.126219005156
316.442426357979;144.724224506693
316.464045923803;144.336120262842
316.485665489626;143.984036332604
316.50728505545;143.694662677408
316.528904621273;143.465055915138
316.550524187096;143.291389794987
316.57214375292;143.17404234894
316.593763318743;143.105734295723
316.615382884566;143.068731441068
316.63700245039;143.048564838758
316.658622016213;143.033990279377
316.680241582037;143.028393661202
316.70186114786;143.040439347093
316.723480713683;143.045673457526
316.745100279507;143.030484569955
316.76671984533;143.000685760159
316.788339411153;142.965978424104
316.809958976977;142.925865938134
316.8315785428;142.874037587974
316.853198108624;142.80700636422
316.874817674447;142.740394732298
316.89643724027;142.681705149255
316.918056806094;142.620616871186
316.939676371917;142.560152873325
316.96129593774;142.511983311915
316.982915503564;142.469050836833
317.004535069387;142.417012603729
317.026154635211;142.343554114545
317.047774201034;142.242226638275
317.069393766857;142.115035967858
317.091013332681;141.972381285686
317.112632898504;141.819137004716
317.134252464327;141.645088907213
317.155872030151;141.445359776659
317.177491595974;141.232664965961
317.199111161798;141.024310601263
317.220730727621;140.821814090659
317.242350293444;140.624190777138
317.263969859268;140.436301868047
317.285589425091;140.274413349562
317.307208990914;140.139506050798
317.328828556738;140.026251487248
317.350448122561;139.923674163376
317.372067688385;139.818056818535
317.393687254208;139.708493852352
317.415306820031;139.601906260991
317.436926385855;139.490221265595
317.458545951678;139.358077943121
317.480165517502;139.196591597212
317.501785083325;139.01728564382
317.523404649148;138.831942054453
317.545024214972;138.634194843007
317.566643780795;138.417395578605
317.588263346618;138.1837236089
317.609882912442;137.945508081202
317.631502478265;137.719201483202
317.653122044089;137.523309402943
317.674741609912;137.360092014902
317.696361175735;137.223512828965
317.717980741559;137.113721218545
317.739600307382;137.036249961649
317.761219873205;136.994381433636
317.782839439029;136.984262706429
317.804459004852;136.991338712397
317.826078570676;136.997323187293
317.847698136499;136.992761105393
317.869317702322;136.975871669172
317.890937268146;136.945196986894
317.912556833969;136.889665055883
317.934176399792;136.798005471559
317.955795965616;136.670356715588
317.977415531439;136.505485306037
317.999035097263;136.300685340676
318.020654663086;136.064941730169
318.042274228909;135.814940282308
318.063893794733;135.560329168172
318.085513360556;135.313692336263
318.107132926379;135.083820816755
318.128752492203;134.870730430329
318.150372058026;134.676150001808
318.17199162385;134.50554387966
318.193611189673;134.361902204786
318.215230755496;134.255404934037
318.23685032132;134.18336599916
318.258469887143;134.133351426909
318.280089452966;134.095575852551
318.30170901879;134.067283622828
318.323328584613;134.045357384711
318.344948150437;134.023318777816
318.36656771626;133.997314080314
318.388187282083;133.967427511792
318.409806847907;133.936367193298
318.43142641373;133.903772449351
318.453045979554;133.865818489332
318.474665545377;133.820656563004
318.4962851112;133.771642355305
318.517904677024;133.712736185944
318.539524242847;133.641342899978
318.56114380867;133.561897614096
318.582763374494;133.482491143062
318.604382940317;133.401981716422
318.626002506141;133.317376856558
318.647622071964;133.2309169909
318.669241637787;133.144826310958
318.690861203611;133.059992064173
318.712480769434;132.979602259015
318.734100335257;132.904028123872
318.755719901081;132.832501038698
318.777339466904;132.770107420573
318.798959032728;132.718298158453
318.820578598551;132.677980822697
318.842198164374;132.648958027048
318.863817730198;132.628576345409
318.885437296021;132.616935396438
318.907056861844;132.613480609414
318.928676427668;132.620532015539
318.950295993491;132.639189027296
318.971915559315;132.661126120807
318.993535125138;132.678572657263
319.015154690961;132.690984421132
319.036774256785;132.707684675963
319.058393822608;132.729242616291
319.080013388431;132.749678309708
319.101632954255;132.769386913374
319.123252520078;132.791981128607
319.144872085902;132.820049400143
319.166491651725;132.854346506212
319.188111217548;132.896351571183
319.209730783372;132.950480828207
319.231350349195;133.017707612018
319.252969915018;133.090344056232
319.274589480842;133.158177043649
319.296209046665;133.215886265736
319.317828612489;133.261972440386
319.339448178312;133.293775250295
319.361067744135;133.308528828919
319.382687309959;133.304814734645
319.404306875782;133.282677445693
319.425926441606;133.248769019661
319.447546007429;133.21112335512
319.469165573252;133.172705541851
319.490785139076;133.135282516709
319.512404704899;133.097365602405
319.534024270722;133.067019785632
319.555643836546;133.056837410353
319.577263402369;133.068122092791
319.598882968193;133.099441011274
319.620502534016;133.1438846696
319.642122099839;133.195528213273
319.663741665663;133.252608072706
319.685361231486;133.309137828954
319.706980797309;133.360859970701
319.728600363133;133.3987788337
319.750219928956;133.397604596641
319.77183949478;133.344535584752
319.793459060603;133.248225030739
319.815078626426;133.112625004944
319.83669819225;132.929024592478
319.858317758073;132.689067130287
319.879937323896;132.409526656518
319.90155688972;132.113141275698
319.923176455543;131.805292527327
319.944796021367;131.485731175134
319.96641558719;131.155323354618
319.988035153013;130.820386608328
320.009654718837;130.493509549668
320.03127428466;130.188960252752
320.052893850483;129.909148554669
320.074513416307;129.650969797849
320.09613298213;129.415090698702
320.117752547954;129.198792280398
320.139372113777;128.995637323726
320.1609916796;128.806230197344
320.182611245424;128.640032931164
320.204230811247;128.504859090256
320.22585037707;128.406192860203
320.247469942894;128.35454251128
320.269089508717;128.349147914097
320.290709074541;128.384206521864
320.312328640364;128.456219636305
320.333948206187;128.560137317757
320.355567772011;128.692963458378
320.377187337834;128.855485545422
320.398806903657;129.042427006462
320.420426469481;129.24060303326
320.442046035304;129.446994009893
320.463665601128;129.6570815551
320.485285166951;129.85691905821
320.506904732774;130.035285559075
320.528524298598;130.184815861902
320.550143864421;130.298361912267
320.571763430245;130.369493688526
320.593382996068;130.400848372552
320.615002561891;130.394786660269
320.636622127715;130.341904758418
320.658241693538;130.226316914938
320.679861259361;130.059880651529
320.701480825185;129.863872631842
320.723100391008;129.651537029085
320.744719956831;129.425809972415
320.766339522655;129.185056261302
320.787959088478;128.936300424722
320.809578654302;128.687845987533
320.831198220125;128.454312919397
320.852817785948;128.251051856934
320.874437351772;128.079283016072
320.896056917595;127.936948384838
320.917676483419;127.821798656374
320.939296049242;127.731003698792
320.960915615065;127.668973978265
320.982535180889;127.643482767539
321.004154746712;127.651083614621
321.025774312535;127.683900226369
321.047393878359;127.738727052299
321.069013444182;127.812311477797
321.090633010006;127.900094947572
321.112252575829;127.997030171536
321.133872141652;128.101720128682
321.155491707476;128.21774573093
321.177111273299;128.34148155682
321.198730839122;128.464910132781
321.220350404946;128.586581112904
321.241969970769;128.710970496604
321.263589536593;128.833664089441
321.285209102416;128.949801406777
321.306828668239;129.052878241441
321.328448234063;129.140588180741
321.350067799886;129.210688533919
321.371687365709;129.249116847981
321.393306931533;129.243648034613
321.414926497356;129.205119630964
321.43654606318;129.135522810975
321.458165629003;129.026332684821
321.479785194826;128.869254406525
321.50140476065;128.663119986623
321.523024326473;128.416792393395
321.544643892297;128.150671263982
321.56626345812;127.871916402171
321.587883023943;127.573659876575
321.609502589767;127.265705468849
321.63112215559;126.970657909381
321.652741721413;126.691754921221
321.674361287237;126.425811002762
321.69598085306;126.176233477165
321.717600418883;125.953473561473
321.739219984707;125.776132373816
321.76083955053;125.6541635112
321.782459116354;125.57463041398
321.804078682177;125.521950334857
321.825698248;125.479239695128
321.847317813824;125.431006913784
321.868937379647;125.368238539295
321.890556945471;125.273587432943
321.912176511294;125.119553642099
321.933796077117;124.887628113063
321.955415642941;124.562591504794
321.977035208764;124.154916633132
321.998654774587;123.68233791427
322.020274340411;123.153548713654
322.041893906234;122.564949092432
322.063513472058;121.901516336619
322.085133037881;121.162495011281
322.106752603704;120.356687041857
322.128372169528;119.500794253416
322.149991735351;118.644968112182
322.171611301174;117.81956448583
322.193230866998;117.045655442503
322.214850432821;116.330402220777
322.236469998645;115.677379353959
322.258089564468;115.089425704958
322.279709130291;114.57554460467
322.301328696115;114.145287341733
322.322948261938;113.796760991789
322.344567827761;113.541128206613
322.366187393585;113.382496087935
322.387806959408;113.321238773306
322.409426525232;113.347336386984
322.431046091055;113.449585768686
322.452665656878;113.61846683098
322.474285222702;113.852038813987
322.495904788525;114.156170060327
322.517524354348;114.529350242086
322.539143920172;114.960136428343
322.560763485995;115.427834524511
322.582383051819;115.899178223424
322.604002617642;116.352932730999
322.625622183465;116.790009871742
322.647241749289;117.218000203657
322.668861315112;117.628190846139
322.690480880935;117.994638938973
322.712100446759;118.296662890269
322.733720012582;118.535917707173
322.755339578406;118.732790939727
322.776959144229;118.890155886277
322.798578710052;119.002922381013
322.820198275876;119.061821729503
322.841817841699;119.065934790026
322.863437407523;119.023937983129
322.885056973346;118.940354982138
322.906676539169;118.816844261472
322.928296104993;118.647998355459
322.949915670816;118.440546914133
322.971535236639;118.216850831531
322.993154802463;117.983236801801
323.014774368286;117.7430796835
323.03639393411;117.512237439865
323.058013499933;117.287814596969
323.079633065756;117.06946227137
323.10125263158;116.864511012481
323.122872197403;116.675371971754
323.144491763226;116.502255366189
323.16611132905;116.348026708389
323.187730894873;116.213938498556
323.209350460697;116.094237265655
323.23097002652;115.982530276161
323.252589592343;115.865404079212
323.274209158167;115.730952843162
323.29582872399;115.582038821846
323.317448289813;115.432728914047
323.339067855637;115.288453178252
323.36068742146;115.145635395627
323.382306987284;114.997788857681
323.403926553107;114.855822577115
323.42554611893;114.730740150113
323.447165684754;114.620814276957
323.468785250577;114.5211611996
323.4904048164;114.432992858282
323.512024382224;114.362112274063
323.533643948047;114.30595722876
323.555263513871;114.256282648902
323.576883079694;114.206203333236
323.598502645517;114.147076158991
323.620122211341;114.078860849035
323.641741777164;114.011790810277
323.663361342987;113.944575687158
323.684980908811;113.874768221375
323.706600474634;113.799607249302
323.728220040458;113.713455866626
323.749839606281;113.613158072026
323.771459172104;113.505613775882
323.793078737928;113.391776376123
323.814698303751;113.266150528994
323.836317869574;113.119619912274
323.857937435398;112.945603918917
323.879557001221;112.742713329218
323.901176567045;112.509224630667
323.922796132868;112.241662202862
323.944415698691;111.95157525236
323.966035264515;111.656461894423
323.987654830338;111.351934647719
324.009274396162;111.033913552836
324.030893961985;110.708089588043
324.052513527808;110.373905968635
324.074133093632;110.025279317277
324.095752659455;109.670060618486
324.117372225278;109.320909016617
324.138991791102;108.98668545667
324.160611356925;108.67912414393
324.182230922749;108.401099398761
324.203850488572;108.146919038074
324.225470054395;107.920861115928
324.247089620219;107.739237345635
324.268709186042;107.609805352683
324.290328751865;107.521000355665
324.311948317689;107.462761141956
324.333567883512;107.431385907616
324.355187449336;107.421151303097
324.376807015159;107.421344787264
324.398426580982;107.420022291536
324.420046146806;107.408136756603
324.441665712629;107.377419102875
324.463285278452;107.314351440598
324.484904844276;107.209113762503
324.506524410099;107.05518326776
324.528143975923;106.851042112914
324.549763541746;106.595987340787
324.571383107569;106.292015296576
324.593002673393;105.946987498705
324.614622239216;105.570710452355
324.636241805039;105.17374472182
324.657861370863;104.780051033458
324.679480936686;104.408452367992
324.70110050251;104.056243339007
324.722720068333;103.719098073843
324.744339634156;103.399737094599
324.76595919998;103.109136404911
324.787578765803;102.860107179329
