Name;ESR_BC_1_3600s_X_gon_80dg_result

Recipe
Accumulations;5;Number of accumulations
RetryCount;0;Number of retries on error
AbortOnError;True;Abort on error
EnableQFactorMeasurement;False;Enable/Disable q-Factor measurement
Bfrom;313;B from
Bto;363;B to
SweepTime;60;Sweep time
Modulation;0.2;Modulation
ModulationFreq;100;Modulation
BHoldEnabled;False;B hold enabled
BHold;0;B hold
MicrowavePower;2;Microwave power
MarkerEnabled;False;
MarkerStartField;0;
MarkerEndField;0;
Mode;;
KineticGFact;0;
KineticTotalTransientTime;0;
KineticTimeResolution;0;
TempFrom;5;
TempUseSlope;False;
TempTo;5;
TempdT;1;
TempSetupTime;0;
GonFrom;0;
GonTo;180;
GonSteps;20;
XRayEnabled;False;
XRayTime;3;
XRayVoltage;40;
XRayCurrent;0.5;
UVEnabled;False;
UVIntensity;0;
UVTime;0;
UVLeadTime;0;
UVWavelength;0;
PowSweepFrom;1;
PowSweepTo;5;
PowSweepSteps;5;
AmpModSweepFrom;0;
AmpModSweepTo;1;
AmpModSweepSteps;10;
ExtTriggerEnabled;False;
ExtTrigLeadTime;0;
ExtTrigOnTime;5;

Meas
BField [mT];MW_Absorption []
313.029035110474;631.489700161208
313.050657072059;631.003360253195
313.072279033644;630.542516525414
313.09390099523;630.10358361514
313.115522956815;629.681513943227
313.137144918401;629.27894195508
313.158766879986;628.889498407209
313.180388841571;628.485800526268
313.202010803157;628.042305899044
313.223632764742;627.54343176175
313.245254726327;627.000195243071
313.266876687913;626.402773831889
313.288498649498;625.739282958616
313.310120611084;625.032739064914
313.331742572669;624.279989679074
313.353364534254;623.451641882896
313.37498649584;622.555617968189
313.396608457425;621.616407919565
313.41823041901;620.638470562653
313.439852380596;619.623477128298
313.461474342181;618.593098150568
313.483096303766;617.56190042013
313.504718265352;616.529255013887
313.526340226937;615.513562060866
313.547962188523;614.543602708856
313.569584150108;613.651910347921
313.591206111693;612.843291406153
313.612828073279;612.106678860786
313.634450034864;611.426393807777
313.656071996449;610.818837826567
313.677693958035;610.328674789771
313.69931591962;609.934072635321
313.720937881206;609.605622429025
313.742559842791;609.31128973657
313.764181804376;609.01511200326
313.785803765962;608.692375866633
313.807425727547;608.354250579576
313.829047689132;607.983987370875
313.850669650718;607.552758169956
313.872291612303;607.040878128414
313.893913573888;606.435448012127
313.915535535474;605.736542192841
313.937157497059;604.975982329564
313.958779458645;604.165229629247
313.98040142023;603.312513552192
314.002023381815;602.435238763645
314.023645343401;601.538527311013
314.045267304986;600.627672459197
314.066889266571;599.719168702021
314.088511228157;598.820819042823
314.110133189742;597.937420914465
314.131755151328;597.086580103932
314.153377112913;596.267542086326
314.174999074498;595.467609107441
314.196621036084;594.680056961858
314.218242997669;593.889823475933
314.239864959254;593.078729614369
314.26148692084;592.245908534315
314.283108882425;591.413047045554
314.304730844011;590.606606028595
314.326352805596;589.822647571905
314.347974767181;589.035140046832
314.369596728767;588.234210700745
314.391218690352;587.434148026571
314.412840651937;586.645006159536
314.434462613523;585.876451453404
314.456084575108;585.144980796732
314.477706536694;584.463077511214
314.499328498279;583.83612459307
314.520950459864;583.26999283618
314.54257242145;582.749416068771
314.564194383035;582.254649831923
314.58581634462;581.782669105223
314.607438306206;581.348677228996
314.629060267791;580.943700070129
314.650682229377;580.566762826221
314.672304190962;580.222382543037
314.693926152547;579.892670311266
314.715548114133;579.542743052177
314.737170075718;579.14707646956
314.758792037303;578.697215781754
314.780413998889;578.197750331345
314.802035960474;577.662817656499
314.823657922059;577.080146560417
314.845279883645;576.438832843302
314.86690184523;575.727320649644
314.888523806816;574.938295234054
314.910145768401;574.058976457739
314.931767729986;573.113588637743
314.953389691572;572.137299216841
314.975011653157;571.148058346439
314.996633614742;570.182171035022
315.018255576328;569.269909768027
315.039877537913;568.397560113001
315.061499499499;567.548165367822
315.083121461084;566.713849018391
315.104743422669;565.895257269858
315.126365384255;565.108701874483
315.14798734584;564.376452100497
315.169609307425;563.699747471282
315.191231269011;563.066239851438
315.212853230596;562.469032791663
315.234475192181;561.916165149704
315.256097153767;561.424132969241
315.277719115352;560.990568226863
315.299341076938;560.59361387026
315.320963038523;560.218096289619
315.342585000108;559.863467684288
315.364206961694;559.537803907218
315.385828923279;559.247476795272
315.407450884864;558.984583156409
315.42907284645;558.734891419014
315.450694808035;558.489675214001
315.472316769621;558.232697177353
315.493938731206;557.943614244023
315.515560692791;557.6143482706
315.537182654377;557.244867819737
315.558804615962;556.822066558911
315.580426577547;556.326597354647
315.602048539133;555.758281038414
315.623670500718;555.128881716993
315.645292462304;554.437407536776
315.666914423889;553.660005868939
315.688536385474;552.795729564948
315.71015834706;551.854540072291
315.731780308645;550.828071038707
315.75340227023;549.739885251599
315.775024231816;548.640914694589
315.796646193401;547.545570306223
315.818268154987;546.456458011526
315.839890116572;545.408276127197
315.861512078157;544.438010349274
315.883134039743;543.535043198366
315.904756001328;542.698375929722
315.926377962913;541.963407548104
315.947999924499;541.353382912783
315.969621886084;540.865433846005
315.99124384767;540.490392617231
316.012865809255;540.20531107425
316.03448777084;539.983837172807
316.056109732426;539.806354790184
316.077731694011;539.65430395445
316.099353655596;539.500171585549
316.120975617182;539.319386722368
316.142597578767;539.09563991613
316.164219540352;538.828656914723
316.185841501938;538.520851203033
316.207463463523;538.171495656122
316.229085425109;537.771240972335
316.250707386694;537.319310387643
316.272329348279;536.820628056971
316.293951309865;536.281014888259
316.31557327145;535.706891387665
316.337195233035;535.117283878201
316.358817194621;534.528305538877
316.380439156206;533.946132853486
316.402061117792;533.379605147732
316.423683079377;532.839127598038
316.445305040962;532.321700167496
316.466927002548;531.829456386653
316.488548964133;531.380641295331
316.510170925718;530.964004554705
316.531792887304;530.561022848306
316.553414848889;530.160628663414
316.575036810475;529.773377013495
316.59665877206;529.389283044004
316.618280733645;528.976133742979
316.639902695231;528.506204757942
316.661524656816;527.9786665342
316.683146618401;527.40014424661
316.704768579987;526.763617612925
316.726390541572;526.072050583529
316.748012503158;525.334100480001
316.769634464743;524.569404022013
316.791256426328;523.798246941521
316.812878387914;523.027312412734
316.834500349499;522.243817022694
316.856122311084;521.460826665654
316.87774427267;520.711061113789
316.899366234255;520.012622661657
316.92098819584;519.344794214355
316.942610157426;518.688062029559
316.964232119011;518.012787859225
316.985854080597;517.280614373533
317.007476042182;516.511527998285
317.029098003767;515.764148770112
317.050719965353;515.046010348936
317.072341926938;514.292468502872
317.093963888523;513.475335431339
317.115585850109;512.591875587448
317.137207811694;511.630603098279
317.15882977328;510.583776023069
317.180451734865;509.495522705165
317.20207369645;508.439939670481
317.223695658036;507.409471651123
317.245317619621;506.362751933699
317.266939581206;505.271415178012
317.288561542792;504.11064736583
317.310183504377;502.898052535402
317.331805465962;501.717673826328
317.353427427548;500.620173343572
317.375049389133;499.573454191868
317.396671350719;498.534917188684
317.418293312304;497.505317919992
317.439915273889;496.501818353599
317.461537235475;495.514486500508
317.48315919706;494.550694305301
317.504781158645;493.638724214668
317.526403120231;492.774805091113
317.548025081816;491.939351187707
317.569647043402;491.130759550802
317.591269004987;490.353395233884
317.612890966572;489.600367018249
317.634512928158;488.833670761301
317.656134889743;488.028376452917
317.677756851328;487.197011367529
317.699378812914;486.363826570246
317.721000774499;485.546569490587
317.742622736085;484.747319762046
317.76424469767;483.963562780231
317.785866659255;483.185540740081
317.807488620841;482.404364481871
317.829110582426;481.636223649932
317.850732544011;480.886512321563
317.872354505597;480.138525795064
317.893976467182;479.384193326927
317.915598428768;478.634341859757
317.937220390353;477.887533720255
317.958842351938;477.149878360771
317.980464313524;476.442761020708
318.002086275109;475.768007534742
318.023708236694;475.088718570799
318.04533019828;474.368061673452
318.066952159865;473.637247756688
318.088574121451;472.913215353631
318.110196083036;472.180571266059
318.131818044621;471.445019478764
318.153440006207;470.722632260946
318.175061967792;470.00460645088
318.196683929377;469.288791161527
318.218305890963;468.584623958222
318.239927852548;467.890651198444
318.261549814133;467.197467694196
318.283171775719;466.50311456351
318.304793737304;465.808680294269
318.32641569889;465.1227574161
318.348037660475;464.463480217088
318.36965962206;463.842524467446
318.391281583646;463.239758092878
318.412903545231;462.657127418492
318.434525506816;462.110219769081
318.456147468402;461.589983576753
318.477769429987;461.076159560504
318.499391391573;460.551396071898
318.521013353158;459.99674353671
318.542635314743;459.40162657183
318.564257276329;458.767340629353
318.585879237914;458.098294390696
318.607501199499;457.400738848849
318.629123161085;456.671997264813
318.65074512267;455.881116669324
318.672367084255;455.000766104155
318.693989045841;454.054180013479
318.715611007426;453.063485004675
318.737232969012;452.015823115901
318.758854930597;450.897977300936
318.780476892182;449.726262020724
318.802098853768;448.539728735009
318.823720815353;447.36955028452
318.845342776938;446.227211356489
318.866964738524;445.083915317567
318.888586700109;443.895975816324
318.910208661695;442.671253598375
318.93183062328;441.479074899893
318.953452584865;440.340537515538
318.975074546451;439.233093831829
318.996696508036;438.146405015251
319.018318469621;437.080168653178
319.039940431207;436.011423293017
319.061562392792;434.92975969982
319.083184354378;433.854210599503
319.104806315963;432.79754574156
319.126428277548;431.750283708582
319.148050239134;430.700633011348
319.169672200719;429.647548147357
319.191294162304;428.579168937159
319.21291612389;427.469189261463
319.234538085475;426.313044744787
319.256160047061;425.176489611399
319.277782008646;424.104828949428
319.299403970231;423.076018708101
319.321025931817;422.07049840546
319.342647893402;421.083759559178
319.364269854987;420.113850393973
319.385891816573;419.176606378441
319.407513778158;418.294929677855
319.429135739743;417.502269340592
319.450757701329;416.825765450963
319.472379662914;416.237717058469
319.4940016245;415.718060921542
319.515623586085;415.275257103244
319.53724554767;414.923321284109
319.558867509256;414.652062936471
319.580489470841;414.446632519185
319.602111432426;414.306255281199
319.623733394012;414.230122330241
319.645355355597;414.202313304774
319.666977317183;414.207040814001
319.688599278768;414.232337539044
319.710221240353;414.267372605446
319.731843201939;414.303628311464
319.753465163524;414.331847914847
319.775087125109;414.33905381702
319.796709086695;414.322103585991
319.81833104828;414.281281412267
319.839953009866;414.219059950172
319.861574971451;414.135054617023
319.883196933036;414.023816924635
319.904818894622;413.876301940449
319.926440856207;413.688840724853
319.948062817792;413.467809378567
319.969684779378;413.21835524604
319.991306740963;412.949483359385
320.012928702548;412.672837894045
320.034550664134;412.393758518269
320.056172625719;412.123230766534
320.077794587305;411.882597849592
320.09941654889;411.696910565478
320.121038510475;411.582082809725
320.142660472061;411.530788979503
320.164282433646;411.526121966225
320.185904395231;411.565296732833
320.207526356817;411.648504760816
320.229148318402;411.765138326824
320.250770279988;411.891253345233
320.272392241573;412.00454030275
320.294014203158;412.08604856203
320.315636164744;412.111403257477
320.337258126329;412.053715706619
320.358880087914;411.896953450963
320.3805020495;411.631470883666
320.402124011085;411.228297969813
320.423745972671;410.64998965349
320.445367934256;409.867346837284
320.466989895841;408.864711110309
320.488611857427;407.687649286079
320.510233819012;406.390887159478
320.531855780597;404.981879584194
320.553477742183;403.445431107807
320.575099703768;401.7706683642
320.596721665354;400.014867556661
320.618343626939;398.171568932783
320.639965588524;396.245582033918
320.66158755011;394.363042466372
320.683209511695;392.596485952478
320.70483147328;390.904077476856
320.726453434866;389.25574209849
320.748075396451;387.682444914473
320.769697358036;386.226799556662
320.791319319622;384.869131008211
320.812941281207;383.558727635996
320.834563242793;382.272167038617
320.856185204378;381.031229048842
320.877807165963;379.843543347387
320.899429127549;378.685741642268
320.921051089134;377.53143088253
320.942673050719;376.360259054505
320.964295012305;375.152004973628
320.98591697389;373.872664555109
321.007538935476;372.472342476404
321.029160897061;370.983465901248
321.050782858646;369.476646535838
321.072404820232;367.98298547714
321.094026781817;366.496126000004
321.115648743402;364.980295075348
321.137270704988;363.388275829122
321.158892666573;361.697188422048
321.180514628159;359.958986161832
321.202136589744;358.19798106923
321.223758551329;356.430015033775
321.245380512915;354.723599532161
321.2670024745;353.111519181408
321.288624436085;351.584805940163
321.310246397671;350.134930518672
321.331868359256;348.748552288364
321.353490320842;347.419629188414
321.375112282427;346.168737997583
321.396734244012;345.038534452128
321.418356205598;344.052955170454
321.439978167183;343.182175420533
321.461600128768;342.401011426746
321.483222090354;341.725942834888
321.504844051939;341.183301180862
321.526466013524;340.764988307604
321.54808797511;340.441323033641
321.569709936695;340.182147448092
321.591331898281;339.972038731254
321.612953859866;339.799029390392
321.634575821451;339.652536136461
321.656197783037;339.523900575121
321.677819744622;339.400731242269
321.699441706207;339.271152565358
321.721063667793;339.126185580747
321.742685629378;338.957471487657
321.764307590964;338.759613588198
321.785929552549;338.535994007485
321.807551514134;338.293108212471
321.82917347572;338.0272552618
321.850795437305;337.730665554435
321.87241739889;337.398782555351
321.894039360476;337.034808169222
321.915661322061;336.639086322261
321.937283283647;336.209965811296
321.958905245232;335.752095147144
321.980527206817;335.271700368087
322.002149168403;334.757792220674
322.023771129988;334.191321728518
322.045393091573;333.564782633813
322.067015053159;332.883898491948
322.088637014744;332.158397363291
322.110258976329;331.38763261827
322.131880937915;330.580596277725
322.1535028995;329.768798496936
322.175124861086;328.978903318898
322.196746822671;328.213877394378
322.218368784256;327.466845949877
322.239990745842;326.739056187604
322.261612707427;326.050650969995
322.283234669012;325.437353693009
322.304856630598;324.903321543253
322.326478592183;324.422090275025
322.348100553769;323.976779758064
322.369722515354;323.565111429008
322.391344476939;323.182437586554
322.412966438525;322.820861834036
322.43458840011;322.482340203677
322.456210361695;322.149595125406
322.477832323281;321.803447100578
322.499454284866;321.433375736169
322.521076246452;321.039483965276
322.542698208037;320.624039767809
322.564320169622;320.172195402322
322.585942131208;319.663818027545
322.607564092793;319.104158329326
322.629186054378;318.513664537083
322.650808015964;317.891043641262
322.672429977549;317.209697877838
322.694051939135;316.483777273135
322.71567390072;315.723365529717
322.737295862305;314.92679786641
322.758917823891;314.131512351744
322.780539785476;313.346644572427
322.802161747061;312.548528602611
322.823783708647;311.731238624707
322.845405670232;310.90343535883
322.867027631817;310.07594696339
322.888649593403;309.258147244575
322.910271554988;308.46569677765
322.931893516574;307.701186074796
322.953515478159;306.947986107359
322.975137439744;306.197762813745
322.99675940133;305.51345032803
323.018381362915;304.947005998804
323.0400033245;304.470346269156
323.061625286086;304.032988238978
323.083247247671;303.611394696033
323.104869209257;303.206120829117
323.126491170842;302.812272080643
323.148113132427;302.417640428952
323.169735094013;302.002110143457
323.191357055598;301.552925947944
323.212979017183;301.071932336802
323.234600978769;300.556868851717
323.256222940354;299.99585863604
323.27784490194;299.389197868242
323.299466863525;298.767822943081
323.32108882511;298.165059665759
323.342710786696;297.564498882978
323.364332748281;296.957422176718
323.385954709866;296.352181372873
323.407576671452;295.739576859378
323.429198633037;295.100515608247
323.450820594622;294.47555209714
323.472442556208;293.880849367854
323.494064517793;293.292562439607
323.515686479379;292.680489012924
323.537308440964;292.052618041764
323.558930402549;291.432897163523
323.580552364135;290.831524303141
323.60217432572;290.25212286443
323.623796287305;289.704844091598
323.645418248891;289.175222928015
323.667040210476;288.641712130692
323.688662172062;288.113755390842
323.710284133647;287.643050620918
323.731906095232;287.251097227786
323.753528056818;286.914297389266
323.775150018403;286.622908657091
323.796771979988;286.375246774436
323.818393941574;286.169991073828
323.840015903159;286.014140978198
323.861637864745;285.90966049259
323.88325982633;285.842003913126
323.904881787915;285.788461871041
323.926503749501;285.735436901416
323.948125711086;285.670501467747
323.969747672671;285.581996303393
323.991369634257;285.46341954143
324.012991595842;285.305463764966
324.034613557428;285.088297138356
324.056235519013;284.797072625145
324.077857480598;284.417155457113
324.099479442184;283.941445430093
324.121101403769;283.388430677023
324.142723365354;282.774887326698
324.16434532694;282.110959808177
324.185967288525;281.39678460775
324.20758925011;280.621974030138
324.229211211696;279.786409822531
324.250833173281;278.894939415528
324.272455134867;277.940184882254
324.294077096452;276.937193753849
324.315699058037;275.933228578263
324.337321019623;274.969226335718
324.358942981208;274.005876675851
324.380564942793;273.000810107647
324.402186904379;271.992478978381
324.423808865964;271.01993837661
324.44543082755;270.0450920438
324.467052789135;269.001580799591
324.48867475072;267.872405879549
324.510296712306;266.725602883633
324.531918673891;265.597410010049
324.553540635476;264.440058627129
324.575162597062;263.206716020988
324.596784558647;261.881318199126
324.618406520233;260.496018281694
324.640028481818;259.086834565301
324.661650443403;257.691170096951
324.683272404989;256.308146952224
324.704894366574;254.917878101373
324.726516328159;253.497923565999
324.748138289745;252.060249781494
324.76976025133;250.625907410762
