Name;ESR_BC_1_840s_X_gon_80dg_result

Recipe
Accumulations;5;Number of accumulations
RetryCount;0;Number of retries on error
AbortOnError;True;Abort on error
EnableQFactorMeasurement;False;Enable/Disable q-Factor measurement
Bfrom;313;B from
Bto;363;B to
SweepTime;60;Sweep time
Modulation;0.2;Modulation
ModulationFreq;100;Modulation
BHoldEnabled;False;B hold enabled
BHold;0;B hold
MicrowavePower;2;Microwave power
MarkerEnabled;False;
MarkerStartField;0;
MarkerEndField;0;
Mode;;
KineticGFact;0;
KineticTotalTransientTime;0;
KineticTimeResolution;0;
TempFrom;5;
TempUseSlope;False;
TempTo;5;
TempdT;1;
TempSetupTime;0;
GonFrom;0;
GonTo;180;
GonSteps;20;
XRayEnabled;False;
XRayTime;3;
XRayVoltage;40;
XRayCurrent;0.5;
UVEnabled;False;
UVIntensity;0;
UVTime;0;
UVLeadTime;0;
UVWavelength;0;
PowSweepFrom;1;
PowSweepTo;5;
PowSweepSteps;5;
AmpModSweepFrom;0;
AmpModSweepTo;1;
AmpModSweepSteps;10;
ExtTriggerEnabled;False;
ExtTrigLeadTime;0;
ExtTrigOnTime;5;

Meas
BField [mT];MW_Absorption []
313.021163406372;629.83920987956
313.042785318713;628.972557175485
313.064407231054;628.069069163809
313.086029143395;627.165817934651
313.107651055736;626.263277512739
313.129272968078;625.308344424966
313.150894880419;624.272545327072
313.17251679276;623.195350172363
313.194138705101;622.084014129071
313.215760617442;620.955584997287
313.237382529783;619.824284629599
313.259004442124;618.717755996659
313.280626354465;617.686914969152
313.302248266806;616.766716110769
313.323870179147;615.926908504535
313.345492091489;615.138326275126
313.36711400383;614.385101706352
313.388735916171;613.651398460041
313.410357828512;612.935903537038
313.431979740853;612.25717313074
313.453601653194;611.62729938504
313.475223565535;611.038000587705
313.496845477876;610.461824962489
313.518467390217;609.880585459509
313.540089302558;609.273507924088
313.5617112149;608.62144627747
313.583333127241;607.918010708042
313.604955039582;607.161241726596
313.626576951923;606.394130033888
313.648198864264;605.615463328855
313.669820776605;604.822964328072
313.691442688946;604.02434549576
313.713064601287;603.212571761427
313.734686513628;602.380110206468
313.756308425969;601.531829580052
313.77793033831;600.703258631338
313.799552250652;599.932359142399
313.821174162993;599.213438885103
313.842796075334;598.536092711649
313.864417987675;597.897733295595
313.886039900016;597.291969865784
313.907661812357;596.718074537272
313.929283724698;596.191669216574
313.950905637039;595.714884030754
313.97252754938;595.275547316059
313.994149461721;594.859959727545
314.015771374063;594.448090427052
314.037393286404;594.015214063505
314.059015198745;593.546543289537
314.080637111086;593.031887567031
314.102259023427;592.480860770143
314.123880935768;591.907074400556
314.145502848109;591.293245172667
314.16712476045;590.624223640335
314.188746672791;589.920669112141
314.210368585132;589.201188095027
314.231990497474;588.467320964408
314.253612409815;587.715784109259
314.275234322156;586.963849063165
314.296856234497;586.248589218736
314.318478146838;585.580929094277
314.340100059179;584.944622257921
314.36172197152;584.344552007765
314.383343883861;583.787635008448
314.404965796202;583.249171764206
314.426587708543;582.707073370652
314.448209620884;582.171768603749
314.469831533226;581.642864869123
314.491453445567;581.079813808931
314.513075357908;580.479327508052
314.534697270249;579.842442087759
314.55631918259;579.156637128798
314.577941094931;578.443130791522
314.599563007272;577.728334996341
314.621184919613;577.004482800313
314.642806831954;576.24532038989
314.664428744295;575.438091518451
314.686050656637;574.6028776658
314.707672568978;573.766944092651
314.729294481319;572.961039402887
314.75091639366;572.213824851731
314.772538306001;571.527234841533
314.794160218342;570.879196401586
314.815782130683;570.246064734282
314.837404043024;569.601990123826
314.859025955365;568.921918704063
314.880647867706;568.19514003414
314.902269780048;567.439325245269
314.923891692389;566.683593294336
314.94551360473;565.927178065629
314.967135517071;565.154039827713
314.988757429412;564.356869787723
315.010379341753;563.536764497418
315.032001254094;562.694851560669
315.053623166435;561.820094625223
315.075245078776;560.887817502509
315.096866991117;559.899105465076
315.118488903459;558.908494474938
315.1401108158;557.963092363523
315.161732728141;557.074598569417
315.183354640482;556.220269058252
315.204976552823;555.390624501767
315.226598465164;554.587177644634
315.248220377505;553.805781489241
315.269842289846;553.050732817426
315.291464202187;552.337992254217
315.313086114528;551.67157212996
315.334708026869;551.035424005914
315.356329939211;550.405669673525
315.377951851552;549.777419978664
315.399573763893;549.159414395784
315.421195676234;548.55082167994
315.442817588575;547.940191568211
315.464439500916;547.292372783964
315.486061413257;546.602328035748
315.507683325598;545.875950358574
315.529305237939;545.099857784609
315.55092715028;544.267066712654
315.572549062622;543.370914895912
315.594170974963;542.381624906587
315.615792887304;541.298952603686
315.637414799645;540.149630291698
315.659036711986;538.972726995754
315.680658624327;537.782433080614
315.702280536668;536.569052794434
315.723902449009;535.326462995833
315.74552436135;534.042370977803
315.767146273691;532.722111535503
315.788768186033;531.401598945137
315.810390098374;530.141746790344
315.832012010715;528.970133796893
315.853633923056;527.877246216604
315.875255835397;526.830365944643
315.896877747738;525.806581822479
315.918499660079;524.798884764828
315.94012157242;523.803436307609
315.961743484761;522.818424874518
315.983365397102;521.855957787062
316.004987309443;520.930053171391
316.026609221785;520.019469333609
316.048231134126;519.093411134531
316.069853046467;518.184764712261
316.091474958808;517.333651674242
316.113096871149;516.531939218352
316.13471878349;515.747803166928
316.156340695831;514.981414237279
316.177962608172;514.275810850783
316.199584520513;513.654617757225
316.221206432854;513.09948436898
316.242828345196;512.589631508616
316.264450257537;512.111106578958
316.286072169878;511.644985036502
316.307694082219;511.173439313539
316.32931599456;510.690013549828
316.350937906901;510.191592109056
316.372559819242;509.663011945087
316.394181731583;509.096904570782
316.415803643924;508.501853903017
316.437425556265;507.876282137521
316.459047468607;507.20136132814
316.480669380948;506.495458251636
316.502291293289;505.790691451116
316.52391320563;505.092275698671
316.545535117971;504.396088754394
316.567157030312;503.705307553474
316.588778942653;503.023546979681
316.610400854994;502.362364642163
316.632022767335;501.726488966007
316.653644679676;501.108570456742
316.675266592018;500.515012302488
316.696888504359;499.965710267937
316.7185104167;499.435584636707
316.740132329041;498.882159498377
316.761754241382;498.300050700199
316.783376153723;497.675772420858
316.804998066064;496.997967441652
316.826619978405;496.275065765625
316.848241890746;495.508124764563
316.869863803087;494.684159188219
316.891485715428;493.822716873536
316.91310762777;492.952398830328
316.934729540111;492.09220742816
316.956351452452;491.216896917194
316.977973364793;490.332799025966
316.999595277134;489.497955961177
317.021217189475;488.721794919283
317.042839101816;488.016814895492
317.064461014157;487.368742359956
317.086082926498;486.756788477986
317.107704838839;486.201515239938
317.129326751181;485.71326430756
317.150948663522;485.273110694091
317.172570575863;484.887897048919
317.194192488204;484.549649811502
317.215814400545;484.241938807866
317.237436312886;483.952874029698
317.259058225227;483.675794711095
317.280680137568;483.41818862561
317.302302049909;483.184564479997
317.32392396225;482.972253449488
317.345545874591;482.776424187704
317.367167786933;482.584907716104
317.388789699274;482.386638778607
317.410411611615;482.162877261288
317.432033523956;481.895236090639
317.453655436297;481.59045273162
317.475277348638;481.248851311209
317.496899260979;480.855596174989
317.51852117332;480.402228546279
317.540143085661;479.894453027437
317.561764998003;479.327180539716
317.583386910344;478.689063443502
317.605008822685;477.988605728128
317.626630735026;477.236128922466
317.648252647367;476.4323026876
317.669874559708;475.574531960136
317.691496472049;474.66934912022
317.71311838439;473.757866900221
317.734740296731;472.880215371506
317.756362209072;472.032117228463
317.777984121413;471.188483031935
317.799606033755;470.317205137496
317.821227946096;469.41197056357
317.842849858437;468.501928142928
317.864471770778;467.599630456383
317.886093683119;466.710463888684
317.90771559546;465.852748667887
317.929337507801;465.028539139724
317.950959420142;464.194353470951
317.972581332483;463.340495611528
317.994203244824;462.501378725913
318.015825157166;461.701275754764
318.037447069507;460.927572230287
318.059068981848;460.166445117211
318.080690894189;459.41745174873
318.10231280653;458.688391757301
318.123934718871;457.972671481578
318.145556631212;457.260755206429
318.167178543553;456.554509778324
318.188800455894;455.859756255158
318.210422368235;455.184749271372
318.232044280576;454.526294302249
318.253666192918;453.879412378093
318.275288105259;453.245700522469
318.2969100176;452.62200554462
318.318531929941;452.016344166774
318.340153842282;451.454553666581
318.361775754623;450.960429490115
318.383397666964;450.531742213115
318.405019579305;450.149287194581
318.426641491646;449.813924594968
318.448263403987;449.545300718349
318.469885316329;449.347230073616
318.49150722867;449.202341442787
318.513129141011;449.09255788949
318.534751053352;449.002136047007
318.556372965693;448.915376071744
318.577994878034;448.817157276493
318.599616790375;448.696330673281
318.621238702716;448.554772778414
318.642860615057;448.39661282055
318.664482527398;448.19983663337
318.68610443974;447.954278756704
318.707726352081;447.66521355535
318.729348264422;447.340127550806
318.750970176763;446.980990971283
318.772592089104;446.588185545325
318.794214001445;446.168454400547
318.815835913786;445.725959871701
318.837457826127;445.260033075322
318.859079738468;444.781724503959
318.880701650809;444.298152794164
318.902323563151;443.798873082507
318.923945475492;443.290273227492
318.945567387833;442.768771396422
318.967189300174;442.20814727408
318.988811212515;441.590666331304
319.010433124856;440.931242070889
319.032055037197;440.266511763937
319.053676949538;439.600705166112
319.075298861879;438.916213815124
319.09692077422;438.19666791226
319.118542686562;437.458900442407
319.140164598903;436.721175496608
319.161786511244;435.979944374255
319.183408423585;435.244733241662
319.205030335926;434.518720240123
319.226652248267;433.779978536231
319.248274160608;433.012123272789
319.269896072949;432.226418641071
319.29151798529;431.4511542271
319.313139897631;430.694630524964
319.334761809972;429.947237630212
319.356383722314;429.196149603421
319.378005634655;428.43357475506
319.399627546996;427.6447420862
319.421249459337;426.81111986494
319.442871371678;425.949766542669
319.464493284019;425.091040492352
319.48611519636;424.255386665779
319.507737108701;423.439018187253
319.529359021042;422.627308716219
319.550980933383;421.80878893712
319.572602845725;421.009987918729
319.594224758066;420.252287955392
319.615846670407;419.516931947409
319.637468582748;418.770394012767
319.659090495089;418.023628894543
319.68071240743;417.291935630808
319.702334319771;416.585298741534
319.723956232112;415.899996536565
319.745578144453;415.220832337009
319.767200056794;414.539846612098
319.788821969135;413.852144338512
319.810443881477;413.159004655794
319.832065793818;412.475611005133
319.853687706159;411.825363727324
319.8753096185;411.210786267153
319.896931530841;410.645416121849
319.918553443182;410.138985055329
319.940175355523;409.687326416514
319.961797267864;409.29259738488
319.983419180205;408.982989422459
320.005041092546;408.76494516897
320.026663004888;408.626246720822
320.048284917229;408.566301065198
320.06990682957;408.579967711573
320.091528741911;408.657920832605
320.113150654252;408.801052331489
320.134772566593;409.012925092354
320.156394478934;409.286136290591
320.178016391275;409.605068243378
320.199638303616;409.967498546981
320.221260215957;410.383891426467
320.242882128299;410.851880900646
320.26450404064;411.337914518283
320.286125952981;411.813359639648
320.307747865322;412.279738317249
320.329369777663;412.722552658536
320.350991690004;413.121882689704
320.372613602345;413.448409148727
320.394235514686;413.675528013781
320.415857427027;413.780040381701
320.437479339368;413.727784855963
320.45910125171;413.486256343043
320.480723164051;413.054634866588
320.502345076392;412.432433386097
320.523966988733;411.579237098115
320.545588901074;410.456791303575
320.567210813415;409.108383266918
320.588832725756;407.655125973266
320.610454638097;406.154967754582
320.632076550438;404.612249586006
320.653698462779;403.01862654153
320.67532037512;401.382421668116
320.696942287462;399.741396391752
320.718564199803;398.182501738101
320.740186112144;396.783396833446
320.761808024485;395.534821862376
320.783429936826;394.408753150807
320.805051849167;393.388314951138
320.826673761508;392.465323065083
320.848295673849;391.629845112374
320.86991758619;390.857535197935
320.891539498531;390.110702708102
320.913161410873;389.349915861309
320.934783323214;388.557923901881
320.956405235555;387.730387455218
320.978027147896;386.852730232234
320.999649060237;385.901410057876
321.021270972578;384.845860520923
321.042892884919;383.645356304782
321.06451479726;382.278409210954
321.086136709601;380.773805427058
321.107758621942;379.174144736982
321.129380534284;377.505949019747
321.151002446625;375.762391060863
321.172624358966;373.924016947389
321.194246271307;372.05986701432
321.215868183648;370.234689304659
321.237490095989;368.499234498622
321.25911200833;366.888366636757
321.280733920671;365.390645093046
321.302355833012;364.01047700535
321.323977745353;362.7922009491
321.345599657694;361.738616174891
321.367221570036;360.828881352918
321.388843482377;360.050340953998
321.410465394718;359.420766663036
321.432087307059;358.954985382436
321.4537092194;358.629842284766
321.475331131741;358.414236059142
321.496953044082;358.286033447448
321.518574956423;358.235325659565
321.540196868764;358.257704839399
321.561818781106;358.338665329689
321.583440693447;358.466893852896
321.605062605788;358.626572441866
321.626684518129;358.798768994476
321.64830643047;358.965997902752
321.669928342811;359.119263514578
321.691550255152;359.255136684329
321.713172167493;359.362443610234
321.734794079834;359.424621933003
321.756415992175;359.426224782195
321.778037904516;359.360062804052
321.799659816858;359.227793258039
321.821281729199;359.031382729952
321.84290364154;358.759413988325
321.864525553881;358.401375993604
321.886147466222;357.967480764512
321.907769378563;357.475996338573
321.929391290904;356.946520650713
321.951013203245;356.398738255395
321.972635115586;355.844901779599
321.994257027927;355.288958452436
322.015878940269;354.736630567968
322.03750085261;354.189421478938
322.059122764951;353.645673525486
322.080744677292;353.103447256364
322.102366589633;352.576028801493
322.123988501974;352.078341386832
322.145610414315;351.598983681259
322.167232326656;351.116232108651
322.188854238997;350.609101218078
322.210476151338;350.073871582432
322.232098063679;349.529974300001
322.253719976021;348.960425334841
322.275341888362;348.338043396705
322.296963800703;347.654549511765
322.318585713044;346.946820356577
322.340207625385;346.228380927485
322.361829537726;345.469270813058
322.383451450067;344.654773609037
322.405073362408;343.790388044482
322.426695274749;342.892611438057
322.44831718709;341.977384700323
322.469939099432;341.053875710199
322.491561011773;340.119962577287
322.513182924114;339.175407787502
322.534804836455;338.229849999775
322.556426748796;337.281888930316
322.578048661137;336.322268585211
322.599670573478;335.357500817929
322.621292485819;334.412147777949
322.64291439816;333.514335407294
322.664536310501;332.680823884564
322.686158222843;331.925201872532
322.707780135184;331.239109954258
322.729402047525;330.612323855418
322.751023959866;330.059119503625
322.772645872207;329.583930651446
322.794267784548;329.166426439626
322.815889696889;328.800665527486
322.83751160923;328.479844221613
322.859133521571;328.187953543337
322.880755433912;327.915054668684
322.902377346254;327.651117012744
322.923999258595;327.372663087653
322.945621170936;327.059093433891
322.967243083277;326.707213119731
322.988864995618;326.324139965732
323.010486907959;325.908193312459
323.0321088203;325.462503847313
323.053730732641;324.988773406292
323.075352644982;324.492399740131
323.096974557323;323.984039649539
323.118596469664;323.481276232581
323.140218382006;322.974630912836
323.161840294347;322.463704911759
323.183462206688;321.948823157228
323.205084119029;321.424340876426
323.22670603137;320.912832224092
323.248327943711;320.425482092409
323.269949856052;319.979596824222
323.291571768393;319.591512571555
323.313193680734;319.261092910139
323.334815593075;318.977860358284
323.356437505417;318.731419329877
323.378059417758;318.523271817761
323.399681330099;318.360779812703
323.42130324244;318.241355154466
323.442925154781;318.153316825268
323.464547067122;318.074662166722
323.486168979463;317.988916495076
323.507790891804;317.886311733807
323.529412804145;317.751218785093
323.551034716486;317.558058127139
323.572656628828;317.295846453098
323.594278541169;316.978925102285
323.61590045351;316.625262507002
323.637522365851;316.234583445382
323.659144278192;315.80746194612
323.680766190533;315.347078864211
323.702388102874;314.86296498908
323.724010015215;314.368779950441
323.745631927556;313.879229352699
323.767253839897;313.39721332371
323.788875752238;312.898312854077
323.81049766458;312.359487322359
323.832119576921;311.765461104665
323.853741489262;311.101028682296
323.875363401603;310.383737398636
323.896985313944;309.641776405138
323.918607226285;308.850878770648
323.940229138626;307.991454548413
323.961851050967;307.071611934177
323.983472963308;306.10077179985
324.005094875649;305.066877387575
324.026716787991;303.965935907792
324.048338700332;302.832832459171
324.069960612673;301.694659656061
324.091582525014;300.554298364626
324.113204437355;299.421538454091
324.134826349696;298.3042961679
324.156448262037;297.198751368533
324.178070174378;296.09839762322
324.199692086719;295.030685604523
324.22131399906;294.02426957436
324.242935911402;293.046089163258
324.264557823743;292.044450735638
324.286179736084;291.012234527526
324.307801648425;289.981030463788
324.329423560766;288.965475161874
324.351045473107;287.961432495406
324.372667385448;286.92947857453
324.394289297789;285.804963725452
324.41591121013;284.618913620251
324.437533122471;283.448103799412
324.459155034813;282.313131289514
324.480776947154;281.172568327176
324.502398859495;279.960085057024
324.524020771836;278.706643623118
324.545642684177;277.468256167604
324.567264596518;276.230027967036
324.588886508859;274.956488251028
324.6105084212;273.596935038456
324.632130333541;272.131211235296
324.653752245882;270.583688481331
324.675374158223;268.993956389556
324.696996070565;267.357085815757
324.718617982906;265.659613074634
324.740239895247;263.936499808151
324.761861807588;262.266301931637
