Name;ESR_BC_1_89s_Z_gon_100dg_result

Recipe
Accumulations;5;Number of accumulations
RetryCount;0;Number of retries on error
AbortOnError;True;Abort on error
EnableQFactorMeasurement;False;Enable/Disable q-Factor measurement
Bfrom;313;B from
Bto;363;B to
SweepTime;60;Sweep time
Modulation;0.2;Modulation
ModulationFreq;100;Modulation
BHoldEnabled;False;B hold enabled
BHold;0;B hold
MicrowavePower;2;Microwave power
MarkerEnabled;False;
MarkerStartField;0;
MarkerEndField;0;
Mode;;
KineticGFact;0;
KineticTotalTransientTime;0;
KineticTimeResolution;0;
TempFrom;5;
TempUseSlope;False;
TempTo;5;
TempdT;1;
TempSetupTime;0;
GonFrom;0;
GonTo;180;
GonSteps;20;
XRayEnabled;False;
XRayTime;3;
XRayVoltage;40;
XRayCurrent;0.5;
UVEnabled;False;
UVIntensity;0;
UVTime;0;
UVLeadTime;0;
UVWavelength;0;
PowSweepFrom;1;
PowSweepTo;5;
PowSweepSteps;5;
AmpModSweepFrom;0;
AmpModSweepTo;1;
AmpModSweepSteps;10;
ExtTriggerEnabled;False;
ExtTrigLeadTime;0;
ExtTrigOnTime;5;

Meas
BField [mT];MW_Absorption []
313.027565917969;80.0170366611326
313.049189567368;79.3859207004984
313.070813216767;78.8292015963887
313.092436866166;78.3734601697432
313.114060515565;78.0237599623454
313.135684164964;77.7896612404688
313.157307814363;77.6846256763154
313.178931463762;77.6895529112646
313.200555113161;77.793655170212
313.22217876256;77.9945821648231
313.243802411959;78.2810764274424
313.265426061358;78.6206151279907
313.287049710757;78.9619968344034
313.308673360156;79.2837561713548
313.330297009555;79.5916693632589
313.351920658954;79.8896155648979
313.373544308353;80.1673541021758
313.395167957752;80.410148531855
313.416791607151;80.6198875161191
313.43841525655;80.8015185109062
313.460038905949;80.9574731229047
313.481662555348;81.0878641644527
313.503286204747;81.1885618983993
313.524909854146;81.2587794635168
313.546533503545;81.299375657629
313.568157152944;81.3058395992805
313.589780802343;81.2709248494102
313.611404451742;81.2009180234397
313.633028101141;81.1031707536299
313.65465175054;80.9729839034388
313.676275399939;80.8141787184075
313.697899049338;80.64318107967
313.719522698737;80.4666366217102
313.741146348136;80.2814426447526
313.762769997535;80.0937297474347
313.784393646934;79.9075508934264
313.806017296333;79.7205673098371
313.827640945732;79.5332885144254
313.849264595131;79.3399205624936
313.87088824453;79.124915406688
313.892511893929;78.8971064850208
313.914135543328;78.6842153906231
313.935759192727;78.4756179730313
313.957382842126;78.2523553489723
313.979006491525;77.9958775444795
314.000630140924;77.7141852343231
314.022253790323;77.4355788679132
314.043877439722;77.1662894910848
314.065501089121;76.8975472076831
314.08712473852;76.6211956663152
314.108748387919;76.3471332171478
314.130372037318;76.0951613878129
314.151995686717;75.8756200867624
314.173619336116;75.6933975827983
314.195242985515;75.5639299938206
314.216866634914;75.5047445750444
314.238490284313;75.52186264744
314.260113933712;75.6136627950091
314.281737583111;75.7826410898068
314.30336123251;76.0319499013376
314.324984881909;76.3471972998574
314.346608531308;76.7065143017077
314.368232180707;77.1058008219514
314.389855830106;77.5290234101875
314.411479479505;77.9319328970277
314.433103128904;78.2847737133248
314.454726778303;78.5917325579019
314.476350427702;78.833028491421
314.497974077101;78.9727895472092
314.5195977265;79.0063115876134
314.541221375899;78.9415618499455
314.562845025298;78.7801591677577
314.584468674697;78.5423178917544
314.606092324096;78.2489786985179
314.627715973495;77.9161115002321
314.649339622894;77.5558239488232
314.670963272293;77.1837588506034
314.692586921692;76.8250198046982
314.714210571091;76.5150481831763
314.73583422049;76.2681562497651
314.757457869889;76.0835654252634
314.779081519288;75.9553772472933
314.800705168687;75.8752392874962
314.822328818086;75.8329174786015
314.843952467485;75.8160230037757
314.865576116884;75.8034269131487
314.887199766283;75.7701854579234
314.908823415682;75.704852054798
314.930447065081;75.6081790419121
314.95207071448;75.4793272855007
314.973694363879;75.3165078738116
314.995318013278;75.1162665754974
315.016941662677;74.8764208464058
315.038565312076;74.599692105082
315.060188961475;74.2905264697194
315.081812610874;73.9657250344372
315.103436260273;73.6355630447291
315.125059909672;73.3189623358841
315.146683559071;73.0310429079844
315.16830720847;72.7687541906909
315.189930857869;72.5323470591168
315.211554507268;72.3245488926658
315.233178156667;72.1468671559461
315.254801806066;71.9975785477202
315.276425455465;71.8788957997754
315.298049104864;71.8013681155103
315.319672754263;71.7713524012808
315.341296403662;71.7920608053343
315.362920053061;71.8592188710366
315.38454370246;71.9330322225158
315.406167351859;72.0038749167283
315.427791001258;72.0818661888115
315.449414650657;72.1643165063077
315.471038300056;72.2358067992961
315.492661949455;72.2909261335559
315.514285598854;72.3341642870577
315.535909248253;72.3629839583331
315.557532897652;72.3745590211931
315.579156547051;72.3701091757092
315.60078019645;72.3556426909075
315.622403845849;72.3415368715735
315.644027495248;72.3402858179442
315.665651144647;72.3583794731276
315.687274794046;72.3939423094166
315.708898443445;72.4437444473079
315.730522092844;72.5088417170873
315.752145742243;72.5939287318528
315.773769391642;72.6917254622709
315.795393041041;72.7882212223159
315.81701669044;72.8767840381754
315.838640339839;72.9588027513921
315.860263989238;73.0327150924767
315.881887638637;73.0907426959499
315.903511288036;73.1270735485884
315.925134937435;73.1477516060958
315.946758586834;73.1588564801655
315.968382236233;73.1600189479957
315.990005885632;73.1484720200231
316.011629535031;73.125009905866
316.03325318443;73.0986446589289
316.054876833829;73.0624595791534
316.076500483228;73.013262193237
316.098124132627;72.9525606003886
316.119747782026;72.8790211127778
316.141371431425;72.7859316371787
316.162995080824;72.6707933101633
316.184618730223;72.5349635716344
316.206242379622;72.3744487351902
316.227866029021;72.1762868698521
316.24948967842;71.9355450549081
316.271113327819;71.6656854131
316.292736977218;71.3682413844718
316.314360626617;71.0333963804981
316.335984276016;70.6569758333675
316.357607925415;70.2503156869323
316.379231574814;69.816491071063
316.400855224213;69.3590181512487
316.422478873612;68.9024727171246
316.444102523011;68.4703392313951
316.46572617241;68.0973487364706
316.487349821809;67.7990496145797
316.508973471208;67.5684958233529
316.530597120607;67.3983280258634
316.552220770006;67.2841968364094
316.573844419405;67.2255280374043
316.595468068804;67.2219455379084
316.617091718203;67.26582106964
316.638715367602;67.3477773207383
316.660339017001;67.4597201469455
316.6819626664;67.5953880490834
316.703586315799;67.7505318950993
316.725209965198;67.9134077976188
316.746833614597;68.0728054821519
316.768457263996;68.2297080596094
316.790080913395;68.3886107216332
316.811704562794;68.5532457657161
316.833328212193;68.7251595958333
316.854951861592;68.8995745612276
316.876575510991;69.0649277710944
316.89819916039;69.2124686446851
316.919822809789;69.3383732779523
316.941446459188;69.4337539949613
316.963070108587;69.5001085232701
316.984693757986;69.5465414811564
317.006317407385;69.5797970412063
317.027941056784;69.6050363040639
317.049564706183;69.6330732482363
317.071188355582;69.6756819299242
317.092812004981;69.728871745421
317.11443565438;69.7844953330215
317.136059303779;69.8435800437177
317.157682953178;69.9104525035287
317.179306602577;69.9805499821741
317.200930251976;70.0420669318232
317.222553901375;70.0777885253734
317.244177550774;70.0793733275035
317.265801200173;70.0414872775471
317.287424849572;69.9570539486974
317.309048498971;69.829694058409
317.33067214837;69.6733194010016
317.352295797769;69.5041637464916
317.373919447168;69.3327390353533
317.395543096567;69.1600718446338
317.417166745966;69.0123002826777
317.438790395365;68.9238217336223
317.460414044764;68.9060177891318
317.482037694163;68.9642856662731
317.503661343562;69.1014674803684
317.525284992961;69.303279075074
317.54690864236;69.5541482295996
317.568532291759;69.8543609644231
317.590155941158;70.2084246688677
317.611779590557;70.6087857663295
317.633403239956;71.0340850493508
317.655026889355;71.4541585810648
317.676650538754;71.8396409496878
317.698274188153;72.1905611508866
317.719897837552;72.4979161585146
317.741521486951;72.7535729686853
317.76314513635;72.9546172020929
317.784768785749;73.1038367122564
317.806392435148;73.2000288574943
317.828016084547;73.2434840359889
317.849639733946;73.2436802966753
317.871263383345;73.2279685385788
317.892887032744;73.2133491230519
317.914510682143;73.1995460642912
317.936134331542;73.1909930291368
317.957757980941;73.1990579966963
317.97938163034;73.2241573020478
318.001005279739;73.2679974569572
318.022628929138;73.3397486862435
318.044252578537;73.4483260691722
318.065876227936;73.5955117710863
318.087499877335;73.7617008069232
318.109123526734;73.9324021031799
318.130747176133;74.1089068638119
318.152370825532;74.2860935940061
318.173994474931;74.4585663563891
318.19561812433;74.6228183684076
318.217241773729;74.7664499909515
318.238865423128;74.8786823951298
318.260489072527;74.9598333996745
318.282112721926;75.0169748714155
318.303736371325;75.0582059117235
318.325360020724;75.0821464986167
318.346983670123;75.078010592519
318.368607319522;75.0427950234924
318.390230968921;74.9854096823713
318.41185461832;74.9102387284409
318.433478267719;74.8155202935306
318.455101917118;74.6924446230222
318.476725566517;74.5431712810544
318.498349215916;74.3832170812047
318.519972865315;74.2097104918512
318.541596514714;74.0107232343205
318.563220164113;73.7844956492399
318.584843813512;73.5438573639343
318.606467462911;73.297178148378
318.62809111231;73.0502198574499
318.649714761709;72.808311184529
318.671338411108;72.5728057171761
318.692962060507;72.3448359579181
318.714585709906;72.1205962254909
318.736209359305;71.8956005595017
318.757833008704;71.667766273445
318.779456658103;71.4328217985221
318.801080307502;71.1864410693551
318.822703956901;70.9196494536061
318.8443276063;70.6164997862168
318.865951255699;70.2627328189793
318.887574905098;69.8584162376425
318.909198554497;69.4133204762075
318.930822203896;68.9374372571626
318.952445853295;68.4350905791256
318.974069502694;67.9169083324341
318.995693152093;67.3908762375714
319.017316801492;66.8537069342303
319.038940450891;66.2941509355319
319.06056410029;65.7317950456592
319.082187749689;65.2068105897731
319.103811399088;64.7430408804177
319.125435048487;64.33767848439
319.147058697886;63.9752530427346
319.168682347285;63.6531067934811
319.190305996684;63.4007790218823
319.211929646083;63.2195541890712
319.233553295482;63.0937056425222
319.255176944881;63.0135672180224
319.27680059428;62.978920651661
319.298424243679;62.9909855083033
319.320047893078;63.0382922873126
319.341671542477;63.1007606475504
319.363295191876;63.1608985036567
319.384918841275;63.2155263549043
319.406542490674;63.2659769943116
319.428166140073;63.3095519953162
319.449789789472;63.3329857439958
319.471413438871;63.3115201981806
319.49303708827;63.2403640659702
319.514660737669;63.1267394392615
319.536284387068;62.9747360923924
319.557908036467;62.7995823269471
319.579531685866;62.6126298393588
319.601155335265;62.422199603743
319.622778984664;62.218924089769
319.644402634063;62.0012282026826
319.666026283462;61.7788398315445
319.687649932861;61.5486686383813
319.70927358226;61.3045678022078
319.730897231659;61.0606023515119
319.752520881058;60.8367984550695
319.774144530457;60.6281364522617
319.795768179856;60.42816264858
319.817391829255;60.2403580398784
319.839015478654;60.0771427595983
319.860639128053;59.9467911666118
319.882262777452;59.853360874575
319.903886426851;59.7936660917388
319.92551007625;59.7579428234811
319.947133725649;59.7620678122152
319.968757375048;59.8129572460974
319.990381024447;59.9025875151085
320.012004673846;60.027098512084
320.033628323245;60.1811231088384
320.055251972644;60.360529184054
320.076875622043;60.5638431265133
320.098499271442;60.7849360760317
320.120122920841;61.0151870094805
320.14174657024;61.2487427402822
320.163370219639;61.4838434503819
320.184993869038;61.7224943264688
320.206617518437;61.9675681310759
320.228241167836;62.2214026990153
320.249864817235;62.4843284503456
320.271488466634;62.7514099004459
320.293112116033;63.0237880176574
320.314735765432;63.2874856816558
320.336359414831;63.5268716195562
320.35798306423;63.7416247379885
320.379606713629;63.9312881430259
320.401230363028;64.0854449793774
320.422854012427;64.1998426369573
320.444477661826;64.2774703921079
320.466101311225;64.3213114734187
320.487724960624;64.3308472730115
320.509348610023;64.3074923560447
320.530972259422;64.2555160712748
320.552595908821;64.1783122347407
320.57421955822;64.0768897784669
320.595843207619;63.9566792332831
320.617466857018;63.8296914913264
320.639090506417;63.705324307168
320.660714155816;63.5875021642639
320.682337805215;63.4743106508382
320.703961454614;63.3586974305695
320.725585104013;63.2335069947738
320.747208753412;63.1026330199812
320.768832402811;62.9770993896185
320.79045605221;62.8592482069258
320.812079701609;62.7435150627579
320.833703351008;62.6326279165987
320.855327000407;62.5323478639294
320.876950649806;62.4479808000232
320.898574299205;62.3836890975873
320.920197948604;62.3388756093575
320.941821598003;62.3091527261453
320.963445247402;62.2961999575205
320.985068896801;62.3102171781295
321.006692546201;62.3504213689614
321.028316195599;62.4067555529252
321.049939844998;62.4693462766273
321.071563494397;62.5281028626819
321.093187143796;62.5715561767005
321.114810793195;62.5897667977951
321.136434442594;62.579709895281
321.158058091994;62.5362037940311
321.179681741392;62.4531508424914
321.201305390792;62.3353140274329
321.22292904019;62.1970088384469
321.24455268959;62.0434979558048
321.266176338988;61.8744657823915
321.287799988388;61.6939003304512
321.309423637786;61.5135825806993
321.331047287186;61.3466069767754
321.352670936585;61.2027133698697
321.374294585983;61.0841261357012
321.395918235383;60.9864956192538
321.417541884781;60.9014046332059
321.439165534181;60.8252092907944
321.460789183579;60.7614135452634
321.482412832979;60.7103730217334
321.504036482378;60.6607014120177
321.525660131777;60.6020156732882
321.547283781176;60.5349433615777
321.568907430575;60.4455456641101
321.590531079974;60.3037052481243
321.612154729373;60.1069340153119
321.633778378772;59.8834972380898
321.655402028171;59.6325358557753
321.67702567757;59.3605172105183
321.698649326969;59.0744372296121
321.720272976368;58.7784958483707
321.741896625767;58.4764814770819
321.763520275166;58.173721058429
321.785143924565;57.8746860467537
321.806767573964;57.5804185458137
321.828391223363;57.2863229554528
321.850014872762;56.9876443704877
321.871638522161;56.6965202454136
321.89326217156;56.4243174856812
321.914885820959;56.1633455569598
321.936509470358;55.9190017236836
321.958133119757;55.7014292712719
321.979756769156;55.5022593887896
322.001380418555;55.3145416005641
322.023004067954;55.137992708357
322.044627717353;54.9833256927578
322.066251366752;54.8660668057255
322.087875016151;54.7886478799078
322.10949866555;54.7441168877011
322.131122314949;54.7276143061989
322.152745964348;54.7385523939104
322.174369613747;54.7707808546108
322.195993263146;54.8124476914133
322.217616912545;54.8552812598025
322.239240561944;54.8937444877995
322.260864211343;54.9202738328096
322.282487860742;54.9212850070007
322.304111510141;54.8823399511227
322.32573515954;54.8094848874061
322.347358808939;54.7141252699121
322.368982458338;54.6038385303961
322.390606107737;54.48354337628
322.412229757136;54.3647965576917
322.433853406535;54.2678038640064
322.455477055934;54.2074601206323
322.477100705333;54.1857245668211
322.498724354732;54.2061333869861
322.520348004131;54.2754795892229
322.54197165353;54.3960427137635
322.563595302929;54.5650325410089
322.585218952328;54.7796201761427
322.606842601727;55.0353003688474
322.628466251126;55.3200166742038
322.650089900525;55.6147288239245
322.671713549924;55.9047401281295
322.693337199323;56.1874819707484
322.714960848722;56.4577068446823
322.736584498121;56.6895542389393
322.75820814752;56.8551379635971
322.779831796919;56.9495169308978
322.801455446318;56.9815937918541
322.823079095717;56.962828632716
322.844702745116;56.894216603686
322.866326394515;56.7730752839635
322.887950043914;56.5997689859844
322.909573693313;56.3860483059834
322.931197342712;56.147389753543
322.952820992111;55.8877748778697
322.97444464151;55.6005482743834
322.996068290909;55.2837854653966
323.017691940308;54.9606689089342
323.039315589707;54.6466050074761
323.060939239106;54.3388291592818
323.082562888505;54.0373349189327
323.104186537904;53.7485778718938
323.125810187303;53.4734547314444
323.147433836702;53.1975763110653
323.169057486101;52.9108766826137
323.1906811355;52.6225883406141
323.212304784899;52.3470835673066
323.233928434298;52.0815744307991
323.255552083697;51.8092712749904
323.277175733096;51.5115060197311
323.298799382495;51.1801790431179
323.320423031894;50.8218948833756
323.342046681293;50.4345977871526
323.363670330692;50.0215418363862
323.385293980091;49.5950080070292
323.40691762949;49.1673823293469
323.428541278889;48.7415050988642
323.450164928288;48.3161078586342
323.471788577687;47.8893109525944
323.493412227086;47.4682060647738
323.515035876485;47.0638871685691
323.536659525884;46.6843167474389
323.558283175283;46.3246037151239
323.579906824682;45.9820380834733
323.601530474081;45.6645169393966
323.62315412348;45.3697490114422
323.644777772879;45.0877797655945
323.666401422278;44.8096146173075
323.688025071677;44.5485664359193
323.709648721076;44.3144199952801
323.731272370475;44.0965364491885
323.752896019874;43.8873587491505
323.774519669273;43.6876993464672
323.796143318672;43.4949600599904
323.817766968071;43.3092839170634
323.83939061747;43.1338874760484
323.861014266869;42.9736649123405
323.882637916268;42.8419725923211
323.904261565667;42.7420344215381
323.925885215066;42.6664324172219
323.947508864465;42.6121190136309
323.969132513864;42.576137458056
323.990756163263;42.5682323213876
324.012379812662;42.6005981442286
324.034003462061;42.6860851029215
324.05562711146;42.8114749425096
324.077250760859;42.9460765017577
324.098874410258;43.0804810153928
324.120498059657;43.2258195957921
324.142121709056;43.3879892894237
324.163745358455;43.5581696851281
324.185369007854;43.7283648694753
324.206992657253;43.9016080058087
324.228616306652;44.0688645938468
324.250239956051;44.2223924247266
324.27186360545;44.3564805195185
324.293487254849;44.4650363234672
324.315110904248;44.5449215564351
324.336734553647;44.6010548177308
324.358358203046;44.6260814506636
324.379981852445;44.6102417230895
324.401605501844;44.5524076291205
324.423229151243;44.4539698480192
324.444852800642;44.3156571334595
324.466476450041;44.1416465756655
324.48810009944;43.9275553276716
324.509723748839;43.6754179906335
324.531347398238;43.4037283272969
324.552971047637;43.1211035748562
324.574594697036;42.8327630974763
324.596218346435;42.5446999134195
324.617841995834;42.2506174418437
324.639465645233;41.9416175123567
324.661089294632;41.6204766746444
324.682712944031;41.2943300794423
324.70433659343;40.9602982999748
324.725960242829;40.6174043332512
324.747583892228;40.2643603690836
324.769207541627;39.905251262306
