Name;ESR_BC_1_359s_Z_gon_20dg_result

Recipe
Accumulations;5;Number of accumulations
RetryCount;0;Number of retries on error
AbortOnError;True;Abort on error
EnableQFactorMeasurement;False;Enable/Disable q-Factor measurement
Bfrom;313;B from
Bto;363;B to
SweepTime;60;Sweep time
Modulation;0.2;Modulation
ModulationFreq;100;Modulation
BHoldEnabled;False;B hold enabled
BHold;0;B hold
MicrowavePower;2;Microwave power
MarkerEnabled;False;
MarkerStartField;0;
MarkerEndField;0;
Mode;;
KineticGFact;0;
KineticTotalTransientTime;0;
KineticTimeResolution;0;
TempFrom;5;
TempUseSlope;False;
TempTo;5;
TempdT;1;
TempSetupTime;0;
GonFrom;0;
GonTo;180;
GonSteps;20;
XRayEnabled;False;
XRayTime;3;
XRayVoltage;40;
XRayCurrent;0.5;
UVEnabled;False;
UVIntensity;0;
UVTime;0;
UVLeadTime;0;
UVWavelength;0;
PowSweepFrom;1;
PowSweepTo;5;
PowSweepSteps;5;
AmpModSweepFrom;0;
AmpModSweepTo;1;
AmpModSweepSteps;10;
ExtTriggerEnabled;False;
ExtTrigLeadTime;0;
ExtTrigOnTime;5;

Meas
BField [mT];MW_Absorption []
313.025632705689;79.5868406038718
313.047255251699;79.1721983520534
313.068877797709;78.8864277184082
313.090500343719;78.7178309033422
313.112122889729;78.6544077167111
313.13374543574;78.6841450554399
313.15536798175;78.7943105102982
313.17699052776;78.9699699137931
313.19861307377;79.1993626609341
313.22023561978;79.4730124262052
313.241858165791;79.7749216334176
313.263480711801;80.1071241433589
313.285103257811;80.4643016246778
313.306725803821;80.818727414159
313.328348349831;81.1572480472977
313.349970895842;81.4993861988591
313.371593441852;81.8587082982143
313.393215987862;82.2227370815035
313.414838533872;82.5756016785179
313.436461079882;82.9077238553595
313.458083625893;83.2091392831504
313.479706171903;83.4784825645541
313.501328717913;83.7157473676111
313.522951263923;83.9014640252269
313.544573809933;84.0175698949539
313.566196355944;84.0588420135807
313.587818901954;84.0165920281996
313.609441447964;83.8822701487931
313.631063993974;83.6784869446737
313.652686539984;83.4256611694516
313.674309085995;83.1331746495554
313.695931632005;82.8126907219091
313.717554178015;82.4817910465581
313.739176724025;82.1481193206152
313.760799270035;81.8254944408203
313.782421816046;81.5393199488699
313.804044362056;81.310745921816
313.825666908066;81.1408023769404
313.847289454076;81.0111056478248
313.868912000086;80.9188575480469
313.890534546097;80.8707122803837
313.912157092107;80.8661547149927
313.933779638117;80.8992379431324
313.955402184127;80.9664792810557
313.977024730137;81.0706810975528
313.998647276148;81.2023832341951
314.020269822158;81.3343992345918
314.041892368168;81.4475640427633
314.063514914178;81.5373505839531
314.085137460188;81.6040020273362
314.106760006199;81.6538930681439
314.128382552209;81.6912032589954
314.150005098219;81.7166142651565
314.171627644229;81.728958503522
314.19325019024;81.7270092067066
314.21487273625;81.7167157408473
314.23649528226;81.7098763565766
314.25811782827;81.7175429341317
314.27974037428;81.749664716236
314.301362920291;81.8132313626587
314.322985466301;81.9236517881652
314.344608012311;82.09293333871
314.366230558321;82.316152746617
314.387853104331;82.5803491232075
314.409475650342;82.8792919972647
314.431098196352;83.2158271456878
314.452720742362;83.5682230886778
314.474343288372;83.9285439481954
314.495965834382;84.3058512567208
314.517588380393;84.6951190250452
314.539210926403;85.0792467255475
314.560833472413;85.42171526759
314.582456018423;85.7146423971967
314.604078564433;85.9708504910915
314.625701110444;86.1909848574582
314.647323656454;86.3656689221196
314.668946202464;86.4919940366657
314.690568748474;86.5663835250002
314.712191294484;86.5891978507099
314.733813840495;86.5751958974536
314.755436386505;86.5360009982044
314.777058932515;86.4700039555884
314.798681478525;86.3748322857485
314.820304024535;86.2575786995183
314.841926570546;86.1230741302027
314.863549116556;85.9736262748468
314.885171662566;85.8101553705946
314.906794208576;85.6291701345038
314.928416754586;85.4337097315807
314.950039300597;85.2331685216612
314.971661846607;85.0319284803271
314.993284392617;84.8334692451962
315.014906938627;84.6502294741555
315.036529484637;84.495493337407
315.058152030648;84.3707156267223
315.079774576658;84.2746528306264
315.101397122668;84.2096394671447
315.123019668678;84.1819122185411
315.144642214688;84.1963492747168
315.166264760699;84.2413011457261
315.187887306709;84.2945965838513
315.209509852719;84.3387839028211
315.231132398729;84.3729415753329
315.252754944739;84.3946371392103
315.27437749075;84.3808197937977
315.29600003676;84.3163294918083
315.31762258277;84.1945660039266
315.33924512878;84.0249739559023
315.36086767479;83.8232232420324
315.382490220801;83.5945798891893
315.404112766811;83.34292728589
315.425735312821;83.0784330064598
315.447357858831;82.8098711268379
315.468980404841;82.5378109261138
315.490602950852;82.2635187804608
315.512225496862;81.9979611608748
315.533848042872;81.7440712972489
315.555470588882;81.5001488135812
315.577093134892;81.2637295453311
315.598715680903;81.0247116659989
315.620338226913;80.7486806861075
315.641960772923;80.4434032875833
315.663583318933;80.1385288245251
315.685205864944;79.8427796910517
315.706828410954;79.5491700265753
315.728450956964;79.2522208050308
315.750073502974;78.9559794974586
315.771696048984;78.6742351039977
315.793318594995;78.4200624745592
315.814941141005;78.2012657524218
315.836563687015;78.0142918351162
315.858186233025;77.8625119968175
315.879808779035;77.7481473268221
315.901431325046;77.6733424009299
315.923053871056;77.6374479538576
315.944676417066;77.6326432034055
315.966298963076;77.6523699707956
315.987921509086;77.6983929747861
316.009544055097;77.7858787151421
316.031166601107;77.9135779729262
316.052789147117;78.0517604747808
316.074411693127;78.1877763876907
316.096034239137;78.3252890239014
316.117656785148;78.4619989021039
316.139279331158;78.583606537162
316.160901877168;78.6796593455031
316.182524423178;78.7332371984104
316.204146969188;78.7346307700288
316.225769515199;78.6884707030674
316.247392061209;78.5886315500634
316.269014607219;78.4283828143479
316.290637153229;78.2127147227523
316.312259699239;77.9582873893918
316.33388224525;77.6796220469935
316.35550479126;77.3772137539691
316.37712733727;77.0599883734643
316.39874988328;76.744650535234
316.42037242929;76.4439884693882
316.441994975301;76.1798162705684
316.463617521311;75.9674966041825
316.485240067321;75.8072152189356
316.506862613331;75.6943342543162
316.528485159341;75.6310298086159
316.550107705352;75.6170486242493
316.571730251362;75.6458166439854
316.593352797372;75.7148494578147
316.614975343382;75.8283002769017
316.636597889392;75.9803565988494
316.658220435403;76.1444022537221
316.679842981413;76.3037495763545
316.701465527423;76.4514215277079
316.723088073433;76.5810169899756
316.744710619443;76.6921859399801
316.766333165454;76.787046035709
316.787955711464;76.8697163102272
316.809578257474;76.937783594173
316.831200803484;76.9862306383218
316.852823349494;77.0045504052434
316.874445895505;76.9954725955104
316.896068441515;76.9702521257083
316.917690987525;76.9351317576712
316.939313533535;76.8885478091614
316.960936079545;76.8332648835797
316.982558625556;76.7797943127791
317.004181171566;76.7415204912061
317.025803717576;76.7333327381961
317.047426263586;76.7642878432785
317.069048809597;76.824083146627
317.090671355607;76.9136045294392
317.112293901617;77.0397401564008
317.133916447627;77.2043484293068
317.155538993637;77.3854217927295
317.177161539648;77.5626732656208
317.198784085658;77.7288811324329
317.220406631668;77.8889438334394
317.242029177678;78.0429593913258
317.263651723688;78.1852244039066
317.285274269699;78.3133258942106
317.306896815709;78.425882720566
317.328519361719;78.527301216407
317.350141907729;78.6262800393885
317.371764453739;78.7249488215171
317.39338699975;78.812600832047
317.41500954576;78.8845750101703
317.43663209177;78.9429860929377
317.45825463778;78.987721897299
317.47987718379;79.0142071142706
317.501499729801;79.0126662486228
317.523122275811;78.9738551574374
317.544744821821;78.8976013280116
317.566367367831;78.7937978077046
317.587989913841;78.6701973509078
317.609612459852;78.5186021827381
317.631235005862;78.3360875481815
317.652857551872;78.1340817205991
317.674480097882;77.9191705620922
317.696102643892;77.6876107407751
317.717725189903;77.4567186823781
317.739347735913;77.2388370048779
317.760970281923;77.0286113693362
317.782592827933;76.819767902858
317.804215373943;76.6045685985925
317.825837919954;76.3774380541308
317.847460465964;76.1397374060208
317.869083011974;75.8860203801404
317.890705557984;75.6038728638722
317.912328103994;75.2880975862725
317.933950650005;74.9430056362926
317.955573196015;74.5713707639869
317.977195742025;74.171282463008
317.998818288035;73.7523902827809
318.020440834045;73.3217611207925
318.042063380056;72.8849076460988
318.063685926066;72.4615096934733
318.085308472076;72.0644449981868
318.106931018086;71.6921516606646
318.128553564096;71.3516389459055
318.150176110107;71.0589817653885
318.171798656117;70.8160045799654
318.193421202127;70.6181978146672
318.215043748137;70.4694171435072
318.236666294147;70.3754904296248
318.258288840158;70.3347112078365
318.279911386168;70.3430245094431
318.301533932178;70.3942925479427
318.323156478188;70.488690984141
318.344779024198;70.6197168648259
318.366401570209;70.7695847797043
318.388024116219;70.9353126934911
318.409646662229;71.1164789426512
318.431269208239;71.3033735817964
318.452891754249;71.4756356261915
318.47451430026;71.6329712669585
318.49613684627;71.7826663762248
318.51775939228;71.9233941740779
318.53938193829;72.0441610335594
318.561004484301;72.1528599303122
318.582627030311;72.2614789959933
318.604249576321;72.3661654443396
318.625872122331;72.4628853108575
318.647494668341;72.5543970668042
318.669117214352;72.6471931049673
318.690739760362;72.7462901696967
318.712362306372;72.8468183203238
318.733984852382;72.9374977941629
318.755607398392;73.0112992302591
318.777229944403;73.064604458775
318.798852490413;73.1016447555895
318.820475036423;73.119821390871
318.842097582433;73.1144006801611
318.863720128443;73.0870303430051
318.885342674454;73.038700157406
318.906965220464;72.9623706641597
318.928587766474;72.8586854352628
318.950210312484;72.7311382047488
318.971832858494;72.5678643161734
318.993455404505;72.376615931269
319.015077950515;72.1574863006646
319.036700496525;71.9223589848265
319.058323042535;71.6724263167998
319.079945588545;71.40307265462
319.101568134556;71.1363991636246
319.123190680566;70.8807905123278
319.144813226576;70.6392757767587
319.166435772586;70.4089750313494
319.188058318596;70.1883188180802
319.209680864607;69.9724956764636
319.231303410617;69.7647712881203
319.252925956627;69.5806320304947
319.274548502637;69.4102921310722
319.296171048647;69.2423703400339
319.317793594658;69.0716145512893
319.339416140668;68.9059655069609
319.361038686678;68.7547912322083
319.382661232688;68.6132420097646
319.404283778698;68.4754110827166
319.425906324709;68.340781088318
319.447528870719;68.2101021467493
319.469151416729;68.0833223486935
319.490773962739;67.9655026434103
319.512396508749;67.8519602797992
319.53401905476;67.7394149713983
319.55564160077;67.6273192550823
319.57726414678;67.518096824218
319.59888669279;67.4164043454578
319.6205092388;67.3226897176227
319.642131784811;67.237642306975
319.663754330821;67.1626714063317
319.685376876831;67.099825829544
319.706999422841;67.0513667538459
319.728621968851;67.0177018063465
319.750244514862;66.9955172414971
319.771867060872;66.979275349525
319.793489606882;66.9659024490153
319.815112152892;66.9520689381902
319.836734698902;66.9350717609915
319.858357244913;66.9188897101909
319.879979790923;66.9108207557549
319.901602336933;66.9128453715226
319.923224882943;66.9239198967553
319.944847428953;66.9489464304069
319.966469974964;66.9894798893699
319.988092520974;67.0423299937067
320.009715066984;67.1124107135231
320.031337612994;67.2061600171812
320.052960159005;67.3252791344429
320.074582705015;67.4742199021851
320.096205251025;67.6618699183546
320.117827797035;67.8865866701744
320.139450343045;68.1415090120966
320.161072889056;68.4228800498402
320.182695435066;68.7201538818157
320.204317981076;69.0216191683561
320.225940527086;69.3204582542921
320.247563073096;69.599548114307
320.269185619107;69.8314995962235
320.290808165117;70.009952017856
320.312430711127;70.133715505755
320.334053257137;70.1954122191478
320.355675803147;70.192838822888
320.377298349158;70.1360936894092
320.398920895168;70.0342258125252
320.420543441178;69.8954020437533
320.442165987188;69.7283075687417
320.463788533198;69.5452381403883
320.485411079209;69.3645013878874
320.507033625219;69.1998782317916
320.528656171229;69.0578388951902
320.550278717239;68.941421543393
320.571901263249;68.8498401732934
320.59352380926;68.7785889750813
320.61514635527;68.7266768716178
320.63676890128;68.6906581227873
320.65839144729;68.6629770427077
320.6800139933;68.6327527361203
320.701636539311;68.5850343123909
320.723259085321;68.5167216248207
320.744881631331;68.4398394585446
320.766504177341;68.3629313455164
320.788126723351;68.2875410565983
320.809749269362;68.2164364018682
320.831371815372;68.1563144370665
320.852994361382;68.1190766759944
320.874616907392;68.1139899810804
320.896239453402;68.1459299522396
320.917861999413;68.2190435976352
320.939484545423;68.3238629289391
320.961107091433;68.4430967629535
320.982729637443;68.5732248055188
321.004352183453;68.7178031647035
321.025974729464;68.8669740608821
321.047597275474;69.0062784294848
321.069219821484;69.121639515357
321.090842367494;69.1986836068454
321.112464913504;69.2323515804928
321.134087459515;69.2216580728412
321.155710005525;69.1617474963355
321.177332551535;69.0449154969388
321.198955097545;68.87014348559
321.220577643555;68.6360774134769
321.242200189566;68.346572165219
321.263822735576;68.0168787860795
321.285445281586;67.6614480992125
321.307067827596;67.2900453448274
321.328690373607;66.914250767236
321.350312919617;66.549704574877
321.371935465627;66.2123981171392
321.393558011637;65.9145018359166
321.415180557647;65.658827201183
321.436803103658;65.4407601954286
321.458425649668;65.2555557096109
321.480048195678;65.1019583298829
321.501670741688;64.9794919621096
321.523293287698;64.8819500422962
321.544915833709;64.7985269277626
321.566538379719;64.7226655013939
321.588160925729;64.6503250741433
321.609783471739;64.5723835659733
321.631406017749;64.4816977936241
321.65302856376;64.3748041131509
321.67465110977;64.2535835828865
321.69627365578;64.12219385911
321.71789620179;63.9801437885734
321.7395187478;63.8205444829774
321.761141293811;63.6392156747524
321.782763839821;63.4344184500199
321.804386385831;63.2075208935908
321.826008931841;62.9631211359863
321.847631477851;62.712091195595
321.869254023862;62.4599976829301
321.890876569872;62.2057515823411
321.912499115882;61.9478058058328
321.934121661892;61.6867221527841
321.955744207902;61.43241092705
321.977366753913;61.2038222574134
321.998989299923;61.0167721442161
322.020611845933;60.8746661851612
322.042234391943;60.7860863015238
322.063856937953;60.7638966737762
322.085479483964;60.8114860533722
322.107102029974;60.9129982232759
322.128724575984;61.0660215591269
322.150347121994;61.2718202201713
322.171969668004;61.5349505672828
322.193592214015;61.8528066730346
322.215214760025;62.1964514322538
322.236837306035;62.5377836978219
322.258459852045;62.8776457370454
322.280082398055;63.226680371678
322.301704944066;63.5965506726403
322.323327490076;63.9704093225787
322.344950036086;64.31525987363
322.366572582096;64.6248958576039
322.388195128106;64.9046460778311
322.409817674117;65.1552631881668
322.431440220127;65.3834862695733
322.453062766137;65.5956197796497
322.474685312147;65.7853334210031
322.496307858157;65.951519244768
322.517930404168;66.0949030082752
322.539552950178;66.2065955327644
322.561175496188;66.2818191012725
322.582798042198;66.3147436185864
322.604420588208;66.2955619620446
322.626043134219;66.2245882235277
322.647665680229;66.0979161924722
322.669288226239;65.9031300619643
322.690910772249;65.6277445106307
322.71253331826;65.2545442228882
322.73415586427;64.7977965220001
322.75577841028;64.2559897224915
322.77740095629;63.6201653566149
322.7990235023;62.9197807481819
322.820646048311;62.2066500385703
322.842268594321;61.4890036888099
322.863891140331;60.7596567868519
322.885513686341;60.0309787570643
322.907136232351;59.3404322740134
322.928758778362;58.712428659928
322.950381324372;58.1558283000828
322.972003870382;57.6832960505893
322.993626416392;57.3103443190844
323.015248962402;57.0301535945194
323.036871508413;56.8233085804497
323.058494054423;56.6940399309115
323.080116600433;56.6439904823032
323.101739146443;56.6487582631452
323.123361692453;56.6989811711172
323.144984238464;56.7952765422782
323.166606784474;56.938141530142
323.188229330484;57.1184105888863
323.209851876494;57.3119609187863
323.231474422504;57.5112538808726
323.253096968515;57.7205879082202
323.274719514525;57.9351934787796
323.296342060535;58.1375396717866
323.317964606545;58.3188434059812
323.339587152555;58.4746885707041
323.361209698566;58.6052462936681
323.382832244576;58.7111189983439
323.404454790586;58.7882001595334
323.426077336596;58.8381551810492
323.447699882606;58.8690247997883
323.469322428617;58.8855355794933
323.490944974627;58.8920246972482
323.512567520637;58.8970692070097
323.534190066647;58.8927512476134
323.555812612657;58.8811400127156
323.577435158668;58.8575124151242
323.599057704678;58.8184243161777
323.620680250688;58.765793026643
323.642302796698;58.7019415796404
323.663925342708;58.6309211987554
323.685547888719;58.5539514703848
323.707170434729;58.4593051343368
323.728792980739;58.3475615288533
323.750415526749;58.2243618428044
323.772038072759;58.0796723410119
323.79366061877;57.9037139014015
323.81528316478;57.7019288847069
323.83690571079;57.484647632984
323.8585282568;57.2524457422993
323.88015080281;57.0088639150277
323.901773348821;56.7692779366222
323.923395894831;56.5567228599697
323.945018440841;56.3704985500571
323.966640986851;56.2000375426449
323.988263532862;56.057098571298
324.009886078872;55.9635615829157
324.031508624882;55.9206274524953
324.053131170892;55.9075093152708
324.074753716902;55.9133961013386
324.096376262913;55.9318544022786
324.117998808923;55.9484782154321
324.139621354933;55.9552483916525
324.161243900943;55.9478813770858
324.182866446953;55.9258690467431
324.204488992964;55.8789067166418
324.226111538974;55.7978417050105
324.247734084984;55.687187288444
324.269356630994;55.552938129108
324.290979177004;55.3982526131121
324.312601723015;55.2305708952445
324.334224269025;55.0617855143435
324.355846815035;54.9061347333249
324.377469361045;54.7798715833536
324.399091907055;54.6916782355973
324.420714453066;54.6454470023648
324.442336999076;54.6424853175831
324.463959545086;54.6819541938951
324.485582091096;54.7554198293723
324.507204637106;54.8454600563862
324.528827183117;54.9400348274665
324.550449729127;55.0306533316329
324.572072275137;55.090894866297
324.593694821147;55.1021872179946
324.615317367157;55.0575015193011
324.636939913168;54.9504052905555
324.658562459178;54.7721112061383
324.680185005188;54.5248982628096
324.701807551198;54.2155350718636
324.723430097208;53.8532051758899
324.745052643219;53.4481501297133
324.766675189229;53.0103864852237
324.788297735239;52.5559722776909
