Name;ESR_BC_1_840s_Y_gon_60dg_result

Recipe
Accumulations;5;Number of accumulations
RetryCount;0;Number of retries on error
AbortOnError;True;Abort on error
EnableQFactorMeasurement;False;Enable/Disable q-Factor measurement
Bfrom;313;B from
Bto;363;B to
SweepTime;60;Sweep time
Modulation;0.2;Modulation
ModulationFreq;100;Modulation
BHoldEnabled;False;B hold enabled
BHold;0;B hold
MicrowavePower;2;Microwave power
MarkerEnabled;False;
MarkerStartField;0;
MarkerEndField;0;
Mode;;
KineticGFact;0;
KineticTotalTransientTime;0;
KineticTimeResolution;0;
TempFrom;5;
TempUseSlope;False;
TempTo;5;
TempdT;1;
TempSetupTime;0;
GonFrom;0;
GonTo;180;
GonSteps;20;
XRayEnabled;False;
XRayTime;3;
XRayVoltage;40;
XRayCurrent;0.5;
UVEnabled;False;
UVIntensity;0;
UVTime;0;
UVLeadTime;0;
UVWavelength;0;
PowSweepFrom;1;
PowSweepTo;5;
PowSweepSteps;5;
AmpModSweepFrom;0;
AmpModSweepTo;1;
AmpModSweepSteps;10;
ExtTriggerEnabled;False;
ExtTrigLeadTime;0;
ExtTrigOnTime;5;

Meas
BField [mT];MW_Absorption []
313.01020576477;179.027085004877
313.031832338017;178.507475078454
313.053458911264;177.942032096087
313.07508548451;177.329866467426
313.096712057757;176.665691486231
313.118338631003;175.937235350267
313.13996520425;175.15092064648
313.161591777496;174.346715134242
313.183218350743;173.542111737604
313.204844923989;172.746313683509
313.226471497236;171.953144511064
313.248098070482;171.172408956999
313.269724643729;170.427976938915
313.291351216975;169.729219771985
313.312977790222;169.090704794396
313.334604363468;168.536072070222
313.356230936715;168.085333684909
313.377857509961;167.746883891347
313.399484083208;167.513750887399
313.421110656454;167.384233409231
313.442737229701;167.372078976404
313.464363802947;167.470409561351
313.485990376194;167.653697123305
313.50761694944;167.911457656733
313.529243522687;168.248186904724
313.550870095933;168.666887946266
313.57249666918;169.129978360609
313.594123242427;169.597138514872
313.615749815673;170.057739090588
313.63737638892;170.507673293303
313.659002962166;170.93662892031
313.680629535413;171.32895011027
313.702256108659;171.6653679242
313.723882681906;171.923529463845
313.745509255152;172.102075642919
313.767135828399;172.207257798225
313.788762401645;172.229938345513
313.810388974892;172.171545479939
313.832015548138;172.047691932666
313.853642121385;171.875176483057
313.875268694631;171.671136226167
313.896895267878;171.442067473675
313.918521841124;171.189807975317
313.940148414371;170.920635153137
313.961774987617;170.655063623865
313.983401560864;170.401675191056
314.00502813411;170.15378376768
314.026654707357;169.897929471137
314.048281280603;169.620469092217
314.06990785385;169.334620428109
314.091534427096;169.0547409376
314.113161000343;168.775991238476
314.134787573589;168.488482043195
314.156414146836;168.192221331176
314.178040720082;167.897622885698
314.199667293329;167.613339751993
314.221293866576;167.341672364041
314.242920439822;167.085944375956
314.264547013069;166.851329144716
314.286173586315;166.635798240656
314.307800159562;166.438203700784
314.329426732808;166.25734242796
314.351053306055;166.095135535183
314.372679879301;165.950350859952
314.394306452548;165.818060640599
314.415933025794;165.696248436658
314.437559599041;165.59733418749
314.459186172287;165.531105918689
314.480812745534;165.487240636775
314.50243931878;165.458300099611
314.524065892027;165.441797502439
314.545692465273;165.442402966651
314.56731903852;165.450717563153
314.588945611766;165.456148858203
314.610572185013;165.452940615656
314.632198758259;165.439714226089
314.653825331506;165.416191955627
314.675451904752;165.376521296983
314.697078477999;165.316287112623
314.718705051245;165.230521923135
314.740331624492;165.10951293228
314.761958197739;164.947312199447
314.783584770985;164.752574915753
314.805211344232;164.529684238021
314.826837917478;164.269265968493
314.848464490725;163.96138532268
314.870091063971;163.612523243769
314.891717637218;163.231315302986
314.913344210464;162.812484057965
314.934970783711;162.356684924375
314.956597356957;161.880375105459
314.978223930204;161.394956206587
314.99985050345;160.899943473349
315.021477076697;160.402410802305
315.043103649943;159.918404378653
315.06473022319;159.453404070653
315.086356796436;159.001981540763
315.107983369683;158.572025241644
315.129609942929;158.182264391688
315.151236516176;157.845682597401
315.172863089422;157.559287647836
315.194489662669;157.312049513356
315.216116235915;157.095457875347
315.237742809162;156.900667621913
315.259369382408;156.713672724955
315.280995955655;156.521870847482
315.302622528902;156.310171309786
315.324249102148;156.056571925078
315.345875675395;155.746657349221
315.367502248641;155.401394185102
315.389128821888;155.021480370544
315.410755395134;154.577715488882
315.432381968381;154.065337627628
315.454008541627;153.530984117772
315.475635114874;153.015174055055
315.49726168812;152.522525656686
315.518888261367;152.045633403111
315.540514834613;151.577814135983
315.56214140786;151.124369375333
315.583767981106;150.694916265476
315.605394554353;150.293288487292
315.627021127599;149.948064709634
315.648647700846;149.655573537937
315.670274274092;149.400097374927
315.691900847339;149.168817931865
315.713527420585;148.946056269587
315.735153993832;148.729278080095
315.756780567078;148.514473846549
315.778407140325;148.290460481046
315.800033713571;148.04805291425
315.821660286818;147.781536716653
315.843286860064;147.47697623518
315.864913433311;147.144213117861
315.886540006557;146.823709508582
315.908166579804;146.523403061484
315.929793153051;146.224733324853
315.951419726297;145.914016020414
315.973046299544;145.59458195171
315.99467287279;145.278536033728
316.016299446037;144.966031659364
316.037926019283;144.646379202077
316.05955259253;144.319168161366
316.081179165776;143.997849365021
316.102805739023;143.678588765286
316.124432312269;143.339775957445
316.146058885516;142.968372155272
316.167685458762;142.56526361962
316.189312032009;142.136026621787
316.210938605255;141.672827741258
316.232565178502;141.164506514095
316.254191751748;140.618978127115
316.275818324995;140.06228432423
316.297444898241;139.507589010118
316.319071471488;138.944143585545
316.340698044734;138.359287616974
316.362324617981;137.769661056033
316.383951191227;137.216077826209
316.405577764474;136.703385824729
316.42720433772;136.205816477933
316.448830910967;135.698227906886
316.470457484214;135.177537805327
316.49208405746;134.65484292088
316.513710630707;134.135441665227
316.535337203953;133.611518170801
316.5569637772;133.089348761607
316.578590350446;132.55259928897
316.600216923693;131.990994496589
316.621843496939;131.436690018162
316.643470070186;130.90977477356
316.665096643432;130.406109644576
316.686723216679;129.914426058421
316.708349789925;129.432708811339
316.729976363172;128.97795739012
316.751602936418;128.550257702423
316.773229509665;128.145533764432
316.794856082911;127.768720251205
316.816482656158;127.417939005697
316.838109229404;127.083739062045
316.859735802651;126.763343438403
316.881362375897;126.468561869878
316.902988949144;126.202571831197
316.92461552239;125.961498014317
316.946242095637;125.722383246463
316.967868668883;125.470772916695
316.98949524213;125.20336732617
317.011121815377;124.92953301204
317.032748388623;124.663008062727
317.05437496187;124.414024313524
317.076001535116;124.176499564603
317.097628108363;123.940638287286
317.119254681609;123.702559293414
317.140881254856;123.463513778825
317.162507828102;123.237057231364
317.184134401349;123.029506852601
317.205760974595;122.83938584183
317.227387547842;122.656609712514
317.249014121088;122.470515078072
317.270640694335;122.278449474135
317.292267267581;122.082534659375
317.313893840828;121.872967892665
317.335520414074;121.64999175675
317.357146987321;121.411477728552
317.378773560567;121.144085149598
317.400400133814;120.850116724772
317.42202670706;120.547106448521
317.443653280307;120.258266552168
317.465279853553;119.985303964603
317.4869064268;119.718710208057
317.508533000046;119.454642824493
317.530159573293;119.198773333589
317.551786146539;118.951814262344
317.573412719786;118.710103891472
317.595039293032;118.471562748838
317.616665866279;118.227338973527
317.638292439526;117.965254439154
317.659919012772;117.675888112495
317.681545586019;117.354141215525
317.703172159265;117.002277514322
317.724798732512;116.623886293868
317.746425305758;116.219997732474
317.768051879005;115.793257817594
317.789678452251;115.346846941388
317.811305025498;114.875723316786
317.832931598744;114.388996822468
317.854558171991;113.905587645791
317.876184745237;113.435376397382
317.897811318484;112.99499103721
317.91943789173;112.598458616187
317.941064464977;112.246624472883
317.962691038223;111.94948767117
317.98431761147;111.712879471332
318.005944184716;111.532500238886
318.027570757963;111.398541452862
318.049197331209;111.315428533873
318.070823904456;111.283518389798
318.092450477702;111.295850115892
318.114077050949;111.346760300083
318.135703624195;111.431950736633
318.157330197442;111.55167274456
318.178956770689;111.69204832159
318.200583343935;111.83604593317
318.222209917182;111.974970571235
318.243836490428;112.108570689723
318.265463063675;112.237435380969
318.287089636921;112.355290980981
318.308716210168;112.457768188443
318.330342783414;112.543875679118
318.351969356661;112.609342875847
318.373595929907;112.65581539125
318.395222503154;112.686840538934
318.4168490764;112.699129868923
318.438475649647;112.688464720852
318.460102222893;112.661221649604
318.48172879614;112.625473328229
318.503355369386;112.576594043237
318.524981942633;112.505117135922
318.546608515879;112.413990304736
318.568235089126;112.314135720151
318.589861662372;112.206849395859
318.611488235619;112.080765911299
318.633114808865;111.926044892297
318.654741382112;111.7386129741
318.676367955358;111.522197839024
318.697994528605;111.276542773621
318.719621101851;110.997324312974
318.741247675098;110.688044582716
318.762874248345;110.3493411527
318.784500821591;109.970064166952
318.806127394838;109.549175374768
318.827753968084;109.117171012457
318.849380541331;108.7065224395
318.871007114577;108.295709107233
318.892633687824;107.860662509139
318.91426026107;107.399102683556
318.935886834317;106.943079196372
318.957513407563;106.530027080154
318.97913998081;106.152167122474
319.000766554056;105.79530170275
319.022393127303;105.455020033934
319.044019700549;105.144629106887
319.065646273796;104.872780096045
319.087272847042;104.630605499426
319.108899420289;104.410150744737
319.130525993535;104.213271787618
319.152152566782;104.040183581761
319.173779140028;103.900938030614
319.195405713275;103.805623942215
319.217032286521;103.74455363466
319.238658859768;103.718253896645
319.260285433014;103.739607451248
319.281912006261;103.809285822666
319.303538579507;103.918446879285
319.325165152754;104.05390264238
319.346791726001;104.20976595087
319.368418299247;104.383263198939
319.390044872494;104.57068101974
319.41167144574;104.764870176475
319.433298018987;104.953625870728
319.454924592233;105.133046972023
319.47655116548;105.308652684661
319.498177738726;105.48812785253
319.519804311973;105.664121160392
319.541430885219;105.820901529049
319.563057458466;105.964341097123
319.584684031712;106.105323639628
319.606310604959;106.241962687176
319.627937178205;106.362105635749
319.649563751452;106.458057257885
319.671190324698;106.529884725126
319.692816897945;106.573763698952
319.714443471191;106.582049375536
319.736070044438;106.549180392324
319.757696617684;106.47504383459
319.779323190931;106.362807842959
319.800949764177;106.212615563572
319.822576337424;106.01859688746
319.84420291067;105.790045722939
319.865829483917;105.540483305992
319.887456057163;105.281971336361
319.90908263041;105.02326023295
319.930709203657;104.774611908695
319.952335776903;104.543197595929
319.97396235015;104.33341465389
319.995588923396;104.15082611604
320.017215496643;103.985918757454
320.038842069889;103.837520737321
320.060468643136;103.71867854347
320.082095216382;103.623388401956
320.103721789629;103.541098666398
320.125348362875;103.462495947052
320.146974936122;103.375435618619
320.168601509368;103.270239624379
320.190228082615;103.145702072449
320.211854655861;102.994761816717
320.233481229108;102.816626633945
320.255107802354;102.621536479907
320.276734375601;102.410925679217
320.298360948847;102.177860607883
320.319987522094;101.920355133857
320.34161409534;101.656863243177
320.363240668587;101.392201891669
320.384867241833;101.1139018955
320.40649381508;100.809126293193
320.428120388326;100.491366950037
320.449746961573;100.189879021107
320.47137353482;99.9029475826932
320.493000108066;99.6226914861322
320.514626681313;99.3458103825104
320.536253254559;99.0735678599252
320.557879827806;98.8127055961914
320.579506401052;98.5689841119786
320.601132974299;98.3412426362568
320.622759547545;98.1283730574316
320.644386120792;97.934716933246
320.666012694038;97.7675491870951
320.687639267285;97.6334579468498
320.709265840531;97.5351100220785
320.730892413778;97.4688766776293
320.752518987024;97.4345511412149
320.774145560271;97.4390510712754
320.795772133517;97.4896320716102
320.817398706764;97.5876354355791
320.83902528001;97.7296106783022
320.860651853257;97.9049942666226
320.882278426503;98.1004131288515
320.90390499975;98.3152037608099
320.925531572996;98.5472166027913
320.947158146243;98.790786976802
320.968784719489;99.0313450589484
320.990411292736;99.2602902698414
321.012037865982;99.460123650931
321.033664439229;99.6135250331955
321.055291012475;99.7182754568994
321.076917585722;99.7939667899483
321.098544158969;99.849274877695
321.120170732215;99.8844565073995
321.141797305462;99.9059740008067
321.163423878708;99.9254807008149
321.185050451955;99.9532822553863
321.206677025201;99.9943130122606
321.228303598448;100.052462735393
321.249930171694;100.13674177534
321.271556744941;100.250514302133
321.293183318187;100.387494122417
321.314809891434;100.546445553178
321.33643646468;100.7255038988
321.358063037927;100.917202594675
321.379689611173;101.114077314075
321.40131618442;101.309541229919
321.422942757666;101.487638021455
321.444569330913;101.628719308074
321.466195904159;101.72554761536
321.487822477406;101.774544973967
321.509449050652;101.767994832671
321.531075623899;101.709863333477
321.552702197145;101.602843635374
321.574328770392;101.440797814328
321.595955343638;101.223263971677
321.617581916885;100.96731202889
321.639208490132;100.69336572863
321.660835063378;100.403993983943
321.682461636625;100.094330894888
321.704088209871;99.7619616577126
321.725714783118;99.4154285675579
321.747341356364;99.0711966098745
321.768967929611;98.7439086181031
321.790594502857;98.4400416843146
321.812221076104;98.152852484063
321.83384764935;97.8728216697765
321.855474222597;97.5910490072349
321.877100795843;97.2939396088707
321.89872736909;96.9678231065019
321.920353942336;96.6179513931681
321.941980515583;96.2460981315898
321.963607088829;95.8420987689657
321.985233662076;95.3922575994662
322.006860235322;94.9009194698774
322.028486808569;94.3810395890211
322.050113381815;93.8319593936427
322.071739955062;93.2457586554007
322.093366528308;92.6257465822419
322.114993101555;91.9977059919538
322.136619674801;91.3908908936051
322.158246248048;90.8235841754666
322.179872821295;90.2927076948368
322.201499394541;89.8069892404863
322.223125967788;89.3756856213866
322.244752541034;89.0025732584609
322.266379114281;88.6995362553601
322.288005687527;88.4618559442769
322.309632260774;88.2875133630659
322.33125883402;88.1932369704859
322.352885407267;88.170919044881
322.374511980513;88.2100795664783
322.39613855376;88.3126969050488
322.417765127006;88.4851675034994
322.439391700253;88.7269341297672
322.461018273499;89.024173251161
322.482644846746;89.3522505283133
322.504271419992;89.6939424837124
322.525897993239;90.0519965217432
322.547524566485;90.4174530730929
322.569151139732;90.774276857362
322.590777712978;91.1063984280633
322.612404286225;91.4138435543955
322.634030859471;91.6972606066881
322.655657432718;91.938934493864
322.677284005964;92.1493912217801
322.698910579211;92.3326155544341
322.720537152457;92.4899569438628
322.742163725704;92.6085372532306
322.76379029895;92.6832280439004
322.785416872197;92.7243831524081
322.807043445444;92.7390323875724
322.82867001869;92.7256968665298
322.850296591937;92.6856874269858
322.871923165183;92.6290677772935
322.89354973843;92.5465886603306
322.915176311676;92.4320525583535
322.936802884923;92.290422952907
322.958429458169;92.1268183865503
322.980056031416;91.949470922148
323.001682604662;91.7578292671142
323.023309177909;91.5541025048328
323.044935751155;91.3513106161433
323.066562324402;91.1549850961578
323.088188897648;90.9466804922618
323.109815470895;90.7137292817898
323.131442044141;90.4668392100685
323.153068617388;90.2197642166718
323.174695190634;89.9557695461765
323.196321763881;89.6581309719245
323.217948337127;89.3199007570821
323.239574910374;88.9539374725719
323.26120148362;88.5850878464881
323.282828056867;88.2160463881995
323.304454630113;87.8467922566678
323.32608120336;87.4821616477203
323.347707776607;87.1273159410438
323.369334349853;86.7935801401751
323.3909609231;86.5009900271803
323.412587496346;86.2643165465038
323.434214069593;86.0801359211026
323.455840642839;85.9411679699687
323.477467216086;85.8339984419915
323.499093789332;85.7592028305389
323.520720362579;85.7161812509156
323.542346935825;85.6977944526836
323.563973509072;85.6906897117374
323.585600082318;85.6758013535148
323.607226655565;85.6434344662518
323.628853228811;85.5842639739621
323.650479802058;85.4874482791624
323.672106375304;85.343488763231
323.693732948551;85.1509633523732
323.715359521797;84.9098713272306
323.736986095044;84.6181047189824
323.75861266829;84.2895665725656
323.780239241537;83.9173893730907
323.801865814783;83.5037479878039
323.82349238803;83.0554139212389
323.845118961276;82.5650708518225
323.866745534523;82.0585720006332
323.88837210777;81.5540400597034
323.909998681016;81.0555111912981
323.931625254263;80.5556419581304
323.953251827509;80.0518666099163
323.974878400756;79.5587169550811
323.996504974002;79.0835333565237
324.018131547249;78.6456191186245
324.039758120495;78.2563242534329
324.061384693742;77.9146707467614
324.083011266988;77.6204934850267
324.104637840235;77.3689234544621
324.126264413481;77.1730103580707
324.147890986728;77.035263087707
324.169517559974;76.9465381107526
324.191144133221;76.9145945268042
324.212770706467;76.9269942204262
324.234397279714;76.9641975511538
324.25602385296;77.0071300000679
324.277650426207;77.0414450657384
324.299276999453;77.0606090551464
324.3209035727;77.0547399286529
324.342530145946;77.0157256752788
324.364156719193;76.9399110350774
324.385783292439;76.8270854878578
324.407409865686;76.6803072060424
324.429036438932;76.5153874816734
324.450663012179;76.3585361505261
324.472289585425;76.2226672089611
324.493916158672;76.117366357912
324.515542731919;76.0393051147339
324.537169305165;75.9885436196519
324.558795878412;75.975158968933
324.580422451658;76.0113487170788
324.602049024905;76.1068162460466
324.623675598151;76.2689355144103
324.645302171398;76.4975585382811
324.666928744644;76.76495753767
324.688555317891;77.0435526027542
324.710181891137;77.3330445297527
324.731808464384;77.6286430298965
324.75343503763;77.8969599653563
324.775061610877;78.1172964041535
