Name;ESR_BC_1_7200s_X_gon_140dg_result

Recipe
Accumulations;5;Number of accumulations
RetryCount;0;Number of retries on error
AbortOnError;True;Abort on error
EnableQFactorMeasurement;False;Enable/Disable q-Factor measurement
Bfrom;313;B from
Bto;363;B to
SweepTime;60;Sweep time
Modulation;0.2;Modulation
ModulationFreq;100;Modulation
BHoldEnabled;False;B hold enabled
BHold;0;B hold
MicrowavePower;2;Microwave power
MarkerEnabled;False;
MarkerStartField;0;
MarkerEndField;0;
Mode;;
KineticGFact;0;
KineticTotalTransientTime;0;
KineticTimeResolution;0;
TempFrom;5;
TempUseSlope;False;
TempTo;5;
TempdT;1;
TempSetupTime;0;
GonFrom;0;
GonTo;180;
GonSteps;20;
XRayEnabled;False;
XRayTime;3;
XRayVoltage;40;
XRayCurrent;0.5;
UVEnabled;False;
UVIntensity;0;
UVTime;0;
UVLeadTime;0;
UVWavelength;0;
PowSweepFrom;1;
PowSweepTo;5;
PowSweepSteps;5;
AmpModSweepFrom;0;
AmpModSweepTo;1;
AmpModSweepSteps;10;
ExtTriggerEnabled;False;
ExtTrigLeadTime;0;
ExtTrigOnTime;5;

Meas
BField [mT];MW_Absorption []
313.014429092407;689.839937676652
313.036052560678;688.990686829313
313.057676028949;687.782548478879
313.079299497221;686.522596417821
313.100922965492;685.206350366896
313.122546433763;683.866214562444
313.144169902034;682.564254672859
313.165793370305;681.302003836319
313.187416838576;680.081408734999
313.209040306847;678.940974852545
313.230663775118;677.857505129951
313.25228724339;676.803700750596
313.273910711661;675.788578668575
313.295534179932;674.821213738551
313.317157648203;673.881841115889
313.338781116474;672.96730112239
313.360404584745;672.093321599255
313.382028053016;671.242105552511
313.403651521287;670.392740692237
313.425274989559;669.529562184111
313.44689845783;668.656133586562
313.468521926101;667.772433544621
313.490145394372;666.859262997486
313.511768862643;665.892064626267
313.533392330914;664.867655801612
313.555015799185;663.809595617042
313.576639267456;662.710678668793
313.598262735727;661.575214808957
313.619886203999;660.432471201889
313.64150967227;659.287956504108
313.663133140541;658.114035468552
313.684756608812;656.912371843526
313.706380077083;655.726573871406
313.728003545354;654.573297603386
313.749627013625;653.432054492741
313.771250481896;652.273093143863
313.792873950168;651.11274316943
313.814497418439;649.988502394091
313.83612088671;648.898792065056
313.857744354981;647.814208100811
313.879367823252;646.752716374396
313.900991291523;645.733282510576
313.922614759794;644.739431728905
313.944238228065;643.745742195005
313.965861696337;642.746075650689
313.987485164608;641.759536482972
314.009108632879;640.778342727566
314.03073210115;639.785496608015
314.052355569421;638.778751918345
314.073979037692;637.740507905682
314.095602505963;636.682915766014
314.117225974234;635.596432642922
314.138849442505;634.443410782204
314.160472910777;633.201021931565
314.182096379048;631.866714851367
314.203719847319;630.447430608844
314.22534331559;628.977131195078
314.246966783861;627.578783163922
314.268590252132;626.241947042283
314.290213720403;624.916987789401
314.311837188674;623.579358984366
314.333460656946;622.244347598962
314.355084125217;620.949549608846
314.376707593488;619.705597263662
314.398331061759;618.510825079344
314.41995453003;617.372064494019
314.441577998301;616.29081474568
314.463201466572;615.255889163369
314.484824934843;614.252885735732
314.506448403115;613.294280516144
314.528071871386;612.401268891468
314.549695339657;611.562938639503
314.571318807928;610.733316344131
314.592942276199;609.907191139363
314.61456574447;609.083081336306
314.636189212741;608.25731768079
314.657812681012;607.420498694941
314.679436149284;606.553780691104
314.701059617555;605.667486419021
314.722683085826;604.758833812072
314.744306554097;603.805368629961
314.765930022368;602.791227118765
314.787553490639;601.718016787609
314.80917695891;600.622974394946
314.830800427181;599.533627926346
314.852423895452;598.434174797337
314.874047363724;597.301027816365
314.895670831995;596.122297536136
314.917294300266;594.925510469193
314.938917768537;593.793400219821
314.960541236808;592.752107851046
314.982164705079;591.761706763921
315.00378817335;590.805958295554
315.025411641621;589.898881373517
315.047035109893;589.052342454868
315.068658578164;588.268559609202
315.090282046435;587.546801973643
315.111905514706;586.908466597992
315.133528982977;586.348521394571
315.155152451248;585.845306374168
315.176775919519;585.387534105927
315.19839938779;584.967561530901
315.220022856062;584.574954654802
315.241646324333;584.201902100119
315.263269792604;583.840260636426
315.284893260875;583.475135616614
315.306516729146;583.090236309225
315.328140197417;582.683558816242
315.349763665688;582.246594648133
315.371387133959;581.784736609895
315.393010602231;581.29921712753
315.414634070502;580.776053586972
315.436257538773;580.203759280869
315.457881007044;579.590887302382
315.479504475315;578.927557188963
315.501127943586;578.203821929092
315.522751411857;577.439355089974
315.544374880128;576.652341181811
315.565998348399;575.838824558005
315.587621816671;574.976444574248
315.609245284942;574.049346595563
315.630868753213;573.062996883726
315.652492221484;572.063426077746
315.674115689755;571.090150176076
315.695739158026;570.12121143166
315.717362626297;569.140024934136
315.738986094568;568.153627130922
315.76060956284;567.177941848563
315.782233031111;566.22951024823
315.803856499382;565.313970849224
315.825479967653;564.448132119367
315.847103435924;563.620017465585
315.868726904195;562.802902412771
315.890350372466;562.006835780961
315.911973840737;561.268577921477
315.933597309009;560.591956844632
315.95522077728;559.965620284536
315.976844245551;559.368475127575
315.998467713822;558.783300747154
316.020091182093;558.21525096232
316.041714650364;557.671378563309
316.063338118635;557.135233864829
316.084961586906;556.581227708423
316.106585055178;556.005370649122
316.128208523449;555.433244870282
316.14983199172;554.866043607364
316.171455459991;554.280907974058
316.193078928262;553.664712363392
316.214702396533;553.024566274954
316.236325864804;552.36211263912
316.257949333075;551.699898822869
316.279572801346;551.053301066857
316.301196269618;550.424347780234
316.322819737889;549.791156407488
316.34444320616;549.142244771451
316.366066674431;548.456209650452
316.387690142702;547.723588969669
316.409313610973;546.984649918692
316.430937079244;546.231828373388
316.452560547515;545.420992663754
316.474184015787;544.513647012606
316.495807484058;543.513339259378
316.517430952329;542.457375684968
316.5390544206;541.351843218462
316.560677888871;540.189185512362
316.582301357142;538.97169500625
316.603924825413;537.720884124917
316.625548293684;536.461951352374
316.647171761956;535.226531803762
316.668795230227;534.034715796382
316.690418698498;532.862761047065
316.712042166769;531.70823788773
316.73366563504;530.562743970536
316.755289103311;529.434798631763
316.776912571582;528.336993129383
316.798536039853;527.259087849461
316.820159508125;526.226835831795
316.841782976396;525.275848686995
316.863406444667;524.375094418542
316.885029912938;523.50267550442
316.906653381209;522.64666784345
316.92827684948;521.790080620961
316.949900317751;520.914588260369
316.971523786022;520.006162376512
316.993147254293;519.065884414469
317.014770722565;518.106040189358
317.036394190836;517.156034025234
317.058017659107;516.221065124751
317.079641127378;515.296935468116
317.101264595649;514.400223833809
317.12288806392;513.533646974772
317.144511532191;512.689994514313
317.166135000462;511.883660202327
317.187758468734;511.133131521904
317.209381937005;510.424541178957
317.231005405276;509.742414316265
317.252628873547;509.079561378919
317.274252341818;508.4273570547
317.295875810089;507.783410121582
317.31749927836;507.142311032294
317.339122746631;506.488708433888
317.360746214903;505.826322267392
317.382369683174;505.175393852185
317.403993151445;504.526724052918
317.425616619716;503.870123722537
317.447240087987;503.217245379222
317.468863556258;502.578263578146
317.490487024529;501.946436238291
317.5121104928;501.317335748373
317.533733961072;500.700373632445
317.555357429343;500.102491410391
317.576980897614;499.527445049294
317.598604365885;498.980069405693
317.620227834156;498.453571198402
317.641851302427;497.927350145586
317.663474770698;497.388585196302
317.685098238969;496.830336830449
317.70672170724;496.239139751838
317.728345175512;495.621167788663
317.749968643783;494.985849949748
317.771592112054;494.325407702609
317.793215580325;493.627404428936
317.814839048596;492.901999519164
317.836462516867;492.163481630495
317.858085985138;491.422611961173
317.879709453409;490.685706984834
317.901332921681;489.949605826427
317.922956389952;489.205038159264
317.944579858223;488.443355798656
317.966203326494;487.691959785573
317.987826794765;486.981539249819
318.009450263036;486.299958616084
318.031073731307;485.640041927795
318.052697199578;485.002314637589
318.07432066785;484.387430759241
318.095944136121;483.808084455201
318.117567604392;483.266593652959
318.139191072663;482.750626333793
318.160814540934;482.255240536712
318.182438009205;481.776226791186
318.204061477476;481.306843038345
318.225684945747;480.855314579693
318.247308414019;480.438724528865
318.26893188229;480.058742548919
318.290555350561;479.707747943379
318.312178818832;479.379479752797
318.333802287103;479.069358336913
318.355425755374;478.76756764297
318.377049223645;478.455501962087
318.398672691916;478.120867368606
318.420296160187;477.757907111524
318.441919628459;477.358138720481
318.46354309673;476.918278193684
318.485166565001;476.443413014665
318.506790033272;475.934105006214
318.528413501543;475.402542739985
318.550036969814;474.862812482688
318.571660438085;474.314830303944
318.593283906356;473.727519396994
318.614907374628;473.115984788342
318.636530842899;472.504187848923
318.65815431117;471.874777588398
318.679777779441;471.207532835779
318.701401247712;470.497347905018
318.723024715983;469.737459109563
318.744648184254;468.931966152265
318.766271652525;468.092948667905
318.787895120797;467.217432626329
318.809518589068;466.292628373074
318.831142057339;465.289858673214
318.85276552561;464.204652355745
318.874388993881;463.086371747014
318.896012462152;461.973153010469
318.917635930423;460.879818454637
318.939259398694;459.819843751312
318.960882866966;458.786254979806
318.982506335237;457.759168024813
319.004129803508;456.73597329173
319.025753271779;455.755425207046
319.04737674005;454.854238714338
319.069000208321;454.014227774951
319.090623676592;453.22618828121
319.112247144863;452.488904576198
319.133870613134;451.785227076331
319.155494081406;451.098914860569
319.177117549677;450.434706130461
319.198741017948;449.777393506941
319.220364486219;449.110265701263
319.24198795449;448.441945535552
319.263611422761;447.787849430138
319.285234891032;447.150602993131
319.306858359303;446.523664851219
319.328481827575;445.898413464874
319.350105295846;445.266374855422
319.371728764117;444.658798054376
319.393352232388;444.112228185695
319.414975700659;443.617780297021
319.43659916893;443.15321515892
319.458222637201;442.705319403946
319.479846105472;442.292717740684
319.501469573744;441.931543588974
319.523093042015;441.612549903715
319.544716510286;441.321932795915
319.566339978557;441.057588203447
319.587963446828;440.815928739951
319.609586915099;440.588008689207
319.63121038337;440.360957900978
319.652833851641;440.134216947621
319.674457319913;439.909613681509
319.696080788184;439.681471756753
319.717704256455;439.44675516925
319.739327724726;439.202111250453
319.760951192997;438.942440739292
319.782574661268;438.651732255728
319.804198129539;438.307683282529
319.82582159781;437.909985038833
319.847445066081;437.47057295021
319.869068534353;436.98494592629
319.890692002624;436.442982532345
319.912315470895;435.84713495365
319.933938939166;435.192688334699
319.955562407437;434.501540851752
319.977185875708;433.799088106036
319.998809343979;433.087567549774
320.02043281225;432.387412285571
320.042056280522;431.724476184812
320.063679748793;431.108883024586
320.085303217064;430.556513003709
320.106926685335;430.087471550301
320.128550153606;429.707089174058
320.150173621877;429.403302415431
320.171797090148;429.168255865907
320.193420558419;429.024528027178
320.215044026691;429.001549939401
320.236667494962;429.093660454244
320.258290963233;429.265725617141
320.279914431504;429.498832068454
320.301537899775;429.789610716364
320.323161368046;430.128946894045
320.344784836317;430.504473317757
320.366408304588;430.89626885815
320.388031772859;431.282596117737
320.409655241131;431.619823747875
320.431278709402;431.867601762369
320.452902177673;432.005241846257
320.474525645944;432.0142699388
320.496149114215;431.882341780756
320.517772582486;431.59380168407
320.539396050757;431.134095629495
320.561019519028;430.497932898998
320.5826429873;429.7031799243
320.604266455571;428.788121030412
320.625889923842;427.781351444454
320.647513392113;426.690848672156
320.669136860384;425.530044362897
320.690760328655;424.337968568512
320.712383796926;423.126095092538
320.734007265197;421.923442416122
320.755630733469;420.759186257051
320.77725420174;419.68024758352
320.798877670011;418.717598389039
320.820501138282;417.85980676443
320.842124606553;417.088977761255
320.863748074824;416.387374827015
320.885371543095;415.729521532205
320.906995011366;415.087211402588
320.928618479638;414.436984318968
320.950241947909;413.774165077796
320.97186541618;413.106967977244
320.993488884451;412.436817378355
321.015112352722;411.747595315838
321.036735820993;411.022025062146
321.058359289264;410.241862606228
321.079982757535;409.389159317631
321.101606225806;408.440243504822
321.123229694078;407.36165953307
321.144853162349;406.124785656017
321.16647663062;404.746985588913
321.188100098891;403.270722864117
321.209723567162;401.715921565769
321.231347035433;400.125611379778
321.252970503704;398.516563247728
321.274593971975;396.853169428745
321.296217440247;395.116121719255
321.317840908518;393.423401080168
321.339464376789;391.86466536118
321.36108784506;390.441328483085
321.382711313331;389.157554029668
321.404334781602;388.038560988742
321.425958249873;387.103758048239
321.447581718144;386.381106875095
321.469205186416;385.875756659126
321.490828654687;385.554257409321
321.512452122958;385.38655311842
321.534075591229;385.355118002535
321.5556990595;385.444415396933
321.577322527771;385.634239919052
321.598945996042;385.89559139906
321.620569464313;386.201928011894
321.642192932584;386.53290679278
321.663816400856;386.860725201147
321.685439869127;387.144731938257
321.707063337398;387.373191389296
321.728686805669;387.548544169209
321.75031027394;387.663218123279
321.771933742211;387.70751024596
321.793557210482;387.678509365475
321.815180678753;387.579718171647
321.836804147025;387.411196339351
321.858427615296;387.168449668459
321.880051083567;386.838621052677
321.901674551838;386.427535120594
321.923298020109;385.947195429252
321.94492148838;385.409517205852
321.966544956651;384.826036255487
321.988168424922;384.213862450561
322.009791893194;383.59367673474
322.031415361465;382.988781842683
322.053038829736;382.416354283958
322.074662298007;381.872975225442
322.096285766278;381.368477208634
322.117909234549;380.908154719767
322.13953270282;380.480880889575
322.161156171091;380.078446302099
322.182779639362;379.697085754671
322.204403107634;379.330726342842
322.226026575905;378.979555399347
322.247650044176;378.631361349725
322.269273512447;378.250911562324
322.290896980718;377.813368862296
322.312520448989;377.320721799225
322.33414391726;376.763525319656
322.355767385531;376.109760136391
322.377390853803;375.373525662088
322.399014322074;374.586567873907
322.420637790345;373.756092964069
322.442261258616;372.85706622312
322.463884726887;371.871330833128
322.485508195158;370.835152858339
322.507131663429;369.835058464495
322.5287551317;368.908373520882
322.550378599972;368.037064772332
322.572002068243;367.185612992646
322.593625536514;366.344533571076
322.615249004785;365.573456681605
322.636872473056;364.902903728112
322.658495941327;364.311866828208
322.680119409598;363.766388823469
322.701742877869;363.241938434369
322.723366346141;362.723184631705
322.744989814412;362.186609067623
322.766613282683;361.611818917954
322.788236750954;361.006965766246
322.809860219225;360.381228957332
322.831483687496;359.715784081498
322.853107155767;358.994590596563
322.874730624038;358.210498519441
322.896354092309;357.373177773644
322.917977560581;356.515800993873
322.939601028852;355.693720271689
322.961224497123;354.917658052551
322.982847965394;354.153295663285
323.004471433665;353.398737712032
323.026094901936;352.668148707181
323.047718370207;351.990199008755
323.069341838478;351.39745588231
323.09096530675;350.887285785385
323.112588775021;350.438452559824
323.134212243292;350.037087295319
323.155835711563;349.670053544085
323.177459179834;349.325714643318
323.199082648105;349.00173584802
323.220706116376;348.689587125147
323.242329584647;348.381081133018
323.263953052919;348.067057303799
323.28557652119;347.73576297286
323.307199989461;347.372461669906
323.328823457732;346.956270908427
323.350446926003;346.474435904466
323.372070394274;345.925963324258
323.393693862545;345.318797818999
323.415317330816;344.666423224865
323.436940799088;343.973844120457
323.458564267359;343.225609946975
323.48018773563;342.394679391558
323.501811203901;341.467057108256
323.523434672172;340.466531462635
323.545058140443;339.46432050136
323.566681608714;338.503769169568
323.588305076985;337.598251880284
323.609928545256;336.738758752171
323.631552013528;335.906727467903
323.653175481799;335.082897373558
323.67479895007;334.258803576797
323.696422418341;333.451797589989
323.718045886612;332.684036650187
323.739669354883;331.958743494773
323.761292823154;331.253104473022
323.782916291425;330.568697826563
323.804539759697;329.911996126661
323.826163227968;329.264188503419
323.847786696239;328.596652546479
323.86941016451;327.876524740338
323.891033632781;327.091861314136
323.912657101052;326.285014903164
323.934280569323;325.492191664038
323.955904037594;324.6899831399
323.977527505866;323.852466069506
323.999150974137;323.007718264153
324.020774442408;322.201385476968
324.042397910679;321.436023803256
324.06402137895;320.693903353176
324.085644847221;319.965448028688
324.107268315492;319.251557045352
324.128891783763;318.555909342885
324.150515252035;317.881617846847
324.172138720306;317.242899648561
324.193762188577;316.636673459943
324.215385656848;316.054701951058
324.237009125119;315.481310877826
324.25863259339;314.880402932048
324.280256061661;314.230977234513
324.301879529932;313.519166785495
324.323502998203;312.744444693289
324.345126466475;311.915373517087
324.366749934746;311.037810607289
324.388373403017;310.106713921834
324.409996871288;309.101235634375
324.431620339559;308.014788237102
324.45324380783;306.876349082992
324.474867276101;305.676380535486
324.496490744372;304.376885253999
324.518114212644;302.977811009001
324.539737680915;301.516542988702
324.561361149186;299.995347240906
324.582984617457;298.41759279
324.604608085728;296.795091864127
324.626231553999;295.097598632442
324.64785502227;293.297698607762
324.669478490541;291.412124042794
324.691101958813;289.47870626058
324.712725427084;287.516585270979
324.734348895355;285.518780411936
324.755972363626;283.485728190761
