Name;ESR_BC_1_840s_Z_gon_40dg_result

Recipe
Accumulations;5;Number of accumulations
RetryCount;0;Number of retries on error
AbortOnError;True;Abort on error
EnableQFactorMeasurement;False;Enable/Disable q-Factor measurement
Bfrom;313;B from
Bto;363;B to
SweepTime;60;Sweep time
Modulation;0.2;Modulation
ModulationFreq;100;Modulation
BHoldEnabled;False;B hold enabled
BHold;0;B hold
MicrowavePower;2;Microwave power
MarkerEnabled;False;
MarkerStartField;0;
MarkerEndField;0;
Mode;;
KineticGFact;0;
KineticTotalTransientTime;0;
KineticTimeResolution;0;
TempFrom;5;
TempUseSlope;False;
TempTo;5;
TempdT;1;
TempSetupTime;0;
GonFrom;0;
GonTo;180;
GonSteps;20;
XRayEnabled;False;
XRayTime;3;
XRayVoltage;40;
XRayCurrent;0.5;
UVEnabled;False;
UVIntensity;0;
UVTime;0;
UVLeadTime;0;
UVWavelength;0;
PowSweepFrom;1;
PowSweepTo;5;
PowSweepSteps;5;
AmpModSweepFrom;0;
AmpModSweepTo;1;
AmpModSweepSteps;10;
ExtTriggerEnabled;False;
ExtTrigLeadTime;0;
ExtTrigOnTime;5;

Meas
BField [mT];MW_Absorption []
313.021610794067;78.5857655121244
313.043232251981;78.0725742222598
313.064853709894;77.6379125372569
313.086475167807;77.2938289727001
313.10809662572;77.0318246052771
313.129718083633;76.8583432162348
313.151339541547;76.7625979217487
313.17296099946;76.7250101874737
313.194582457373;76.7335549957842
313.216203915286;76.7827567160426
313.2378253732;76.8638134165735
313.259446831113;76.9513921188217
313.281068289026;77.0205313411338
313.302689746939;77.0734081326987
313.324311204853;77.1148285002865
313.345932662766;77.1292831642956
313.367554120679;77.1036254394098
313.389175578592;77.04629357818
313.410797036505;76.9762385123025
313.432418494419;76.9073043648522
313.454039952332;76.8449987652993
313.475661410245;76.7957182531104
313.497282868158;76.7644057789805
313.518904326071;76.7530870371412
313.540525783985;76.7639037523484
313.562147241898;76.7967309415186
313.583768699811;76.8494978953217
313.605390157724;76.9256711872892
313.627011615638;77.018071411374
313.648633073551;77.1115382138079
313.670254531464;77.2060863738177
313.691875989377;77.2998425353825
313.71349744729;77.3856755608621
313.735118905204;77.4667695612462
313.756740363117;77.5459063316761
313.77836182103;77.6250652838953
313.799983278943;77.7092545244748
313.821604736857;77.7979264312839
313.84322619477;77.8792416539837
313.864847652683;77.9572989808373
313.886469110596;78.0405683029806
313.908090568509;78.1234174690135
313.929712026423;78.1964639946974
313.951333484336;78.2620178331891
313.972954942249;78.3302913263068
313.994576400162;78.3935001014103
314.016197858076;78.4319240915584
314.037819315989;78.4478274159426
314.059440773902;78.4489085811198
314.081062231815;78.4359567919516
314.102683689728;78.4065960883555
314.124305147642;78.3561443998878
314.145926605555;78.2920185995012
314.167548063468;78.2295611939597
314.189169521381;78.1804627493075
314.210790979295;78.1529056809788
314.232412437208;78.1519970654205
314.254033895121;78.1754344231953
314.275655353034;78.2244610077052
314.297276810947;78.3093834533948
314.318898268861;78.4387951549623
314.340519726774;78.60371673487
314.362141184687;78.7919378003001
314.3837626426;79.0020832391554
314.405384100514;79.2355063495429
314.427005558427;79.4832825543324
314.44862701634;79.7298789330331
314.470248474253;79.9689966479269
314.491869932166;80.207933795397
314.51349139008;80.4540268526237
314.535112847993;80.7020018403361
314.556734305906;80.9419934639703
314.578355763819;81.173364787661
314.599977221733;81.4002280181751
314.621598679646;81.6223549290229
314.643220137559;81.8381819487089
314.664841595472;82.0396412328027
314.686463053385;82.2051671425122
314.708084511299;82.3262509755602
314.729705969212;82.4057553111593
314.751327427125;82.4472585712482
314.772948885038;82.4602973644221
314.794570342952;82.4493121045063
314.816191800865;82.4175749436445
314.837813258778;82.3734531747014
314.859434716691;82.3243883320154
314.881056174604;82.2760161886608
314.902677632518;82.2315659765069
314.924299090431;82.2030296078214
314.945920548344;82.2116880706294
314.967542006257;82.2629290629058
314.989163464171;82.3487364790154
315.010784922084;82.4681504639396
315.032406379997;82.6231197967879
315.05402783791;82.8049092663028
315.075649295823;82.9857340982045
315.097270753737;83.1416654979772
315.11889221165;83.2677759535788
315.140513669563;83.3616688657148
315.162135127476;83.4148296721933
315.18375658539;83.4206415436485
315.205378043303;83.3699176452425
315.226999501216;83.2442360651092
315.248620959129;83.0337747360786
315.270242417042;82.7510854228262
315.291863874956;82.4175163980977
315.313485332869;82.0396477693428
315.335106790782;81.6151159222561
315.356728248695;81.1500298394869
315.378349706609;80.6650623332334
315.399971164522;80.1901376513075
315.421592622435;79.7300354981849
315.443214080348;79.2888046640964
315.464835538261;78.8760791984784
315.486456996175;78.4969247652749
315.508078454088;78.147331122737
315.529699912001;77.8206373808123
315.551321369914;77.5183875799763
315.572942827827;77.2484141472244
315.594564285741;77.0075804486166
315.616185743654;76.7974879739874
315.637807201567;76.6232498643852
315.65942865948;76.4874054070168
315.681050117394;76.3823649362648
315.702671575307;76.3036199149967
315.72429303322;76.2499783015186
315.745914491133;76.222339563032
315.767535949046;76.2134741996986
315.78915740696;76.215898329443
315.810778864873;76.2259540734784
315.832400322786;76.2490744818686
315.854021780699;76.2879066638312
315.875643238613;76.3432834132474
315.897264696526;76.418692430348
315.918886154439;76.5178589953503
315.940507612352;76.6428430882824
315.962129070265;76.8003759950479
315.983750528179;76.9966705358675
316.005371986092;77.2394484477485
316.026993444005;77.5327468135662
316.048614901918;77.8651134548366
316.070236359832;78.2367739309209
316.091857817745;78.6433663943392
316.113479275658;79.0739983602446
316.135100733571;79.5088095015894
316.156722191484;79.9273900045903
316.178343649398;80.3231151184358
316.199965107311;80.6880049658176
316.221586565224;81.0054836898
316.243208023137;81.2689336193657
316.264829481051;81.4777644278616
316.286450938964;81.6199942039709
316.308072396877;81.6764528134503
316.32969385479;81.6399600408435
316.351315312703;81.4982607490555
316.372936770617;81.2395329462663
316.39455822853;80.8806667909799
316.416179686443;80.4498812257416
316.437801144356;79.9618530886375
316.45942260227;79.4258187827646
316.481044060183;78.8634539996531
316.502665518096;78.2878603676788
316.524286976009;77.6932283696916
316.545908433922;77.0707542149073
316.567529891836;76.4314139128336
316.589151349749;75.8218202528415
316.610772807662;75.2718695543276
316.632394265575;74.7579946288294
316.654015723489;74.2653157787333
316.675637181402;73.8101488430754
316.697258639315;73.4071726986838
316.718880097228;73.0522366257435
316.740501555141;72.7430785908197
316.762123013055;72.4827553355421
316.783744470968;72.2656956314419
316.805365928881;72.0855358095
316.826987386794;71.946317847236
316.848608844708;71.8637094615095
316.870230302621;71.8514569555778
316.891851760534;71.897767280436
316.913473218447;71.9980304795809
316.93509467636;72.1589734164864
316.956716134274;72.3809205578281
316.978337592187;72.6620834188723
316.9999590501;72.996461739989
317.021580508013;73.3724136494739
317.043201965927;73.7829140749733
317.06482342384;74.2290172776018
317.086444881753;74.704813235651
317.108066339666;75.1909542004155
317.129687797579;75.6821273711226
317.151309255493;76.173670802696
317.172930713406;76.6368808169191
317.194552171319;77.0497267654018
317.216173629232;77.4187509141823
317.237795087146;77.7556944530674
317.259416545059;78.0535887197641
317.281038002972;78.2792928252188
317.302659460885;78.4294776656464
317.324280918798;78.5129804775163
317.345902376712;78.5340981758966
317.367523834625;78.4939922850025
317.389145292538;78.3987449979258
317.410766750451;78.2442585073441
317.432388208365;78.0530262965325
317.454009666278;77.8577606311101
317.475631124191;77.6531205711302
317.497252582104;77.4272779250703
317.518874040017;77.1832043171237
317.540495497931;76.9349093169328
317.562116955844;76.6935948250526
317.583738413757;76.4589839068909
317.60535987167;76.2234067995061
317.626981329583;75.9808865045582
317.648602787497;75.7372688048287
317.67022424541;75.4950917903591
317.691845703323;75.2400686945091
317.713467161236;74.9612095661047
317.73508861915;74.6558624274961
317.756710077063;74.3454588907151
317.778331534976;74.0498274536799
317.799952992889;73.7670860189887
317.821574450802;73.4927648836429
317.843195908716;73.226022160225
317.864817366629;72.9688959901495
317.886438824542;72.7281504160961
317.908060282455;72.5140099977377
317.929681740369;72.3340841371895
317.951303198282;72.1852245767024
317.972924656195;72.0593823906922
317.994546114108;71.9530059746103
318.016167572021;71.8651423799895
318.037789029935;71.7924394547259
318.059410487848;71.7291282643633
318.081031945761;71.673125692096
318.102653403674;71.6229567173086
318.124274861588;71.572452885033
318.145896319501;71.524749254656
318.167517777414;71.4888800664887
318.189139235327;71.4656196650429
318.210760693241;71.4501471720891
318.232382151154;71.440549311072
318.254003609067;71.4365990209582
318.27562506698;71.4375904494041
318.297246524893;71.4384291937493
318.318867982807;71.4366982362608
318.34048944072;71.438320937653
318.362110898633;71.4462529455442
318.383732356546;71.4480647696263
318.405353814459;71.4312140897318
318.426975272373;71.3982034310184
318.448596730286;71.3577575357807
318.470218188199;71.3100543521516
318.491839646112;71.2547106483832
318.513461104026;71.193023235269
318.535082561939;71.1217595073782
318.556704019852;71.0334582236311
318.578325477765;70.9295050863401
318.599946935678;70.8226903863283
318.621568393592;70.7166420809801
318.643189851505;70.614600420682
318.664811309418;70.5255239309692
318.686432767331;70.4530004496456
318.708054225245;70.402351807809
318.729675683158;70.3810492617624
318.751297141071;70.4007228969688
318.772918598984;70.469115626772
318.794540056897;70.5922989283198
318.816161514811;70.7745186311609
318.837782972724;71.0102010594858
318.859404430637;71.2917233055671
318.88102588855;71.6107198873383
318.902647346464;71.9501970757681
318.924268804377;72.2942295098859
318.94589026229;72.6406359507095
318.967511720203;72.9799628582091
318.989133178116;73.2945879105697
319.01075463603;73.5788839320189
319.032376093943;73.8467825041508
319.053997551856;74.1082475818049
319.075619009769;74.3649762948752
319.097240467683;74.6164250740012
319.118861925596;74.8654383520452
319.140483383509;75.1175756643127
319.162104841422;75.3759815301438
319.183726299335;75.6316826036066
319.205347757249;75.8806230010916
319.226969215162;76.1131327610313
319.248590673075;76.3164717338283
319.270212130988;76.4884129943253
319.291833588902;76.6334562515356
319.313455046815;76.7453595928508
319.335076504728;76.8051450109704
319.356697962641;76.8135777323999
319.378319420554;76.7726570398676
319.399940878468;76.677933716023
319.421562336381;76.5284707978332
319.443183794294;76.3286886103533
319.464805252207;76.0887081695906
319.486426710121;75.8170039840428
319.508048168034;75.5235365296927
319.529669625947;75.2183881525888
319.55129108386;74.8882459062968
319.572912541773;74.5113575782599
319.594533999687;74.0894131753714
319.6161554576;73.6378845439887
319.637776915513;73.1589978500289
319.659398373426;72.6421786327064
319.68101983134;72.0925595084455
319.702641289253;71.5281894960337
319.724262747166;70.9420573595526
319.745884205079;70.3171330889265
319.767505662992;69.6725949918325
319.789127120906;69.0427065044675
319.810748578819;68.4435188358861
319.832370036732;67.8846428707308
319.853991494645;67.3746187247471
319.875612952559;66.9198962646418
319.897234410472;66.5322134836152
319.918855868385;66.218350869887
319.940477326298;65.9658706491692
319.962098784211;65.7612104203259
319.983720242125;65.601187004893
320.005341700038;65.4816924254575
320.026963157951;65.3867521708947
320.048584615864;65.3135070269081
320.070206073778;65.2700201054683
320.091827531691;65.2483481721265
320.113448989604;65.2294248476397
320.135070447517;65.2045574206307
320.15669190543;65.1817611446912
320.178313363344;65.1713683302594
320.199934821257;65.1895153262946
320.22155627917;65.2201881965655
320.243177737083;65.2398063977466
320.264799194997;65.2612916369507
320.28642065291;65.2939704817982
320.308042110823;65.3404431714918
320.329663568736;65.399542515968
320.351285026649;65.4705273353569
320.372906484563;65.5514783903679
320.394527942476;65.6424355492543
320.416149400389;65.7441714688411
320.437770858302;65.8596787480854
320.459392316215;65.9889563712642
320.481013774129;66.1283169755658
320.502635232042;66.2798778614232
320.524256689955;66.4532871387105
320.545878147868;66.6566343928128
320.567499605782;66.8909836817633
320.589121063695;67.1504876389327
320.610742521608;67.4289364925842
320.632363979521;67.7174580928804
320.653985437434;68.003156225092
320.675606895348;68.2843402981246
320.697228353261;68.5610423663584
320.718849811174;68.823261717482
320.740471269087;69.0604978156003
320.762092727001;69.2691497538856
320.783714184914;69.445358158708
320.805335642827;69.5860775761403
320.82695710074;69.6871287745907
320.848578558653;69.7444660090521
320.870200016567;69.7564170102727
320.89182147448;69.724996252895
320.913442932393;69.6572949449255
320.935064390306;69.5654781534641
320.95668584822;69.4586382949668
320.978307306133;69.3360463578064
320.999928764046;69.1877586374422
321.021550221959;69.0173830961636
321.043171679872;68.8602357067789
321.064793137786;68.7192110652483
321.086414595699;68.5874130907028
321.108036053612;68.4658225063003
321.129657511525;68.3548555772487
321.151278969439;68.2484438954296
321.172900427352;68.1440332949688
321.194521885265;68.0490319991291
321.216143343178;67.9695980849396
321.237764801091;67.8948451831819
321.259386259005;67.8187931104467
321.281007716918;67.7504410472046
321.302629174831;67.6884019965676
321.324250632744;67.632156534393
321.345872090658;67.5839180930129
321.367493548571;67.5430583897138
321.389115006484;67.5003266923185
321.410736464397;67.4454293739492
321.43235792231;67.3659202349192
321.453979380224;67.2535627503631
321.475600838137;67.1070160136534
321.49722229605;66.9289456779866
321.518843753963;66.7203039886094
321.540465211877;66.4782283486947
321.56208666979;66.1893668888332
321.583708127703;65.8484407985614
321.605329585616;65.47187492927
321.626951043529;65.0603939633117
321.648572501443;64.6201424556847
321.670193959356;64.159634065399
321.691815417269;63.6886298536414
321.713436875182;63.2093171087664
321.735058333096;62.723236031665
321.756679791009;62.2371750934987
321.778301248922;61.7592111893839
321.799922706835;61.3072707756974
321.821544164748;60.8814045179467
321.843165622662;60.4721778345022
321.864787080575;60.0808060742774
321.886408538488;59.7186920332849
321.908029996401;59.3831615071297
321.929651454315;59.0667275563976
321.951272912228;58.7637375017167
321.972894370141;58.4657139263922
321.994515828054;58.1757595343567
322.016137285967;57.9106343712836
322.037758743881;57.6758654110103
322.059380201794;57.46571039144
322.081001659707;57.2764039583073
322.10262311762;57.1121942350353
322.124244575534;56.9766472565516
322.145866033447;56.8737611218295
322.16748749136;56.8055310398155
322.189108949273;56.7719543917222
322.210730407186;56.7743053799445
322.2323518651;56.8101551674428
322.253973323013;56.8644914972955
322.275594780926;56.9293594114886
322.297216238839;57.0040880163142
322.318837696753;57.0804059550225
322.340459154666;57.1502029489912
322.362080612579;57.2112328884189
322.383702070492;57.2648329198934
322.405323528405;57.3135637106265
322.426944986319;57.3606984616195
322.448566444232;57.4150221986309
322.470187902145;57.4759695434093
322.491809360058;57.5415104775046
322.513430817971;57.6181891886898
322.535052275885;57.7147121954207
322.556673733798;57.8429943366801
322.578295191711;58.0197931720458
322.599916649624;58.2459442234721
322.621538107538;58.503722243486
322.643159565451;58.7819750023309
322.664781023364;59.0765004433653
322.686402481277;59.3937909628553
322.70802393919;59.743937906068
322.729645397104;60.1058757347148
322.751266855017;60.4334344019315
322.77288831293;60.729650205
322.794509770843;61.0205039343962
322.816131228757;61.3132292361015
322.83775268667;61.5900211696691
322.859374144583;61.833792930757
322.880995602496;62.0480421995718
322.90261706041;62.231784655894
322.924238518323;62.3792850235802
322.945859976236;62.4779162649123
322.967481434149;62.5349212553178
322.989102892062;62.5647313364592
323.010724349976;62.5735927300793
323.032345807889;62.5695116269415
323.053967265802;62.5601386963322
323.075588723715;62.5560554943588
323.097210181629;62.5636952540647
323.118831639542;62.5671150077511
323.140453097455;62.5523113554092
323.162074555368;62.5389648495218
323.183696013281;62.5257779345112
323.205317471195;62.4856561205499
323.226938929108;62.4070843422232
323.248560387021;62.2953749567265
323.270181844934;62.1451389702592
323.291803302847;61.9393216804616
323.313424760761;61.6658170541454
323.335046218674;61.3155060461633
323.356667676587;60.9109027294247
323.3782891345;60.4633665850067
323.399910592414;59.9724621118277
323.421532050327;59.4364817511206
323.44315350824;58.8453592099642
323.464774966153;58.1928122468039
323.486396424066;57.488749873868
323.50801788198;56.7532325441922
323.529639339893;55.9939614308581
323.551260797806;55.2066080645685
323.572882255719;54.4368510483738
323.594503713633;53.7091153984507
323.616125171546;53.0350778098156
323.637746629459;52.4130244873505
323.659368087372;51.8400514200402
323.680989545285;51.3208485680366
323.702611003199;50.8600050193214
323.724232461112;50.4531259996962
323.745853919025;50.1168651025142
323.767475376938;49.8821777785672
323.789096834852;49.7241781303633
323.810718292765;49.6238190380074
323.832339750678;49.5707968396594
323.853961208591;49.5685837610282
323.875582666504;49.6196160517311
323.897204124418;49.7147491682542
323.918825582331;49.8412461983254
323.940447040244;49.9853034051604
323.962068498157;50.1448846592582
323.983689956071;50.3270888594517
324.005311413984;50.522327176287
324.026932871897;50.710156150767
324.04855432981;50.8708609862709
324.070175787723;51.0097361388027
324.091797245637;51.1278797408478
324.11341870355;51.2157738120105
324.135040161463;51.2693462508394
324.156661619376;51.3019722581368
324.17828307729;51.3277688256017
324.199904535203;51.3454589153561
324.221525993116;51.3422771229845
324.243147451029;51.3180767011425
324.264768908942;51.2860610589752
324.286390366856;51.252951436333
324.308011824769;51.2233826222546
324.329633282682;51.188623793353
324.351254740595;51.1449229031796
324.372876198509;51.0987467581424
324.394497656422;51.0530379035303
324.416119114335;51.0107253311423
324.437740572248;50.9828331916758
324.459362030161;50.9763132830654
324.480983488075;50.9981445162123
324.502604945988;51.0540106109438
324.524226403901;51.1505993105616
324.545847861814;51.2786726147469
324.567469319728;51.4304085528602
324.589090777641;51.6069625965058
324.610712235554;51.8096069715973
324.632333693467;52.0357828518893
324.65395515138;52.2794106497463
324.675576609294;52.5316449218927
324.697198067207;52.7750128242065
324.71881952512;52.9959883177471
324.740440983033;53.1906086493524
324.762062440947;53.3590479206977
324.78368389886;53.503890754776
