Name;ESR_BC_1_14400s_X_gon_40dg_result

Recipe
Accumulations;5;Number of accumulations
RetryCount;0;Number of retries on error
AbortOnError;True;Abort on error
EnableQFactorMeasurement;False;Enable/Disable q-Factor measurement
Bfrom;313;B from
Bto;363;B to
SweepTime;60;Sweep time
Modulation;0.2;Modulation
ModulationFreq;100;Modulation
BHoldEnabled;False;B hold enabled
BHold;0;B hold
MicrowavePower;2;Microwave power
MarkerEnabled;False;
MarkerStartField;0;
MarkerEndField;0;
Mode;;
KineticGFact;0;
KineticTotalTransientTime;0;
KineticTimeResolution;0;
TempFrom;5;
TempUseSlope;False;
TempTo;5;
TempdT;1;
TempSetupTime;0;
GonFrom;0;
GonTo;180;
GonSteps;20;
XRayEnabled;False;
XRayTime;3;
XRayVoltage;40;
XRayCurrent;0.5;
UVEnabled;False;
UVIntensity;0;
UVTime;0;
UVLeadTime;0;
UVWavelength;0;
PowSweepFrom;1;
PowSweepTo;5;
PowSweepSteps;5;
AmpModSweepFrom;0;
AmpModSweepTo;1;
AmpModSweepSteps;10;
ExtTriggerEnabled;False;
ExtTrigLeadTime;0;
ExtTrigOnTime;5;

Meas
BField [mT];MW_Absorption []
313.016891326904;588.625324612639
313.038502697565;587.679135971378
313.060114068226;586.705498557842
313.081725438887;585.705862206954
313.103336809548;584.738126429719
313.124948180209;583.852303447681
313.146559550869;583.036221628519
313.16817092153;582.255815020558
313.189782292191;581.495703919861
313.211393662852;580.768544675099
313.233005033513;580.081268727322
313.254616404174;579.422941650942
313.276227774835;578.760153892654
313.297839145495;578.053292377778
313.319450516156;577.2817576222
313.341061886817;576.466273019598
313.362673257478;575.633475925616
313.384284628139;574.778124210529
313.4058959988;573.880013447138
313.427507369461;572.931189224324
313.449118740121;571.956220260302
313.470730110782;570.996839934025
313.492341481443;570.041348671319
313.513952852104;569.080540928662
313.535564222765;568.125745658723
313.557175593426;567.197597571448
313.578786964087;566.324630160103
313.600398334747;565.524126308203
313.622009705408;564.785324442192
313.643621076069;564.090882907271
313.66523244673;563.421219710476
313.686843817391;562.767209266115
313.708455188052;562.126430460744
313.730066558713;561.49441704529
313.751677929373;560.871020225905
313.773289300034;560.247157773685
313.794900670695;559.608334681087
313.816512041356;558.930209952348
313.838123412017;558.211121871625
313.859734782678;557.443565162801
313.881346153338;556.607716424289
313.902957523999;555.704195538481
313.92456889466;554.725166081816
313.946180265321;553.672235521718
313.967791635982;552.588509143134
313.989403006643;551.480110585034
314.011014377304;550.316000189819
314.032625747965;549.114421261198
314.054237118625;547.92574755708
314.075848489286;546.743660733783
314.097459859947;545.569737861973
314.119071230608;544.411059838622
314.140682601269;543.283228475771
314.16229397193;542.219909845649
314.18390534259;541.235069479289
314.205516713251;540.295244701401
314.227128083912;539.40637538301
314.248739454573;538.619992710336
314.270350825234;537.947666358708
314.291962195895;537.337911450838
314.313573566556;536.774090351841
314.335184937216;536.279019949549
314.356796307877;535.826139838802
314.378407678538;535.383041065188
314.400019049199;534.932076790206
314.42163041986;534.479249689636
314.443241790521;534.024164768411
314.464853161182;533.545325663635
314.486464531842;533.02094327807
314.508075902503;532.444191999672
314.529687273164;531.817289210308
314.551298643825;531.141607786411
314.572910014486;530.414511831118
314.594521385147;529.62804769602
314.616132755808;528.798697938329
314.637744126468;527.963612880832
314.659355497129;527.153190780029
314.68096686779;526.36190870957
314.702578238451;525.57064220762
314.724189609112;524.782784588657
314.745800979773;524.029992533112
314.767412350434;523.333438145298
314.789023721094;522.680743181397
314.810635091755;522.052453820456
314.832246462416;521.438221542382
314.853857833077;520.838344045265
314.875469203738;520.254642300035
314.897080574399;519.687294094602
314.91869194506;519.15227342554
314.94030331572;518.650294309169
314.961914686381;518.155308150076
314.983526057042;517.641154409825
315.005137427703;517.110566041095
315.026748798364;516.585527998769
315.048360169025;516.07393843161
315.069971539686;515.569980521078
315.091582910346;515.064710202026
315.113194281007;514.548022189222
315.134805651668;514.017297236245
315.156417022329;513.498009658464
315.17802839299;513.024311185709
315.199639763651;512.597790729362
315.221251134312;512.199009920403
315.242862504972;511.803610216954
315.264473875633;511.409178714828
315.286085246294;511.026407800319
315.307696616955;510.647054996645
315.329307987616;510.24533518269
315.350919358277;509.798800083574
315.372530728937;509.308497309041
315.394142099598;508.797407396568
315.415753470259;508.27830161833
315.43736484092;507.753127876763
315.458976211581;507.195717238714
315.480587582242;506.583861779266
315.502198952903;505.92951628428
315.523810323563;505.256906444694
315.545421694224;504.563276746311
315.567033064885;503.850678017632
315.588644435546;503.134767370231
315.610255806207;502.400498886145
315.631867176868;501.618278430568
315.653478547529;500.799443301254
315.675089918189;499.975102573548
315.69670128885;499.165275499644
315.718312659511;498.360621399864
315.739924030172;497.545190679301
315.761535400833;496.736696133387
315.783146771494;495.955083989897
315.804758142155;495.206238160452
315.826369512815;494.499427344246
315.847980883476;493.842212242229
315.869592254137;493.246232032084
315.891203624798;492.715213918101
315.912814995459;492.23138621142
315.93442636612;491.789953837127
315.956037736781;491.391787632937
315.977649107441;491.039352334513
315.999260478102;490.722224310975
316.020871848763;490.421675321596
316.042483219424;490.122656753593
316.064094590085;489.82686818942
316.085705960746;489.532149575964
316.107317331407;489.207284062673
316.128928702067;488.81031688064
316.150540072728;488.329283704543
316.172151443389;487.814826325419
316.19376281405;487.302555807598
316.215374184711;486.776672174808
316.236985555372;486.197654758572
316.258596926033;485.543133590575
316.280208296693;484.833285557178
316.301819667354;484.104849451743
316.323431038015;483.366657518861
316.345042408676;482.600805696076
316.366653779337;481.818234228914
316.388265149998;481.045083972909
316.409876520658;480.292283008178
316.431487891319;479.561932079284
316.45309926198;478.846255553833
316.474710632641;478.13863369185
316.496322003302;477.494649152822
316.517933373963;476.952929710467
316.539544744624;476.496357842284
316.561156115284;476.099006024421
316.582767485945;475.779471452427
316.604378856606;475.551539730008
316.625990227267;475.423631454747
316.647601597928;475.381321797328
316.669212968589;475.405212340031
316.69082433925;475.477237761984
316.71243570991;475.590028655318
316.734047080571;475.732563862223
316.755658451232;475.886973222155
316.777269821893;476.040676709703
316.798881192554;476.177205475071
316.820492563215;476.274160255585
316.842103933876;476.306899402576
316.863715304536;476.256639104049
316.885326675197;476.110018454939
316.906938045858;475.847700859347
316.928549416519;475.459243821339
316.95016078718;474.967698790869
316.971772157841;474.393228063236
316.993383528502;473.727604907101
317.014994899162;472.949525666914
317.036606269823;472.090623457679
317.058217640484;471.196233509177
317.079829011145;470.266164709481
317.101440381806;469.325566808064
317.123051752467;468.416653376995
317.144663123128;467.560337436023
317.166274493788;466.745016317419
317.187885864449;465.947198710333
317.20949723511;465.171064769262
317.231108605771;464.463004423198
317.252719976432;463.831816670359
317.274331347093;463.254297883767
317.295942717754;462.721323938663
317.317554088414;462.241692088506
317.339165459075;461.805365072177
317.360776829736;461.388331891939
317.382388200397;460.962857916917
317.403999571058;460.521201517749
317.425610941719;460.086038343263
317.447222312379;459.653280005289
317.46883368304;459.209612093271
317.490445053701;458.75012668246
317.512056424362;458.27334402615
317.533667795023;457.778254265691
317.555279165684;457.255301682687
317.576890536345;456.687076595178
317.598501907005;456.062766058815
317.620113277666;455.40881686267
317.641724648327;454.745837383811
317.663336018988;454.053923092042
317.684947389649;453.299237093775
317.70655876031;452.47322472309
317.728170130971;451.589165918419
317.749781501631;450.654448842591
317.771392872292;449.690834661497
317.793004242953;448.707414113332
317.814615613614;447.691436546174
317.836226984275;446.661641821479
317.857838354936;445.654836490094
317.879449725597;444.68365163891
317.901061096257;443.7649334335
317.922672466918;442.9246587383
317.944283837579;442.15948718282
317.96589520824;441.45184651583
317.987506578901;440.79247522083
318.009117949562;440.17285164862
318.030729320223;439.581857193154
318.052340690883;439.003759303368
318.073952061544;438.421836704006
318.095563432205;437.812973627272
318.117174802866;437.167015828318
318.138786173527;436.490899537503
318.160397544188;435.800551736116
318.182008914849;435.086225125844
318.203620285509;434.320832097237
318.22523165617;433.484197602604
318.246843026831;432.582563823467
318.268454397492;431.655833578105
318.290065768153;430.72141185195
318.311677138814;429.77673903633
318.333288509475;428.829894977457
318.354899880135;427.890974580441
318.376511250796;426.955546949456
318.398122621457;426.029361730376
318.419733992118;425.141486539748
318.441345362779;424.31822301035
318.46295673344;423.56824139105
318.484568104101;422.903845616415
318.506179474761;422.334433048379
318.527790845422;421.849421541716
318.549402216083;421.422208967591
318.571013586744;421.032458732876
318.592624957405;420.689858892914
318.614236328066;420.405594336745
318.635847698726;420.159619008079
318.657459069387;419.926511079539
318.679070440048;419.693986213271
318.700681810709;419.461250805403
318.72229318137;419.240968946858
318.743904552031;419.036228336959
318.765515922692;418.843771339351
318.787127293352;418.665168664266
318.808738664013;418.498435881874
318.830350034674;418.352907261254
318.851961405335;418.232830645289
318.873572775996;418.116456003826
318.895184146657;418.004249014146
318.916795517318;417.908209799852
318.938406887978;417.826298819908
318.960018258639;417.755458800811
318.9816296293;417.680787139578
319.003240999961;417.581304259653
319.024852370622;417.450546468801
319.046463741283;417.272830536834
319.068075111944;417.049860836026
319.089686482604;416.778104063894
319.111297853265;416.433964737513
319.132909223926;416.012470582662
319.154520594587;415.526410089866
319.176131965248;414.977575068967
319.197743335909;414.351448021898
319.21935470657;413.664416129721
319.24096607723;412.949331978941
319.262577447891;412.204355295603
319.284188818552;411.437200957003
319.305800189213;410.669804057504
319.327411559874;409.92139071692
319.349022930535;409.183892724036
319.370634301196;408.432907819445
319.392245671856;407.680372839723
319.413857042517;406.972492693985
319.435468413178;406.319177339467
319.457079783839;405.700434816277
319.4786911545;405.117958378052
319.500302525161;404.586014860698
319.521913895822;404.106031077287
319.543525266482;403.671426558988
319.565136637143;403.257393414768
319.586748007804;402.838318229277
319.608359378465;402.412786271195
319.629970749126;402.025199328178
319.651582119787;401.69646822205
319.673193490447;401.393099631282
319.694804861108;401.089543197813
319.716416231769;400.780085120263
319.73802760243;400.494968369876
319.759638973091;400.245989903373
319.781250343752;400.024110765241
319.802861714413;399.832390535312
319.824473085073;399.680188957993
319.846084455734;399.561568834653
319.867695826395;399.463958230647
319.889307197056;399.383502718705
319.910918567717;399.320709985906
319.932529938378;399.277684051507
319.954141309039;399.250005187205
319.975752679699;399.235961795056
319.99736405036;399.235003263473
320.018975421021;399.247806298973
320.040586791682;399.277312058899
320.062198162343;399.330638757247
320.083809533004;399.408715039165
320.105420903665;399.515111615483
320.127032274325;399.658805175651
320.148643644986;399.848629604918
320.170255015647;400.090392414191
320.191866386308;400.383837208366
320.213477756969;400.719611843534
320.23508912763;401.07858642036
320.256700498291;401.443825245841
320.278311868951;401.809268739691
320.299923239612;402.165556160941
320.321534610273;402.485253103171
320.343145980934;402.727116197416
320.364757351595;402.865756799144
320.386368722256;402.887816636145
320.407980092917;402.764599440669
320.429591463577;402.460502950937
320.451202834238;401.965948102503
320.472814204899;401.292164929849
320.49442557556;400.440886319825
320.516036946221;399.428006624481
320.537648316882;398.273669753833
320.559259687543;396.987151008636
320.580871058203;395.59763498704
320.602482428864;394.165864628846
320.624093799525;392.740419276182
320.645705170186;391.324881193279
320.667316540847;389.97071847778
320.688927911508;388.748657759646
320.710539282169;387.648359664499
320.732150652829;386.61515983879
320.75376202349;385.635607472207
320.775373394151;384.745636640706
320.796984764812;383.980029652265
320.818596135473;383.315990326647
320.840207506134;382.690565449685
320.861818876794;382.061937466172
320.883430247455;381.42930092342
320.905041618116;380.783594491985
320.926652988777;380.097301012877
320.948264359438;379.336735083964
320.969875730099;378.485266033881
320.99148710076;377.545978163396
321.013098471421;376.521458373096
321.034709842081;375.411844660517
321.056321212742;374.21854295781
321.077932583403;372.912327580126
321.099543954064;371.452159778182
321.121155324725;369.838274811369
321.142766695386;368.135885830889
321.164378066046;366.367059295556
321.185989436707;364.569555381776
321.207600807368;362.783585430502
321.229212178029;361.0172689961
321.25082354869;359.27893808356
321.272434919351;357.593443091812
321.294046290012;355.988155601848
321.315657660672;354.488976183745
321.337269031333;353.132177523555
321.358880401994;351.924887501611
321.380491772655;350.857313578612
321.402103143316;349.989838971774
321.423714513977;349.313723135661
321.445325884638;348.790605863735
321.466937255298;348.388220196334
321.488548625959;348.090021035762
321.51015999662;347.888334722957
321.531771367281;347.77502769884
321.553382737942;347.727744562276
321.574994108603;347.726813732454
321.596605479264;347.760661028707
321.618216849924;347.824046164439
321.639828220585;347.913488533461
321.661439591246;348.027526415502
321.683050961907;348.166572793361
321.704662332568;348.330444783373
321.726273703229;348.512103482096
321.74788507389;348.70121207745
321.76949644455;348.894289846691
321.791107815211;349.090460703495
321.812719185872;349.280157253103
321.834330556533;349.454125999708
321.855941927194;349.610656380768
321.877553297855;349.75118853803
321.899164668516;349.877140729578
321.920776039176;349.988843919808
321.942387409837;350.079738894643
321.963998780498;350.14281312459
321.985610151159;350.176543807188
322.00722152182;350.18016523893
322.028832892481;350.155406363801
322.050444263142;350.102762747618
322.072055633802;350.019842368318
322.093667004463;349.884935733015
322.115278375124;349.703074015731
322.136889745785;349.484127167151
322.158501116446;349.211631316468
322.180112487107;348.858845874445
322.201723857767;348.435050948294
322.223335228428;347.974630183687
322.244946599089;347.487195074905
322.26655796975;346.97343812811
322.288169340411;346.450176321069
322.309780711072;345.936357603867
322.331392081733;345.427265772702
322.353003452393;344.915236313249
322.374614823054;344.404122260357
322.396226193715;343.901240271993
322.417837564376;343.409736102805
322.439448935037;342.923884039801
322.461060305698;342.439616319877
322.482671676359;341.953696763286
322.504283047019;341.442876904308
322.52589441768;340.879014504721
322.547505788341;340.266990065533
322.569117159002;339.653072997916
322.590728529663;339.032335967419
322.612339900324;338.366013241256
322.633951270985;337.642074276405
322.655562641645;336.873105487674
322.677174012306;336.075694525561
322.698785382967;335.257410219671
322.720396753628;334.411738736884
322.742008124289;333.535877621237
322.76361949495;332.630544892305
322.785230865611;331.72101115777
322.806842236271;330.841469487408
322.828453606932;329.958864947597
322.850064977593;329.055105376273
322.871676348254;328.147444934681
322.893287718915;327.261633748642
322.914899089576;326.385230799201
322.936510460237;325.500561498227
322.958121830897;324.63137871036
322.979733201558;323.799192606242
323.001344572219;323.006295978401
323.02295594288;322.240296469674
323.044567313541;321.477041382383
323.066178684202;320.701310613323
323.087790054863;319.927424510152
323.109401425523;319.156653077734
323.131012796184;318.391747905169
323.152624166845;317.644522397845
323.174235537506;316.912837402705
323.195846908167;316.177232007852
323.217458278828;315.463527364884
323.239069649489;314.785778436752
323.260681020149;314.144066907459
323.28229239081;313.554422687957
323.303903761471;313.037533884545
323.325515132132;312.596885383319
323.347126502793;312.228134883336
323.368737873454;311.920255274371
323.390349244114;311.66556459195
323.411960614775;311.45981628069
323.433571985436;311.288712059954
323.455183356097;311.135387437706
323.476794726758;310.994400549038
323.498406097419;310.870510944668
323.52001746808;310.752730030522
323.54162883874;310.615401325449
323.563240209401;310.441003993939
323.584851580062;310.240341703368
323.606462950723;310.030132326591
323.628074321384;309.81072982616
323.649685692045;309.564271522547
323.671297062706;309.283834052615
323.692908433366;308.984379913448
323.714519804027;308.674205843514
323.736131174688;308.351288345432
323.757742545349;308.013359677048
323.77935391601;307.657684732704
323.800965286671;307.285284106852
323.822576657332;306.895646906553
323.844188027992;306.480685563068
323.865799398653;306.037734986527
323.887410769314;305.567755809112
323.909022139975;305.07537752225
323.930633510636;304.577298707273
323.952244881297;304.072159689653
323.973856251958;303.542599230667
323.995467622618;302.983386153236
324.017078993279;302.393827456201
324.03869036394;301.781882696045
324.060301734601;301.170322630256
324.081913105262;300.582698460469
324.103524475923;300.029626730067
324.125135846584;299.515939165221
324.146747217244;299.031712981359
324.168358587905;298.55974672891
324.189969958566;298.090766094985
324.211581329227;297.619792044245
324.233192699888;297.135299472034
324.254804070549;296.625299442172
324.27641544121;296.068760223347
324.29802681187;295.466714625
324.319638182531;294.817495803562
324.341249553192;294.105041811241
324.362860923853;293.327149428454
324.384472294514;292.471398339888
324.406083665175;291.523312962652
324.427695035835;290.514117132574
324.449306406496;289.441643668297
324.470917777157;288.273340169045
324.492529147818;287.054828511923
324.514140518479;285.848308452074
324.53575188914;284.65186831479
324.557363259801;283.425675996275
324.578974630461;282.127631460209
324.600586001122;280.749617948876
324.622197371783;279.292220295399
324.643808742444;277.778786866076
324.665420113105;276.276968548789
324.687031483766;274.853103068068
324.708642854427;273.495405655948
324.730254225087;272.165150929101
324.751865595748;270.835685394002
324.773476966409;269.5090282985
