Name;ESR_BC_1_359s_Y_gon_60dg_5

Recipe
Accumulations;5;Number of accumulations
RetryCount;0;Number of retries on error
AbortOnError;True;Abort on error
EnableQFactorMeasurement;False;Enable/Disable q-Factor measurement
Bfrom;313;B from
Bto;363;B to
SweepTime;60;Sweep time
Modulation;0.2;Modulation
ModulationFreq;100;Modulation
BHoldEnabled;False;B hold enabled
BHold;0;B hold
MicrowavePower;2;Microwave power
MarkerEnabled;False;
MarkerStartField;0;
MarkerEndField;0;
Mode;;
KineticGFact;0;
KineticTotalTransientTime;0;
KineticTimeResolution;0;
TempFrom;5;
TempUseSlope;False;
TempTo;5;
TempdT;1;
TempSetupTime;0;
GonFrom;0;
GonTo;180;
GonSteps;20;
XRayEnabled;False;
XRayTime;3;
XRayVoltage;40;
XRayCurrent;0.5;
UVEnabled;False;
UVIntensity;0;
UVTime;0;
UVLeadTime;0;
UVWavelength;0;
PowSweepFrom;1;
PowSweepTo;5;
PowSweepSteps;5;
AmpModSweepFrom;0;
AmpModSweepTo;1;
AmpModSweepSteps;10;
ExtTriggerEnabled;False;
ExtTrigLeadTime;0;
ExtTrigOnTime;5;

Meas
BField [mT];MW_Absorption []
313.027233734131;182.227742833132
313.04885734132;180.97187756465
313.07048094851;179.640780110809
313.0921045557;178.271998760558
313.113728162889;176.893902283611
313.135351770079;175.505174732644
313.156975377269;174.090687657346
313.178598984458;172.704646568201
313.200222591648;171.406664163944
313.221846198837;170.17202669822
313.243469806027;168.88408881221
313.265093413217;167.448891660364
313.286717020406;165.819582562314
313.308340627596;164.156271075602
313.329964234786;162.683370684492
313.351587841975;161.433001844683
313.373211449165;160.345004542817
313.394835056354;159.396466759652
313.416458663544;158.548867236091
313.438082270734;157.757530271167
313.459705877923;157.035722864339
313.481329485113;156.502983689991
313.502953092303;156.180392510817
313.524576699492;156.002654412111
313.546200306682;155.92857052113
313.567823913871;155.926557214729
313.589447521061;155.980162895002
313.611071128251;156.070983459475
313.63269473544;156.183341099128
313.65431834263;156.297668398726
313.67594194982;156.395146446227
313.697565557009;156.473251761461
313.719189164199;156.515313589697
313.740812771388;156.513856966191
313.762436378578;156.469358166906
313.784059985768;156.380309526507
313.805683592957;156.241638240149
313.827307200147;156.049894807369
313.848930807337;155.809261661999
313.870554414526;155.51241814513
313.892178021716;155.174485830249
313.913801628905;154.800331233478
313.935425236095;154.377790440142
313.957048843285;153.89787696958
313.978672450474;153.377227537947
314.000296057664;152.862839846731
314.021919664854;152.37229519136
314.043543272043;151.888715629855
314.065166879233;151.380823901827
314.086790486422;150.85112395834
314.108414093612;150.36395263434
314.130037700802;149.938235238509
314.151661307991;149.549372068468
314.173284915181;149.180163921651
314.194908522371;148.820900241908
314.21653212956;148.471905853032
314.23815573675;148.130358674105
314.259779343939;147.778307346763
314.281402951129;147.408668111819
314.303026558319;147.022141721439
314.324650165508;146.612089190093
314.346273772698;146.165589733619
314.367897379888;145.682441419794
314.389520987077;145.195258316784
314.411144594267;144.700614584195
314.432768201456;144.172527567169
314.454391808646;143.652956426441
314.476015415836;143.205966067545
314.497639023025;142.800220533125
314.519262630215;142.400291282431
314.540886237405;141.982066112672
314.562509844594;141.542073257196
314.584133451784;141.086458285395
314.605757058973;140.59632205192
314.627380666163;140.109190292679
314.649004273353;139.650972851468
314.670627880542;139.196663574175
314.692251487732;138.723899214897
314.713875094922;138.256469963208
314.735498702111;137.808639884211
314.757122309301;137.381115924079
314.77874591649;136.969103406334
314.80036952368;136.576353981221
314.82199313087;136.214147730398
314.843616738059;135.88334542988
314.865240345249;135.600711454194
314.886863952439;135.380389082734
314.908487559628;135.230796191832
314.930111166818;135.144508112628
314.951734774007;135.112276615241
314.973358381197;135.127387277811
314.994981988387;135.183034829905
315.016605595576;135.266320225085
315.038229202766;135.363682891438
315.059852809956;135.461396454665
315.081476417145;135.543002122764
315.103100024335;135.596227156273
315.124723631524;135.60919721678
315.146347238714;135.571331868528
315.167970845904;135.457849716576
315.189594453093;135.249370650574
315.211218060283;134.95935875072
315.232841667473;134.582563178955
315.254465274662;134.117204597155
315.276088881852;133.62744563992
315.297712489041;133.144302530267
315.319336096231;132.659045624527
315.340959703421;132.16702738447
315.36258331061;131.678638383549
315.3842069178;131.21075345831
315.40583052499;130.780587061139
315.427454132179;130.404919181337
315.449077739369;130.095510919689
315.470701346558;129.868174287645
315.492324953748;129.729548199361
315.513948560938;129.652365290427
315.535572168127;129.609423558781
315.557195775317;129.585493341054
315.578819382507;129.563195882747
315.600442989696;129.517078381317
315.622066596886;129.422088000291
315.643690204075;129.269894312668
315.665313811265;129.048811470664
315.686937418455;128.739643461487
315.708561025644;128.336483419109
315.730184632834;127.841635402626
315.751808240024;127.247261611018
315.773431847213;126.555442170088
315.795055454403;125.828828271359
315.816679061592;125.110174803133
315.838302668782;124.355763947867
315.859926275972;123.526134695585
315.881549883161;122.624037782219
315.903173490351;121.702433316459
315.924797097541;120.86956923142
315.94642070473;120.17047609276
315.96804431192;119.554481853331
315.989667919109;118.980653812728
316.011291526299;118.430145468461
316.032915133489;117.929579502826
316.054538740678;117.525641256836
316.076162347868;117.230704965168
316.097785955057;117.03907230654
316.119409562247;116.953360535733
316.141033169437;116.953684417627
316.162656776626;117.024175685008
316.184280383816;117.159976478649
316.205903991006;117.363031598619
316.227527598195;117.614500425752
316.249151205385;117.888664520129
316.270774812574;118.163868722106
316.292398419764;118.442004110539
316.314022026954;118.733262257872
316.335645634143;119.030354828593
316.357269241333;119.30261847364
316.378892848523;119.532432367861
316.400516455712;119.727205359027
316.422140062902;119.896578144281
316.443763670091;120.042138554979
316.465387277281;120.15631405619
316.487010884471;120.236425548445
316.50863449166;120.287580064485
316.53025809885;120.317116865685
316.55188170604;120.328604469465
316.573505313229;120.324343986805
316.595128920419;120.308590166815
316.616752527608;120.288349276484
316.638376134798;120.269996490966
316.659999741988;120.257716977115
316.681623349177;120.258174086217
316.703246956367;120.2739817888
316.724870563557;120.306704391156
316.746494170746;120.362123021753
316.768117777936;120.442507443738
316.789741385125;120.538888680027
316.811364992315;120.639815014169
316.832988599505;120.736561734134
316.854612206694;120.819963347583
316.876235813884;120.880032363024
316.897859421074;120.90426695568
316.919483028263;120.882941268609
316.941106635453;120.806365471546
316.962730242642;120.66887895637
316.984353849832;120.471740675162
317.005977457022;120.223376999362
317.027601064211;119.940050034866
317.049224671401;119.625289116453
317.070848278591;119.267801739725
317.09247188578;118.858518929827
317.11409549297;118.428022439067
317.135719100159;118.02262672518
317.157342707349;117.643359288904
317.178966314539;117.263934493896
317.200589921728;116.867673723176
317.222213528918;116.481160859993
317.243837136108;116.160538638463
317.265460743297;115.942672450359
317.287084350487;115.826510924492
317.308707957676;115.805377475769
317.330331564866;115.869846503348
317.351955172056;116.02378051582
317.373578779245;116.275987254143
317.395202386435;116.653483284445
317.416825993625;117.177476032211
317.438449600814;117.779027944358
317.460073208004;118.404119700868
317.481696815193;119.040659323893
317.503320422383;119.680687378352
317.524944029573;120.301799468697
317.546567636762;120.900765609635
317.568191243952;121.487014509292
317.589814851142;122.016506356787
317.611438458331;122.448930277233
317.633062065521;122.781022634596
317.65468567271;123.030875417027
317.6763092799;123.217417279342
317.69793288709;123.340848302211
317.719556494279;123.387334782741
317.741180101469;123.355949686712
317.762803708659;123.245286697676
317.784427315848;123.053541990798
317.806050923038;122.810406170743
317.827674530227;122.529287784747
317.849298137417;122.193081833392
317.870921744607;121.793902695613
317.892545351796;121.364776780129
317.914168958986;120.937815142635
317.935792566176;120.50778390273
317.957416173365;120.041219036209
317.979039780555;119.544548760716
318.000663387744;119.108871644744
318.022286994934;118.786289942471
318.043910602124;118.559469758171
318.065534209313;118.42606439709
318.087157816503;118.395948295196
318.108781423693;118.4615199391
318.130405030882;118.601593644478
318.152028638072;118.81211896466
318.173652245261;119.123837795832
318.195275852451;119.537457766918
318.216899459641;119.981139591337
318.23852306683;120.399365970264
318.26014667402;120.78902593027
318.28177028121;121.141752076489
318.303393888399;121.446573752179
318.325017495589;121.696297132749
318.346641102778;121.871246421539
318.368264709968;121.937563066327
318.389888317158;121.883248077207
318.411511924347;121.730183789431
318.433135531537;121.513277548236
318.454759138727;121.249412101617
318.476382745916;120.937615691297
318.498006353106;120.590720159984
318.519629960295;120.237508014954
318.541253567485;119.903741204363
318.562877174675;119.589186664025
318.584500781864;119.268334307479
318.606124389054;118.926529088942
318.627747996244;118.610859264466
318.649371603433;118.329072579722
318.670995210623;118.043691914403
318.692618817812;117.719577433723
318.714242425002;117.366102653351
318.735866032192;117.015799244999
318.757489639381;116.662164462343
318.779113246571;116.287474444873
318.800736853761;115.884467345556
318.82236046095;115.463183874462
318.84398406814;115.046215270062
318.865607675329;114.645954763026
318.887231282519;114.270619227126
318.908854889709;113.941270633033
318.930478496898;113.661260757755
318.952102104088;113.425917915391
318.973725711278;113.245412311934
318.995349318467;113.120236207358
319.016972925657;113.043399062777
319.038596532846;113.008401669845
319.060220140036;113.012585261574
319.081843747226;113.058797342364
319.103467354415;113.150984343056
319.125090961605;113.277246397505
319.146714568795;113.404776825753
319.168338175984;113.528807463978
319.189961783174;113.657083187098
319.211585390363;113.78526063623
319.233208997553;113.913888827205
319.254832604743;114.047158312556
319.276456211932;114.179557764387
319.298079819122;114.306956568796
319.319703426312;114.424673042503
319.341327033501;114.535125592931
319.362950640691;114.644584460622
319.38457424788;114.756866816765
319.40619785507;114.869179172538
319.42782146226;114.965713948758
319.449445069449;115.022684694092
319.471068676639;115.044994624839
319.492692283829;115.036840688783
319.514315891018;114.996049806616
319.535939498208;114.918558652522
319.557563105397;114.808570333895
319.579186712587;114.666694324661
319.600810319777;114.483753339738
319.622433926966;114.255920952552
319.644057534156;113.983391357793
319.665681141346;113.659280511124
319.687304748535;113.268731958623
319.708928355725;112.807738782819
319.730551962914;112.290407885103
319.752175570104;111.733174878013
319.773799177294;111.141322630358
319.795422784483;110.573442946506
319.817046391673;110.075793372188
319.838669998863;109.640877923871
319.860293606052;109.259803039395
319.881917213242;108.922630888936
319.903540820431;108.642832586062
319.925164427621;108.450261877497
319.946788034811;108.37364357653
319.968411642;108.384291883335
319.99003524919;108.467569194239
320.011658856379;108.614556235262
320.033282463569;108.799452184881
320.054906070759;108.992093480193
320.076529677948;109.172309367393
320.098153285138;109.32713197512
320.119776892328;109.45010342612
320.141400499517;109.535598027219
320.163024106707;109.571499002957
320.184647713896;109.555487636577
320.206271321086;109.478177209931
320.227894928276;109.338637008587
320.249518535465;109.14743363817
320.271142142655;108.919120244843
320.292765749845;108.664583263454
320.314389357034;108.383262430599
320.336012964224;108.082974214388
320.357636571413;107.785404300493
320.379260178603;107.494335706125
320.400883785793;107.202418435495
320.422507392982;106.906588589235
320.444131000172;106.605437681128
320.465754607362;106.300647672877
320.487378214551;106.002432034849
320.509001821741;105.70207171599
320.53062542893;105.386888187489
320.55224903612;105.093850762987
320.57387264331;104.853414555822
320.595496250499;104.670894595266
320.617119857689;104.561247780937
320.638743464879;104.536647168654
320.660367072068;104.594502031241
320.681990679258;104.738414283903
320.703614286447;104.983836476667
320.725237893637;105.305003574843
320.746861500827;105.653364050001
320.768485108016;106.012270294149
320.790108715206;106.39045597365
320.811732322396;106.772979781047
320.833355929585;107.100092046399
320.854979536775;107.338880843512
320.876603143964;107.489506997873
320.898226751154;107.511890191745
320.919850358344;107.400095488528
320.941473965533;107.1659533571
320.963097572723;106.856127020614
320.984721179913;106.50513960366
321.006344787102;106.106155943523
321.027968394292;105.61806036034
321.049592001481;105.050014592188
321.071215608671;104.466988334324
321.092839215861;103.91320046438
321.11446282305;103.398154700207
321.13608643024;102.925162019723
321.15771003743;102.488017392914
321.179333644619;102.079717002207
321.200957251809;101.705325253342
321.222580858998;101.383844329341
321.244204466188;101.124059937077
321.265828073378;100.948061824751
321.287451680567;100.861984016211
321.309075287757;100.865221410062
321.330698894947;100.942715088479
321.352322502136;101.082959487589
321.373946109326;101.28574536744
321.395569716515;101.539727848936
321.417193323705;101.781924262669
321.438816930895;101.98841075128
321.460440538084;102.168292057112
321.482064145274;102.324259920044
321.503687752464;102.441114161227
321.525311359653;102.507623305138
321.546934966843;102.529932433009
321.568558574032;102.521341701364
321.590182181222;102.495982269094
321.611805788412;102.460573624421
321.633429395601;102.420962306836
321.655053002791;102.38788191015
321.676676609981;102.367475607918
321.69830021717;102.361539463495
321.71992382436;102.365708128193
321.741547431549;102.372977950718
321.763171038739;102.375229169422
321.784794645929;102.365528856858
321.806418253118;102.334546783611
321.828041860308;102.277492627524
321.849665467498;102.200302606502
321.871289074687;102.105666598786
321.892912681877;102.001709753813
321.914536289066;101.895738460639
321.936159896256;101.793438605499
321.957783503446;101.705955442464
321.979407110635;101.643379964595
322.001030717825;101.611609277684
322.022654325015;101.607744143542
322.044277932204;101.62081314741
322.065901539394;101.634380900276
322.087525146583;101.622364603798
322.109148753773;101.559854037443
322.130772360963;101.430058950022
322.152395968152;101.222620587059
322.174019575342;100.925686972079
322.195643182532;100.531456831591
322.217266789721;100.036086158578
322.238890396911;99.4376558291058
322.2605140041;98.7724585104709
322.28213761129;98.1365415034656
322.30376121848;97.5647579121076
322.325384825669;97.0565948803474
322.347008432859;96.6593983973701
322.368632040049;96.4128057485654
322.390255647238;96.2894345340873
322.411879254428;96.2696813038277
322.433502861617;96.367285672368
322.455126468807;96.6176342995754
322.476750075997;97.0035581693022
322.498373683186;97.4139702619713
322.519997290376;97.7679727683891
322.541620897566;98.0757480619072
322.563244504755;98.3484062624366
322.584868111945;98.5825481726246
322.606491719134;98.7463591407183
322.628115326324;98.8034910730377
322.649738933514;98.7540142165781
322.671362540703;98.5978286875186
322.692986147893;98.3464361720659
322.714609755083;98.0483739728044
322.736233362272;97.7350783237713
322.757856969462;97.4033330451612
322.779480576651;97.064461079751
322.801104183841;96.7206596082642
322.822727791031;96.3806754969036
322.84435139822;96.0589264208214
322.86597500541;95.7599546748183
322.8875986126;95.4927986839447
322.909222219789;95.2733145546044
322.930845826979;95.1086375642399
322.952469434168;94.996006066893
322.974093041358;94.9242225975013
322.995716648548;94.8896504894507
323.017340255737;94.8933086611711
323.038963862927;94.9291394108181
323.060587470117;94.984908702779
323.082211077306;95.039255357274
323.103834684496;95.0651599553972
323.125458291685;95.0348328276492
323.147081898875;94.9276406551567
323.168705506065;94.7401064708985
323.190329113254;94.4394272763058
323.211952720444;93.9685571714665
323.233576327634;93.3865041624594
323.255199934823;92.803419240122
323.276823542013;92.2237846874617
323.298447149202;91.6174964673728
323.320070756392;90.962999163328
323.341694363582;90.2922786022654
323.363317970771;89.6487401397299
323.384941577961;89.0472338564144
323.406565185151;88.4906554822143
323.42818879234;88.0055640828426
323.44981239953;87.6154564585879
323.471436006719;87.3013957016448
323.493059613909;87.034755158818
323.514683221099;86.7967565904287
323.536306828288;86.5713804207775
323.557930435478;86.3412693041316
323.579554042668;86.0941543581377
323.601177649857;85.8537600882953
323.622801257047;85.6430556415358
323.644424864236;85.4564968560221
323.666048471426;85.2860722450339
323.687672078616;85.1303899818444
323.709295685805;84.998906924313
323.730919292995;84.9075805563199
323.752542900184;84.8726171688634
323.774166507374;84.9021427185366
323.795790114564;84.9979982995135
323.817413721753;85.163275663276
323.839037328943;85.3794836096275
323.860660936133;85.6179617775411
323.882284543322;85.8720694772351
323.903908150512;86.1437212352121
323.925531757701;86.4211048507731
323.947155364891;86.6872511947008
323.968778972081;86.9316119051964
323.99040257927;87.1465254179065
324.01202618646;87.3278702093442
324.03364979365;87.4699568000577
324.055273400839;87.5669783052757
324.076897008029;87.6178230744163
324.098520615218;87.6172397923254
324.120144222408;87.5660414463084
324.141767829598;87.4632682628583
324.163391436787;87.317989892647
324.185015043977;87.1275768586662
324.206638651167;86.9057697875728
324.228262258356;86.6788792815535
324.249885865546;86.4561897659842
324.271509472735;86.2585304526969
324.293133079925;86.110259468392
324.314756687115;86.0139706369381
324.336380294304;85.9722214354431
324.358003901494;85.9793584220504
324.379627508684;86.0280172300997
324.401251115873;86.1037748002361
324.422874723063;86.1953640957486
324.444498330252;86.2904134729843
324.466121937442;86.3815473053544
324.487745544632;86.4737878838425
324.509369151821;86.5617866163412
324.530992759011;86.6363522830936
324.552616366201;86.6888549248409
324.57423997339;86.717635541389
324.59586358058;86.7148725691795
324.617487187769;86.6669718629427
324.639110794959;86.5623185721581
324.660734402149;86.4192544039116
324.682358009338;86.2338428677747
324.703981616528;85.9804112055313
324.725605223718;85.6372788542379
324.747228830907;85.2304657716368
324.768852438097;84.7866547752654
324.790476045286;84.3042400338605
