Name;ESR_BC_1_359s_Y_gon_60dg_1

Recipe
Accumulations;5;Number of accumulations
RetryCount;0;Number of retries on error
AbortOnError;True;Abort on error
EnableQFactorMeasurement;False;Enable/Disable q-Factor measurement
Bfrom;313;B from
Bto;363;B to
SweepTime;60;Sweep time
Modulation;0.2;Modulation
ModulationFreq;100;Modulation
BHoldEnabled;False;B hold enabled
BHold;0;B hold
MicrowavePower;2;Microwave power
MarkerEnabled;False;
MarkerStartField;0;
MarkerEndField;0;
Mode;;
KineticGFact;0;
KineticTotalTransientTime;0;
KineticTimeResolution;0;
TempFrom;5;
TempUseSlope;False;
TempTo;5;
TempdT;1;
TempSetupTime;0;
GonFrom;0;
GonTo;180;
GonSteps;20;
XRayEnabled;False;
XRayTime;3;
XRayVoltage;40;
XRayCurrent;0.5;
UVEnabled;False;
UVIntensity;0;
UVTime;0;
UVLeadTime;0;
UVWavelength;0;
PowSweepFrom;1;
PowSweepTo;5;
PowSweepSteps;5;
AmpModSweepFrom;0;
AmpModSweepTo;1;
AmpModSweepSteps;10;
ExtTriggerEnabled;False;
ExtTrigLeadTime;0;
ExtTrigOnTime;5;

Meas
BField [mT];MW_Absorption []
313.018355026245;178.708580237774
313.039977056882;177.82797089538
313.061599087519;176.826548868441
313.083221118156;175.811387498416
313.104843148793;174.854859624505
313.12646517943;173.950746251918
313.148087210067;173.024076429948
313.169709240704;172.040519512015
313.191331271341;171.055961882155
313.212953301978;170.062918697473
313.234575332615;169.017432622094
313.256197363252;167.958217145354
313.277819393889;166.938810462704
313.299441424526;165.916261968137
313.321063455163;164.851800938568
313.3426854858;163.755283973177
313.364307516437;162.676852540664
313.385929547074;161.673477122097
313.407551577711;160.795418814252
313.429173608348;160.044825413905
313.450795638985;159.407284376841
313.472417669622;158.919728208651
313.494039700259;158.614588348505
313.515661730896;158.456500503271
313.537283761533;158.401833570747
313.55890579217;158.425309593817
313.580527822807;158.505861904875
313.602149853444;158.611659222976
313.623771884081;158.706949763553
313.645393914718;158.764284203097
313.667015945355;158.770654871144
313.688637975992;158.717516445498
313.710260006629;158.600045493083
313.731882037266;158.407798672201
313.753504067903;158.126565013257
313.77512609854;157.747381046881
313.796748129177;157.344161740465
313.818370159814;156.958030208619
313.839992190451;156.589578263101
313.861614221088;156.229403242241
313.883236251725;155.866203873771
313.904858282362;155.485440667199
313.926480312999;155.059727853163
313.948102343636;154.58254832763
313.969724374273;154.077067963067
313.99134640491;153.538833854906
314.012968435547;152.954137073576
314.034590466184;152.341299475905
314.056212496821;151.687608638956
314.077834527458;150.942042750355
314.099456558095;150.053044048775
314.121078588732;149.091259187145
314.142700619369;148.16734479552
314.164322650007;147.268852084872
314.185944680644;146.335793262929
314.20756671128;145.394080794682
314.229188741918;144.581838957411
314.250810772555;143.906018358312
314.272432803192;143.315672781086
314.294054833829;142.747679497379
314.315676864466;142.172232305358
314.337298895103;141.623880717065
314.35892092574;141.131917451331
314.380542956377;140.693515392317
314.402164987014;140.278576292478
314.423787017651;139.862340565145
314.445409048288;139.455073494071
314.467031078925;139.108668464059
314.488653109562;138.837144035657
314.510275140199;138.621663900958
314.531897170836;138.46087646725
314.553519201473;138.340364574126
314.57514123211;138.258285030348
314.596763262747;138.212799715061
314.618385293384;138.189242507045
314.640007324021;138.166635757709
314.661629354658;138.129248553975
314.683251385295;138.063444865404
314.704873415932;137.944662992327
314.726495446569;137.761738141836
314.748117477206;137.5109391779
314.769739507843;137.185346098929
314.79136153848;136.775387769679
314.812983569117;136.278881910578
314.834605599754;135.709479342616
314.856227630391;135.090769857696
314.877849661028;134.452257772443
314.899471691665;133.816216910052
314.921093722302;133.200620102574
314.942715752939;132.635388442322
314.964337783576;132.137748983374
314.985959814213;131.702281769176
315.00758184485;131.326455758025
315.029203875487;131.037606812083
315.050825906124;130.867273244617
315.072447936761;130.828795165836
315.094069967398;130.905872727456
315.115691998035;131.061804460597
315.137314028672;131.277641262814
315.158936059309;131.537448179215
315.180558089946;131.801272470348
315.202180120583;132.021252946914
315.22380215122;132.113751568735
315.245424181857;132.082751654076
315.267046212494;131.939574485525
315.288668243131;131.685706290877
315.310290273768;131.307421441894
315.331912304405;130.80075098655
315.353534335042;130.114226964258
315.375156365679;129.190565887121
315.396778396316;128.07498131575
315.418400426953;126.92026674621
315.44002245759;125.81535521473
315.461644488227;124.803804776131
315.483266518864;123.868097391998
315.504888549501;122.987137924011
315.526510580138;122.122682653669
315.548132610775;121.232265455721
315.569754641412;120.364431345671
315.591376672049;119.588196598771
315.612998702686;118.921036423122
315.634620733323;118.345076369036
315.65624276396;117.829325043265
315.677864794597;117.354137709639
315.699486825234;116.936524853908
315.721108855871;116.577636711676
315.742730886508;116.256731271288
315.764352917145;115.944755869842
315.785974947782;115.63316747209
315.807596978419;115.323056151475
315.829219009056;115.013551146749
315.850841039693;114.69117747353
315.87246307033;114.363677499852
315.894085100967;114.063063802932
315.915707131604;113.806701007649
315.937329162241;113.5882431755
315.958951192878;113.399852046875
315.980573223515;113.242115091164
316.002195254152;113.117469274143
316.023817284789;113.029047710088
316.045439315426;112.979638702354
316.067061346063;112.977942875791
316.0886833767;113.041699360365
316.110305407337;113.166576587438
316.131927437974;113.339556666344
316.153549468611;113.557382010843
316.175171499248;113.823585715301
316.196793529885;114.126425617974
316.218415560522;114.457868212226
316.240037591159;114.810247487958
316.261659621796;115.186886264883
316.283281652433;115.590186769804
316.30490368307;116.024198857415
316.326525713707;116.483892703408
316.348147744344;116.953153298917
316.369769774981;117.398258884184
316.391391805618;117.797842051505
316.413013836255;118.17101308936
316.434635866892;118.528753396319
316.456257897529;118.876193096894
316.477879928166;119.207807784299
316.499501958803;119.521031624923
316.52112398944;119.828109452251
316.542746020077;120.134537973199
316.564368050714;120.433101860806
316.585990081351;120.722503678976
316.607612111988;121.002820993922
316.629234142625;121.260768454434
316.650856173262;121.479066611174
316.672478203899;121.645906568593
316.694100234536;121.752925972997
316.715722265173;121.779348574375
316.73734429581;121.688727191754
316.758966326447;121.472879325242
316.780588357084;121.163352226787
316.802210387721;120.797185505024
316.823832418358;120.378572736584
316.845454448995;119.889255493588
316.867076479632;119.345536364846
316.888698510269;118.799016151172
316.910320540906;118.275932649437
316.931942571543;117.770336612101
316.95356460218;117.31461650579
316.975186632817;116.976070229049
316.996808663454;116.745021437129
317.018430694091;116.590729655111
317.040052724728;116.49860384635
317.061674755365;116.497664270313
317.083296786003;116.589791793494
317.10491881664;116.759942460135
317.126540847276;116.998772097133
317.148162877914;117.279933751165
317.169784908551;117.573449494353
317.191406939188;117.882269401394
317.213028969825;118.211048447154
317.234651000462;118.548869904699
317.256273031099;118.879176630595
317.277895061736;119.209403738934
317.299517092373;119.556189412504
317.32113912301;119.910219282726
317.342761153647;120.250004863992
317.364383184284;120.583976957061
317.386005214921;120.944332854445
317.407627245558;121.365714744249
317.429249276195;121.852850185602
317.450871306832;122.386420465173
317.472493337469;122.946480399225
317.494115368106;123.522964245257
317.515737398743;124.092870836445
317.53735942938;124.640463745953
317.558981460017;125.139140135659
317.580603490654;125.538754958312
317.602225521291;125.810411808346
317.623847551928;125.964420598313
317.645469582565;126.00721501999
317.667091613202;125.917143301913
317.688713643839;125.6677792307
317.710335674476;125.26313428351
317.731957705113;124.716425673714
317.75357973575;124.05120722737
317.775201766387;123.309234536672
317.796823797024;122.523569175073
317.818445827661;121.705898319666
317.840067858298;120.862865890324
317.861689888935;120.022478540988
317.883311919572;119.271888906397
317.904933950209;118.692750993602
317.926555980846;118.280179913127
317.948178011483;118.005855656636
317.96980004212;117.863893911068
317.991422072757;117.865754814031
318.013044103394;118.017245508814
318.034666134031;118.25388846494
318.056288164668;118.480490253042
318.077910195305;118.686076572817
318.099532225942;118.874125585168
318.121154256579;119.022449771712
318.142776287216;119.064267091243
318.164398317853;118.981562585338
318.18602034849;118.824698829288
318.207642379127;118.604636212339
318.229264409764;118.333446110077
318.250886440401;118.029098812826
318.272508471038;117.708218941876
318.294130501675;117.37789338679
318.315752532312;117.042807838741
318.337374562949;116.722562269993
318.358996593586;116.454950367445
318.380618624223;116.260812536929
318.40224065486;116.14719145241
318.423862685497;116.13234834517
318.445484716134;116.213174792277
318.467106746771;116.376447619697
318.488728777408;116.620350447314
318.510350808045;116.960026363047
318.531972838682;117.400760222911
318.553594869319;117.944996714077
318.575216899956;118.551866942724
318.596838930593;119.126710303092
318.61846096123;119.654223190095
318.640082991867;120.140351303251
318.661705022504;120.579972873522
318.683327053141;120.958385536508
318.704949083778;121.24849393471
318.726571114415;121.41694461731
318.748193145052;121.430827753396
318.769815175689;121.297985800605
318.791437206326;121.043953381052
318.813059236963;120.684768701501
318.8346812676;120.219785962215
318.856303298237;119.691879308396
318.877925328874;119.169345020816
318.899547359511;118.655178251147
318.921169390148;118.130114441586
318.942791420785;117.595139138372
318.964413451422;117.10666422911
318.986035482059;116.705876513911
319.007657512696;116.387241521807
319.029279543333;116.136120626945
319.05090157397;115.959877559937
319.072523604607;115.854310583706
319.094145635244;115.799829650473
319.115767665881;115.777824699339
319.137389696518;115.770267414858
319.159011727155;115.760428546499
319.180633757792;115.734555442091
319.202255788429;115.674163238482
319.223877819066;115.565735436962
319.245499849703;115.403701974195
319.26712188034;115.195883971237
319.288743910977;114.937770246975
319.310365941614;114.611437118766
319.331987972251;114.215768205807
319.353610002888;113.79662935695
319.375232033525;113.397923070888
319.396854064162;113.035109614535
319.418476094799;112.724763680407
319.440098125436;112.467463067344
319.461720156073;112.251365964172
319.48334218671;112.073693316476
319.504964217347;111.94291852235
319.526586247984;111.862530903053
319.548208278621;111.842715078697
319.569830309258;111.87357854667
319.591452339895;111.942466637781
319.613074370532;112.044932067095
319.634696401169;112.177522703345
319.656318431806;112.332518901574
319.677940462443;112.508040280215
319.69956249308;112.69751954033
319.721184523717;112.867641637955
319.742806554354;113.007635096015
319.764428584991;113.115971112277
319.786050615628;113.184056851857
319.807672646265;113.190727500933
319.829294676902;113.107324912512
319.850916707539;112.940386095087
319.872538738176;112.704086528516
319.894160768813;112.379170188638
319.91578279945;111.940915445929
319.937404830087;111.416594342979
319.959026860724;110.841055781101
319.980648891361;110.208711089321
320.002270921999;109.522069552463
320.023892952635;108.806497422007
320.045514983272;108.087642331063
320.06713701391;107.394105397044
320.088759044547;106.755916525933
320.110381075184;106.210327803546
320.132003105821;105.789151680183
320.153625136458;105.489192367501
320.175247167095;105.309218603656
320.196869197732;105.269622024332
320.218491228369;105.356081314725
320.240113259006;105.525091006402
320.261735289643;105.751122310281
320.28335732028;106.022730870001
320.304979350917;106.316621357733
320.326601381554;106.597399386043
320.348223412191;106.850381656226
320.369845442828;107.073905544714
320.391467473465;107.257847682422
320.413089504102;107.384320460561
320.434711534739;107.45198119878
320.456333565376;107.469770313126
320.477955596013;107.446227043476
320.49957762665;107.381935454016
320.521199657287;107.272764114409
320.542821687924;107.120683419595
320.564443718561;106.934603779424
320.586065749198;106.717733811809
320.607687779835;106.466160106407
320.629309810472;106.199680750773
320.650931841109;105.946959897044
320.672553871746;105.710196388794
320.694175902383;105.483430490107
320.71579793302;105.265729664619
320.737419963657;105.06556279716
320.759041994294;104.898377935377
320.780664024931;104.781928556288
320.802286055568;104.72451895408
320.823908086205;104.709652778898
320.845530116842;104.71650547968
320.867152147479;104.729201584413
320.888774178116;104.726204365386
320.910396208753;104.690017022298
320.93201823939;104.599801505419
320.953640270027;104.433624979826
320.975262300664;104.177018761732
320.996884331301;103.840882002707
321.018506361938;103.449271665529
321.040128392575;103.017377272834
321.061750423212;102.543381524408
321.083372453849;102.02053111099
321.104994484486;101.502284836965
321.126616515123;101.056835366942
321.14823854576;100.682623391487
321.169860576397;100.376752231922
321.191482607034;100.138895354681
321.213104637671;99.9794807302299
321.234726668308;99.9412247162167
321.256348698945;100.071462853463
321.277970729582;100.345471766532
321.299592760219;100.744435610875
321.321214790856;101.276034988855
321.342836821493;101.909603625672
321.36445885213;102.575728701997
321.386080882767;103.26875704452
321.407702913404;104.00130312914
321.429324944041;104.75504378811
321.450946974678;105.500602554342
321.472569005315;106.192503025185
321.494191035952;106.765518135034
321.515813066589;107.207499014338
321.537435097226;107.546032335305
321.559057127863;107.776893949197
321.5806791585;107.85935209865
321.602301189137;107.767979698789
321.623923219774;107.536043401151
321.645545250411;107.199542842731
321.667167281048;106.755832232122
321.688789311685;106.200137039279
321.710411342322;105.553510885268
321.732033372959;104.85903146936
321.753655403596;104.139685492816
321.775277434233;103.421752776062
321.79689946487;102.7408635506
321.818521495507;102.12195507857
321.840143526144;101.574065761476
321.861765556781;101.141105409322
321.883387587418;100.848946271763
321.905009618055;100.682104655684
321.926631648692;100.607911091866
321.948253679329;100.609703094937
321.969875709966;100.691981801821
321.991497740603;100.85364881873
322.01311977124;101.046986927073
322.034741801877;101.222588555952
322.056363832514;101.37356618783
322.077985863151;101.489991455475
322.099607893788;101.540953364047
322.121229924425;101.504775812119
322.142851955062;101.375455675011
322.164473985699;101.138592848908
322.186096016336;100.77231671333
322.207718046973;100.315729740553
322.22934007761;99.7939725370926
322.250962108247;99.1870336251779
322.272584138884;98.4820546811432
322.294206169521;97.7380568618523
322.315828200158;97.0283596487086
322.337450230795;96.3474391335417
322.359072261432;95.6371691472939
322.380694292069;94.8482420507259
322.402316322706;94.0744800565171
322.423938353343;93.4698761468811
322.44556038398;93.0173184721701
322.467182414617;92.6614120753373
322.488804445254;92.3830458297135
322.510426475891;92.2038752246426
322.532048506528;92.1213232127914
322.553670537165;92.1262574074714
322.575292567802;92.2146334889255
322.596914598439;92.3734614891576
322.618536629076;92.6042096754583
322.640158659713;92.9120993201893
322.66178069035;93.2763113851751
322.683402720987;93.6513777653775
322.705024751624;94.0275876646593
322.726646782261;94.4156118465255
322.748268812898;94.8368523413116
322.769890843535;95.3198983346938
322.791512874172;95.8618631611042
322.813134904809;96.4310796022517
322.834756935446;96.9921449884905
322.856378966083;97.5346772117034
322.87800099672;98.046835523538
322.899623027357;98.5098981897805
322.921245057995;98.8862887371199
322.942867088631;99.1446431495856
322.964489119268;99.2839543894829
322.986111149906;99.3074569522918
323.007733180543;99.204135261071
323.02935521118;98.9706157476251
323.050977241817;98.6273456909419
323.072599272454;98.1707045827993
323.094221303091;97.5408002014934
323.115843333728;96.6970085119111
323.137465364365;95.7843031882735
323.159087395002;94.9208047156968
323.180709425639;94.1175283823134
323.202331456276;93.3383410559189
323.223953486913;92.5629780955254
323.24557551755;91.7670165048941
323.267197548187;90.9275307605099
323.288819578824;90.0779033099184
323.310441609461;89.3102724721783
323.332063640098;88.6275066068834
323.353685670735;87.9622913659668
323.375307701372;87.2726154098959
323.396929732009;86.5756113454762
323.418551762646;85.945116094185
323.440173793283;85.4078782094097
323.46179582392;84.9381344749321
323.483417854557;84.5081199474761
323.505039885194;84.1354408835683
323.526661915831;83.8519192247881
323.548283946468;83.6720599371121
323.569905977105;83.5873240985036
323.591528007742;83.5944918717319
323.613150038379;83.6915411113719
323.634772069016;83.8807885187029
323.656394099653;84.1511213512546
323.67801613029;84.4334085800047
323.699638160927;84.7087600595024
323.721260191564;84.9917130423585
323.742882222201;85.3044556488045
323.764504252838;85.6506213505293
323.786126283475;85.9799869872534
323.807748314112;86.2713271789679
323.829370344749;86.5320219030887
323.850992375386;86.7659095520279
323.872614406023;86.9618812898424
323.89423643666;87.1053521658507
323.915858467297;87.1956653133581
323.937480497934;87.2345186750301
323.959102528571;87.2196566961525
323.980724559208;87.1511679852617
324.002346589845;87.0418648552311
324.023968620482;86.9145453041382
324.045590651119;86.7912558228442
324.067212681756;86.6737239735209
324.088834712393;86.5608256744419
324.11045674303;86.4599022160993
324.132078773667;86.3885185255908
324.153700804304;86.3483345923697
324.175322834941;86.3313908993292
324.196944865578;86.3334776287757
324.218566896215;86.3569323123807
324.240188926852;86.399390380644
324.261810957489;86.4496624507246
324.283432988126;86.5022539392824
324.305055018763;86.5534593678557
324.3266770494;86.6031916769186
324.348299080037;86.650181155377
324.369921110674;86.694934987326
324.391543141311;86.7421616952272
324.413165171948;86.7897696345384
324.434787202585;86.8425460024404
324.456409233222;86.903345011901
324.478031263859;86.9741602940548
324.499653294496;87.0572952208178
324.521275325133;87.1507251345966
324.54289735577;87.256520578709
324.564519386407;87.369532115187
324.586141417044;87.4779436413863
324.607763447681;87.5701022860621
324.629385478318;87.6475169485483
324.651007508955;87.7069646509242
324.672629539592;87.7437481572906
324.694251570229;87.7558715961825
324.715873600866;87.7414946535852
324.737495631503;87.6953512697953
324.75911766214;87.6113617731423
324.780739692777;87.4750924477426
