Name;ESR_BC_1_359s_Y_gon_60dg_4

Recipe
Accumulations;5;Number of accumulations
RetryCount;0;Number of retries on error
AbortOnError;True;Abort on error
EnableQFactorMeasurement;False;Enable/Disable q-Factor measurement
Bfrom;313;B from
Bto;363;B to
SweepTime;60;Sweep time
Modulation;0.2;Modulation
ModulationFreq;100;Modulation
BHoldEnabled;False;B hold enabled
BHold;0;B hold
MicrowavePower;2;Microwave power
MarkerEnabled;False;
MarkerStartField;0;
MarkerEndField;0;
Mode;;
KineticGFact;0;
KineticTotalTransientTime;0;
KineticTimeResolution;0;
TempFrom;5;
TempUseSlope;False;
TempTo;5;
TempdT;1;
TempSetupTime;0;
GonFrom;0;
GonTo;180;
GonSteps;20;
XRayEnabled;False;
XRayTime;3;
XRayVoltage;40;
XRayCurrent;0.5;
UVEnabled;False;
UVIntensity;0;
UVTime;0;
UVLeadTime;0;
UVWavelength;0;
PowSweepFrom;1;
PowSweepTo;5;
PowSweepSteps;5;
AmpModSweepFrom;0;
AmpModSweepTo;1;
AmpModSweepSteps;10;
ExtTriggerEnabled;False;
ExtTrigLeadTime;0;
ExtTrigOnTime;5;

Meas
BField [mT];MW_Absorption []
313.018323898315;181.826888281912
313.039941959356;181.173228409003
313.061560020397;180.491706757812
313.083178081438;179.6847616831
313.104796142479;178.712548989983
313.12641420352;177.682503485226
313.148032264561;176.642633296204
313.169650325602;175.514862248769
313.191268386643;174.201598074956
313.212886447684;172.642015923082
313.234504508725;171.011670029744
313.256122569765;169.451763613296
313.277740630806;168.052375680132
313.299358691847;166.863429453408
313.320976752888;165.83174083643
313.342594813929;164.909440949996
313.36421287497;164.12538044478
313.385830936011;163.494265340833
313.407448997052;162.994995551978
313.429067058093;162.628886004406
313.450685119134;162.40280409688
313.472303180175;162.283409330654
313.493921241216;162.234888092306
313.515539302256;162.22568478046
313.537157363297;162.224183843079
313.558775424338;162.202782620596
313.580393485379;162.134394164801
313.60201154642;161.986874435978
313.623629607461;161.719136713232
313.645247668502;161.347456799327
313.666865729543;160.933049777136
313.688483790584;160.484108801834
313.710101851625;159.978992641951
313.731719912666;159.421760734016
313.753337973706;158.884088521071
313.774956034747;158.416201751133
313.796574095788;158.0174051387
313.818192156829;157.672013844431
313.83981021787;157.367140132193
313.861428278911;157.107840802016
313.883046339952;156.88795758973
313.904664400993;156.693213457391
313.926282462034;156.514372159167
313.947900523075;156.333937528182
313.969518584116;156.124956800104
313.991136645157;155.860523292805
314.012754706197;155.53046533877
314.034372767238;155.128443376956
314.055990828279;154.626032990288
314.07760888932;154.02686863886
314.099226950361;153.404759063721
314.120845011402;152.788356237332
314.142463072443;152.159274710406
314.164081133484;151.502662087934
314.185699194525;150.829230460282
314.207317255566;150.16563542318
314.228935316607;149.518904833247
314.250553377648;148.884884406689
314.272171438688;148.255866367264
314.293789499729;147.619201327236
314.31540756077;146.976696237949
314.337025621811;146.324084962499
314.358643682852;145.684683734483
314.380261743893;145.105160435344
314.401879804934;144.564586994268
314.423497865975;144.022151265862
314.445115927016;143.467614359613
314.466733988057;142.91614544343
314.488352049098;142.341252188797
314.509970110138;141.701270475436
314.531588171179;141.015429430581
314.55320623222;140.316240856152
314.574824293261;139.611009207987
314.596442354302;138.918610080723
314.618060415343;138.228947873853
314.639678476384;137.485334194125
314.661296537425;136.652089193527
314.682914598466;135.75952128032
314.704532659507;134.87794044876
314.726150720548;134.034095822874
314.747768781589;133.260069453379
314.769386842629;132.596645478501
314.79100490367;132.002736855872
314.812622964711;131.420632333725
314.834241025752;130.846636985695
314.855859086793;130.344220831914
314.877477147834;129.922871105489
314.899095208875;129.563491831931
314.920713269916;129.245381214898
314.942331330957;128.956010132641
314.963949391998;128.716559520639
314.985567453039;128.5320870576
315.007185514079;128.377168860786
315.02880357512;128.230943287384
315.050421636161;128.082530079918
315.072039697202;127.93642968695
315.093657758243;127.787130261261
315.115275819284;127.623003164297
315.136893880325;127.434312985161
315.158511941366;127.228136188398
315.180130002407;127.027451736761
315.201748063448;126.833411456098
315.223366124489;126.631988062912
315.24498418553;126.411491513497
315.26660224657;126.178283905123
315.288220307611;125.952852598371
315.309838368652;125.738785268613
315.331456429693;125.528247402687
315.353074490734;125.315279667808
315.374692551775;125.104656270464
315.396310612816;124.915366693129
315.417928673857;124.760897520703
315.439546734898;124.628713555603
315.461164795939;124.50094466582
315.48278285698;124.364866702004
315.504400918021;124.214710985248
315.526018979061;124.050467638368
315.547637040102;123.880398904009
315.569255101143;123.707747456321
315.590873162184;123.520135992029
315.612491223225;123.298424600577
315.634109284266;123.015209980214
315.655727345307;122.679729261255
315.677345406348;122.36074213546
315.698963467389;122.062849643797
315.72058152843;121.777531066757
315.742199589471;121.518862579507
315.763817650512;121.291636019697
315.785435711552;121.08208737849
315.807053772593;120.877745521665
315.828671833634;120.671362922906
315.850289894675;120.464525040969
315.871907955716;120.257141682484
315.893526016757;120.048426956492
315.915144077798;119.835656077733
315.936762138839;119.615725562047
315.95838019988;119.383766827006
315.979998260921;119.144668233333
316.001616321962;118.907863393611
316.023234383002;118.677116501932
316.044852444043;118.461678104103
316.066470505084;118.292097557789
316.088088566125;118.177339611428
316.109706627166;118.128887553241
316.131324688207;118.151386778376
316.152942749248;118.232886549449
316.174560810289;118.368873038746
316.19617887133;118.56023415419
316.217796932371;118.791234828277
316.239414993412;119.041032871494
316.261033054452;119.295544508697
316.282651115493;119.52313484768
316.304269176534;119.685041553993
316.325887237575;119.783550776069
316.347505298616;119.822655523541
316.369123359657;119.792166592739
316.390741420698;119.670128386842
316.412359481739;119.447120840235
316.43397754278;119.14641445457
316.455595603821;118.795007174012
316.477213664862;118.408826898462
316.498831725903;118.004274616806
316.520449786943;117.591870643769
316.542067847984;117.180178643893
316.563685909025;116.814361350199
316.585303970066;116.547354555675
316.606922031107;116.367820875869
316.628540092148;116.256628705943
316.650158153189;116.208180492545
316.67177621423;116.222436881599
316.693394275271;116.294869786096
316.715012336312;116.405747290151
316.736630397353;116.530456660679
316.758248458394;116.654669885311
316.779866519434;116.763504886072
316.801484580475;116.835846706736
316.823102641516;116.85845464629
316.844720702557;116.825762934012
316.866338763598;116.746202552009
316.887956824639;116.637285698003
316.90957488568;116.504644984454
316.931192946721;116.362239450021
316.952811007762;116.21747122459
316.974429068803;116.083879822688
316.996047129844;115.973734805645
317.017665190884;115.889270060599
317.039283251925;115.832133952521
317.060901312966;115.808170457654
317.082519374007;115.80387109889
317.104137435048;115.816344664029
317.125755496089;115.841186625027
317.14737355713;115.871687282651
317.168991618171;115.912456154209
317.190609679212;115.970694677135
317.212227740253;116.056084490967
317.233845801294;116.176865788301
317.255463862335;116.348417664593
317.277081923375;116.591207057091
317.298699984416;116.888288651095
317.320318045457;117.228084965874
317.341936106498;117.601246180043
317.363554167539;118.002226952926
317.38517222858;118.421031025028
317.406790289621;118.839275367419
317.428408350662;119.239965422356
317.450026411703;119.613910800326
317.471644472744;119.950834568617
317.493262533785;120.241555332386
317.514880594826;120.483029066813
317.536498655866;120.675538985585
317.558116716907;120.81616779217
317.579734777948;120.914724951844
317.601352838989;120.981690399657
317.62297090003;121.029684276142
317.644588961071;121.070066799905
317.666207022112;121.111695540212
317.687825083153;121.164517825002
317.709443144194;121.220178737204
317.731061205235;121.273108536444
317.752679266276;121.320000109198
317.774297327316;121.356526365766
317.795915388357;121.371143412358
317.817533449398;121.35783004212
317.839151510439;121.307473880248
317.86076957148;121.197516727753
317.882387632521;121.016180511886
317.904005693562;120.781409012376
317.925623754603;120.523349863364
317.947241815644;120.251606397935
317.968859876685;119.949261419463
317.990477937726;119.607763198095
318.012095998766;119.264208630696
318.033714059807;118.941277778134
318.055332120848;118.630138576202
318.076950181889;118.324638484984
318.09856824293;118.028789512281
318.120186303971;117.750041611179
318.141804365012;117.492979181426
318.163422426053;117.254505141882
318.185040487094;117.028589502624
318.206658548135;116.81828553168
318.228276609176;116.629651228869
318.249894670217;116.461229558741
318.271512731257;116.310529675309
318.293130792298;116.185363090274
318.314748853339;116.091582375825
318.33636691438;116.019832445834
318.357984975421;115.967344464805
318.379603036462;115.936437941343
318.401221097503;115.926689854902
318.422839158544;115.930942333887
318.444457219585;115.941142667877
318.466075280626;115.948835876597
318.487693341667;115.940145167575
318.509311402708;115.902646742398
318.530929463748;115.826055633283
318.552547524789;115.708245826624
318.57416558583;115.549193221937
318.595783646871;115.341592474198
318.617401707912;115.068051306764
318.639019768953;114.730571263921
318.660637829994;114.378252826947
318.682255891035;114.04281797725
318.703873952076;113.736001892365
318.725492013117;113.454702595847
318.747110074158;113.200208556391
318.768728135199;113.017272491487
318.790346196239;112.946193023047
318.81196425728;112.9574364634
318.833582318321;113.030750923104
318.855200379362;113.163645142741
318.876818440403;113.331192806564
318.898436501444;113.521895033809
318.920054562485;113.731488435064
318.941672623526;113.941196725562
318.963290684567;114.120146418958
318.984908745608;114.257116153473
319.006526806649;114.360424038358
319.028144867689;114.428083538636
319.04976292873;114.457282418367
319.071380989771;114.454687690463
319.092999050812;114.423904662341
319.114617111853;114.373608715669
319.136235172894;114.305318639827
319.157853233935;114.218571611064
319.179471294976;114.10400207159
319.201089356017;113.962712817924
319.222707417058;113.817119532345
319.244325478099;113.678239278827
319.26594353914;113.536021333148
319.28756160018;113.38314229203
319.309179661221;113.221088812391
319.330797722262;113.047937472515
319.352415783303;112.864247191947
319.374033844344;112.712679073994
319.395651905385;112.606898574414
319.417269966426;112.532403146226
319.438888027467;112.481259179183
319.460506088508;112.454748808852
319.482124149549;112.464208690535
319.50374221059;112.512158224676
319.52536027163;112.601724577359
319.546978332671;112.727963767289
319.568596393712;112.875721594795
319.590214454753;113.041415627494
319.611832515794;113.229463204676
319.633450576835;113.437205062172
319.655068637876;113.644312357855
319.676686698917;113.831908267673
319.698304759958;113.9892345979
319.719922820999;114.099953425874
319.74154088204;114.146472550571
319.763158943081;114.125882127928
319.784777004121;114.044105002531
319.806395065162;113.903047734915
319.828013126203;113.697505884677
319.849631187244;113.431362277874
319.871249248285;113.102959249426
319.892867309326;112.71937721465
319.914485370367;112.314304037284
319.936103431408;111.953455077173
319.957721492449;111.661325956485
319.97933955349;111.423480209737
320.000957614531;111.233571123723
320.022575675571;111.094073284895
320.044193736612;111.014082279505
320.065811797653;110.989003194746
320.087429858694;111.00168325027
320.109047919735;111.048693597952
320.130665980776;111.092352209357
320.152284041817;111.103637148329
320.173902102858;111.071014268205
320.195520163899;110.976570903921
320.21713822494;110.808967594892
320.238756285981;110.575159643523
320.260374347022;110.282440622739
320.281992408062;109.950328122309
320.303610469103;109.611501366762
320.325228530144;109.281483106305
320.346846591185;108.978346192555
320.368464652226;108.746391751847
320.390082713267;108.605495090076
320.411700774308;108.535195932487
320.433318835349;108.526467687039
320.45493689639;108.578534993615
320.476554957431;108.675932659828
320.498173018472;108.788183676
320.519791079513;108.894751187909
320.541409140553;108.985550875444
320.563027201594;109.049579569668
320.584645262635;109.073857553394
320.606263323676;109.047992548174
320.627881384717;108.974919206012
320.649499445758;108.857294491017
320.671117506799;108.7028306341
320.69273556784;108.53986909537
320.714353628881;108.38281540914
320.735971689922;108.226076123698
320.757589750963;108.07601082728
320.779207812003;107.961727423721
320.800825873044;107.887743489927
320.822443934085;107.849532229348
320.844061995126;107.8451543463
320.865680056167;107.876975180023
320.887298117208;107.938789610311
320.908916178249;108.007331670012
320.93053423929;108.075503402535
320.952152300331;108.139331006869
320.973770361372;108.195328444355
320.995388422413;108.237603704897
321.017006483454;108.254836809336
321.038624544494;108.229940545083
321.060242605535;108.135005951755
321.081860666576;107.936958635308
321.103478727617;107.646495971849
321.125096788658;107.289096326642
321.146714849699;106.87800141269
321.16833291074;106.424246441864
321.189950971781;105.965162649629
321.211569032822;105.54329977712
321.233187093863;105.173428134465
321.254805154904;104.865871524818
321.276423215944;104.650031877966
321.298041276985;104.551845660944
321.319659338026;104.56751504659
321.341277399067;104.695064246638
321.362895460108;104.950416035326
321.384513521149;105.285569065321
321.40613158219;105.607336418958
321.427749643231;105.891612952581
321.449367704272;106.135021109658
321.470985765313;106.31565834235
321.492603826354;106.395241834987
321.514221887395;106.333501446209
321.535839948435;106.089762163247
321.557458009476;105.646051797624
321.579076070517;105.032883779406
321.600694131558;104.286102082601
321.622312192599;103.463501466138
321.64393025364;102.633462377119
321.665548314681;101.837032587262
321.687166375722;101.101949561014
321.708784436763;100.483446123556
321.730402497804;100.061736646869
321.752020558845;99.8117402510288
321.773638619886;99.694721625273
321.795256680926;99.6728269874275
321.816874741967;99.7352515847473
321.838492803008;99.8833401276668
321.860110864049;100.123230857137
321.88172892509;100.413454424869
321.903346986131;100.652465524092
321.924965047172;100.828745721263
321.946583108213;100.954276559768
321.968201169254;101.021904944516
321.989819230295;101.003437532426
322.011437291336;100.881355398719
322.033055352376;100.662358725137
322.054673413417;100.352328502674
322.076291474458;99.9495486021946
322.097909535499;99.453930046652
322.11952759654;98.8658689084423
322.141145657581;98.2049117265304
322.162763718622;97.5015656806962
322.184381779663;96.7544518835217
322.205999840704;95.9636602119444
322.227617901745;95.12574748983
322.249235962786;94.2203591888509
322.270854023827;93.2845648381158
322.292472084867;92.4348005314764
322.314090145908;91.7306818825551
322.335708206949;91.1743696648377
322.35732626799;90.7335756258976
322.378944329031;90.398099637857
322.400562390072;90.1949347317967
322.422180451113;90.1308782080458
322.443798512154;90.1825713411653
322.465416573195;90.3540462153969
322.487034634236;90.6654506230567
322.508652695277;91.0586993920024
322.530270756317;91.4496639862436
322.551888817358;91.8845351855871
322.573506878399;92.3906106073083
322.59512493944;92.9658594214214
322.616743000481;93.5554908130007
322.638361061522;94.1461603577091
322.659979122563;94.7666599796608
322.681597183604;95.3843677601274
322.703215244645;95.9139891361759
322.724833305686;96.3431285400624
322.746451366727;96.6734789828028
322.768069427768;96.9058337652789
322.789687488808;97.0373651294243
322.811305549849;97.0707901282269
322.83292361089;97.0053662452724
322.854541671931;96.8290821474398
322.876159732972;96.5550390293474
322.897777794013;96.2298475365879
322.919395855054;95.8902163337392
322.941013916095;95.5591574148152
322.962631977136;95.2465317895182
322.984250038177;94.925312791483
323.005868099218;94.5899984055978
323.027486160258;94.2795824944118
323.049104221299;94.0234403894953
323.07072228234;93.8033528858023
323.092340343381;93.6074824601039
323.113958404422;93.434975857496
323.135576465463;93.2845165853123
323.157194526504;93.1593869554682
323.178812587545;93.0427460047415
323.200430648586;92.9272393310363
323.222048709627;92.8097249041
323.243666770668;92.6872673044972
323.265284831709;92.541634049281
323.286902892749;92.3585884374239
323.30852095379;92.1367868655882
323.330139014831;91.8849772854379
323.351757075872;91.5971135119837
323.373375136913;91.2600500979211
323.394993197954;90.867280618526
323.416611258995;90.4641968034212
323.438229320036;90.0762616102357
323.459847381077;89.6957212554749
323.481465442118;89.3163060652433
323.503083503159;88.9516693369641
323.5247015642;88.6025005653078
323.54631962524;88.2544914763372
323.567937686281;87.9066747852374
323.589555747322;87.5710922616287
323.611173808363;87.250579725768
323.632791869404;86.9332437542203
323.654409930445;86.6193945595922
323.676027991486;86.3026890393146
323.697646052527;85.9828430734543
323.719264113568;85.6727691759166
323.740882174609;85.364851882298
323.76250023565;85.0507909354959
323.784118296691;84.7442539295803
323.805736357731;84.4646116009265
323.827354418772;84.2208161529114
323.848972479813;84.0051381104905
323.870590540854;83.8217284799024
323.892208601895;83.691245543754
323.913826662936;83.6232024470564
323.935444723977;83.606314742416
323.957062785018;83.6414233413734
323.978680846059;83.7324629246171
324.0002989071;83.8727189349287
324.021916968141;84.0555533820011
324.043535029181;84.2806243949371
324.065153090222;84.5374821644261
324.086771151263;84.8039138591722
324.108389212304;85.062823083598
324.130007273345;85.3207934459379
324.151625334386;85.5869605864786
324.173243395427;85.8530887415531
324.194861456468;86.1065502235382
324.216479517509;86.3320740422081
324.23809757855;86.52240393365
324.259715639591;86.6748870582677
324.281333700631;86.7748546818442
324.302951761672;86.822707753977
324.324569822713;86.8236073440041
324.346187883754;86.7682306101311
324.367805944795;86.6580980075862
324.389424005836;86.5162341465327
324.411042066877;86.3467847173874
324.432660127918;86.1426308777345
324.454278188959;85.9051816540635
324.47589625;85.6734673912497
324.497514311041;85.442682096195
324.519132372082;85.1863180280946
324.540750433122;84.8789460802586
324.562368494163;84.5419682870768
324.583986555204;84.2261930657729
324.605604616245;83.9342600498499
324.627222677286;83.6434996579883
324.648840738327;83.3249691665908
324.670458799368;82.9838057997589
324.692076860409;82.6543376384208
324.71369492145;82.3452053927329
324.735312982491;82.0383973058832
324.756931043532;81.7459428830245
324.778549104573;81.4723019082656
