Name;ESR_BC_1_359s_Y_gon_120dg_4

Recipe
Accumulations;5;Number of accumulations
RetryCount;0;Number of retries on error
AbortOnError;True;Abort on error
EnableQFactorMeasurement;False;Enable/Disable q-Factor measurement
Bfrom;313;B from
Bto;363;B to
SweepTime;60;Sweep time
Modulation;0.2;Modulation
ModulationFreq;100;Modulation
BHoldEnabled;False;B hold enabled
BHold;0;B hold
MicrowavePower;2;Microwave power
MarkerEnabled;False;
MarkerStartField;0;
MarkerEndField;0;
Mode;;
KineticGFact;0;
KineticTotalTransientTime;0;
KineticTimeResolution;0;
TempFrom;5;
TempUseSlope;False;
TempTo;5;
TempdT;1;
TempSetupTime;0;
GonFrom;0;
GonTo;180;
GonSteps;20;
XRayEnabled;False;
XRayTime;3;
XRayVoltage;40;
XRayCurrent;0.5;
UVEnabled;False;
UVIntensity;0;
UVTime;0;
UVLeadTime;0;
UVWavelength;0;
PowSweepFrom;1;
PowSweepTo;5;
PowSweepSteps;5;
AmpModSweepFrom;0;
AmpModSweepTo;1;
AmpModSweepSteps;10;
ExtTriggerEnabled;False;
ExtTrigLeadTime;0;
ExtTrigOnTime;5;

Meas
BField [mT];MW_Absorption []
313.009373321533;160.018075722674
313.030995892831;159.404957172882
313.052618464128;158.735763072096
313.074241035425;157.960364850673
313.095863606722;157.092536118678
313.11748617802;156.195628338815
313.139108749317;155.317129816556
313.160731320614;154.507525548972
313.182353891912;153.798552442358
313.203976463209;153.192851047415
313.225599034506;152.66277634259
313.247221605804;152.17621537408
313.268844177101;151.719711043915
313.290466748398;151.307137838432
313.312089319695;150.946961337753
313.333711890993;150.610840144984
313.35533446229;150.252719263513
313.376957033587;149.82398091577
313.398579604885;149.33400491517
313.420202176182;148.85083051601
313.441824747479;148.392140115177
313.463447318777;147.948240557099
313.485069890074;147.508195637115
313.506692461371;147.080408589576
313.528315032668;146.692828937901
313.549937603966;146.377439355816
313.571560175263;146.166248120663
313.59318274656;146.090340999918
313.614805317858;146.111388092865
313.636427889155;146.206224248935
313.658050460452;146.356415406792
313.67967303175;146.537900179878
313.701295603047;146.730348435495
313.722918174344;146.922503019342
313.744540745641;147.10718127939
313.766163316939;147.270277912861
313.787785888236;147.392167006692
313.809408459533;147.478389611344
313.831031030831;147.537901168714
313.852653602128;147.575903264624
313.874276173425;147.607142407754
313.895898744723;147.644197459469
313.91752131602;147.694729800955
313.939143887317;147.773738987633
313.960766458615;147.897172866179
313.982389029912;148.069336134801
314.004011601209;148.281272682061
314.025634172506;148.532013130127
314.047256743804;148.826966905459
314.068879315101;149.159854089281
314.090501886398;149.479831422233
314.112124457696;149.742145510285
314.133747028993;149.957732268268
314.15536960029;150.136832596785
314.176992171588;150.263145934005
314.198614742885;150.297436745035
314.220237314182;150.227932530081
314.241859885479;150.063060718624
314.263482456777;149.808447856289
314.285105028074;149.472085174489
314.306727599371;149.053303296017
314.328350170669;148.563586257909
314.349972741966;148.018341347415
314.371595313263;147.421901851859
314.393217884561;146.771696060603
314.414840455858;146.093431272171
314.436463027155;145.431046086153
314.458085598452;144.827171357348
314.47970816975;144.335720979102
314.501330741047;143.957138123371
314.522953312344;143.685761669241
314.544575883642;143.508386907115
314.566198454939;143.416158278143
314.587821026236;143.398366469285
314.609443597534;143.447336874788
314.631066168831;143.549340810544
314.652688740128;143.692792054841
314.674311311425;143.851488410919
314.695933882723;144.006146617982
314.71755645402;144.145639765613
314.739179025317;144.267988145996
314.760801596615;144.374429260707
314.782424167912;144.452288685611
314.804046739209;144.498695401605
314.825669310507;144.51117327491
314.847291881804;144.492335902083
314.868914453101;144.45896530425
314.890537024399;144.420254346767
314.912159595696;144.381329059998
314.933782166993;144.348562813075
314.95540473829;144.328550323214
314.977027309588;144.320610491427
314.998649880885;144.316887272629
315.020272452182;144.305915855398
315.04189502348;144.273051626253
315.063517594777;144.200987599217
315.085140166074;144.076429299904
315.106762737372;143.892881432161
315.128385308669;143.638021992336
315.150007879966;143.282337772649
315.171630451263;142.811716144014
315.193253022561;142.274587222276
315.214875593858;141.743723374928
315.236498165155;141.235488153793
315.258120736453;140.727135647146
315.27974330775;140.21461193108
315.301365879047;139.727434482449
315.322988450345;139.304361443654
315.344611021642;138.956352973706
315.366233592939;138.688524698229
315.387856164237;138.521472502655
315.409478735534;138.450981352017
315.431101306831;138.441866880968
315.452723878128;138.47346323119
315.474346449426;138.547476893803
315.495969020723;138.679267424568
315.51759159202;138.862133815935
315.539214163318;139.059516526669
315.560836734615;139.259535663748
315.582459305912;139.464187966233
315.60408187721;139.680804915942
315.625704448507;139.929381779876
315.647327019804;140.206873782474
315.668949591101;140.455049028411
315.690572162399;140.663755099659
315.712194733696;140.840234388224
315.733817304993;140.995056750101
315.755439876291;141.124317518695
315.777062447588;141.224569449875
315.798685018885;141.299952059828
315.820307590183;141.344189001576
315.84193016148;141.36621971384
315.863552732777;141.373241251747
315.885175304074;141.37267270789
315.906797875372;141.363031655232
315.928420446669;141.348876487892
315.950043017966;141.330398971875
315.971665589264;141.302067021371
315.993288160561;141.260003651477
316.014910731858;141.195017206071
316.036533303156;141.09725654337
316.058155874453;140.965039912549
316.07977844575;140.793296765787
316.101401017047;140.56369908558
316.123023588345;140.260697680568
316.144646159642;139.938419022342
316.166268730939;139.654225345663
316.187891302237;139.404317905723
316.209513873534;139.189081642233
316.231136444831;139.021656385606
316.252759016129;138.931532633921
316.274381587426;138.946378900058
316.296004158723;139.065802122988
316.31762673002;139.269865280308
316.339249301318;139.528726908504
316.360871872615;139.827692409397
316.382494443912;140.168241739825
316.40411701521;140.541015543764
316.425739586507;140.899608893154
316.447362157804;141.197960660405
316.468984729102;141.428987751297
316.490607300399;141.594619504509
316.512229871696;141.670609539429
316.533852442994;141.618386054334
316.555475014291;141.42185194
316.577097585588;141.11714338422
316.598720156885;140.747189304787
316.620342728183;140.318024722581
316.64196529948;139.820023995987
316.663587870777;139.238977361115
316.685210442075;138.560926324489
316.706833013372;137.805564996128
316.728455584669;136.978271982335
316.750078155967;136.144930020517
316.771700727264;135.467201384558
316.793323298561;134.91961104828
316.814945869858;134.413742216465
316.836568441156;133.920675095446
316.858191012453;133.436183362187
316.87981358375;132.980646473127
316.901436155048;132.583234032909
316.923058726345;132.265451493164
316.944681297642;132.032461027316
316.96630386894;131.888041167306
316.987926440237;131.835550275234
317.009549011534;131.870875744718
317.031171582831;131.975977524926
317.052794154129;132.125332629153
317.074416725426;132.316680969872
317.096039296723;132.558140443667
317.117661868021;132.819147123658
317.139284439318;133.063790769671
317.160907010615;133.283575657273
317.182529581913;133.464924307367
317.20415215321;133.589823681723
317.225774724507;133.646970515378
317.247397295804;133.629949635629
317.269019867102;133.543048611531
317.290642438399;133.396636709214
317.312265009696;133.195381890688
317.333887580994;132.931834909478
317.355510152291;132.613019695836
317.377132723588;132.25606117633
317.398755294886;131.845119510839
317.420377866183;131.405818211874
317.44200043748;130.99835673935
317.463623008778;130.637622325168
317.485245580075;130.306040190423
317.506868151372;129.982843072247
317.528490722669;129.65980172976
317.550113293967;129.372825691631
317.571735865264;129.164894217914
317.593358436561;129.047567466376
317.614981007859;129.012054011168
317.636603579156;129.057441022134
317.658226150453;129.189465869966
317.679848721751;129.402949938959
317.701471293048;129.697252881103
317.723093864345;130.091871974929
317.744716435642;130.607297078522
317.76633900694;131.210531222887
317.787961578237;131.843070753683
317.809584149534;132.453057202432
317.831206720832;133.002978515386
317.852829292129;133.471855371632
317.874451863426;133.830624278927
317.896074434724;134.058317548532
317.917697006021;134.16923557018
317.939319577318;134.166196530199
317.960942148616;134.036716907639
317.982564719913;133.796472144729
318.00418729121;133.444966542651
318.025809862507;132.960165041933
318.047432433805;132.41617303608
318.069055005102;131.890564484101
318.090677576399;131.393237479525
318.112300147697;130.904717618501
318.133922718994;130.412753889678
318.155545290291;129.915006203654
318.177167861589;129.405063920733
318.198790432886;128.864102400486
318.220413004183;128.272840390413
318.24203557548;127.621279773691
318.263658146778;126.94932392614
318.285280718075;126.294317954788
318.306903289372;125.640332048365
318.32852586067;125.020646413539
318.350148431967;124.549224811227
318.371771003264;124.227101030606
318.393393574562;124.020908451511
318.415016145859;123.93050522309
318.436638717156;123.983141658222
318.458261288453;124.195091297957
318.479883859751;124.526134862406
318.501506431048;124.911120995029
318.523129002345;125.317118687262
318.544751573643;125.737198513726
318.56637414494;126.163300345732
318.587996716237;126.575573990953
318.609619287535;126.94407509798
318.631241858832;127.230872499682
318.652864430129;127.417562363855
318.674487001426;127.53129834299
318.696109572724;127.591528125795
318.717732144021;127.604960980317
318.739354715318;127.585871035274
318.760977286616;127.563900002575
318.782599857913;127.566942485159
318.80422242921;127.615542364275
318.825845000508;127.722307944056
318.847467571805;127.895243619395
318.869090143102;128.128405910001
318.8907127144;128.413908819458
318.912335285697;128.716361873869
318.933957856994;129.008841880153
318.955580428291;129.288343659798
318.977202999589;129.551318820044
318.998825570886;129.797953352443
319.020448142183;130.022162039653
319.042070713481;130.226623153161
319.063693284778;130.417999426559
319.085315856075;130.602016388427
319.106938427373;130.771627816231
319.12856099867;130.93137267018
319.150183569967;131.095904646567
319.171806141264;131.276261720245
319.193428712562;131.480017727543
319.215051283859;131.713975056839
319.236673855156;131.970365246914
319.258296426454;132.225365155492
319.279918997751;132.475169013336
319.301541569048;132.723062400418
319.323164140346;132.965244405888
319.344786711643;133.192017440148
319.36640928294;133.402050978677
319.388031854237;133.601405382761
319.409654425535;133.7992686939
319.431276996832;133.995947676434
319.452899568129;134.180449365717
319.474522139427;134.339015050232
319.496144710724;134.468442379876
319.517767282021;134.563672917746
319.539389853319;134.621528495284
319.561012424616;134.629311853262
319.582634995913;134.567631245226
319.60425756721;134.42369666812
319.625880138508;134.214825772271
319.647502709805;133.945288235276
319.669125281102;133.630413479455
319.6907478524;133.285046070019
319.712370423697;132.900314473995
319.733992994994;132.439300336708
319.755615566292;131.920917815233
319.777238137589;131.412992825703
319.798860708886;130.928461351651
319.820483280184;130.465068127592
319.842105851481;130.055347233615
319.863728422778;129.692358112478
319.885350994075;129.35977758858
319.906973565373;129.089632237177
319.92859613667;128.901935349188
319.950218707967;128.780851065802
319.971841279265;128.70594882282
319.993463850562;128.671019353234
320.015086421859;128.67096485018
320.036708993157;128.694714286735
320.058331564454;128.739137412011
320.079954135751;128.806175409308
320.101576707048;128.882421197919
320.123199278346;128.962960213704
320.144821849643;129.048937002699
320.16644442094;129.158113369192
320.188066992238;129.290855865873
320.209689563535;129.433294932344
320.231312134832;129.579496345837
320.25293470613;129.731500514492
320.274557277427;129.894557809925
320.296179848724;130.068459155154
320.317802420022;130.234896524341
320.339424991319;130.36894909879
320.361047562616;130.457954526733
320.382670133913;130.507131246071
320.404292705211;130.519086197312
320.425915276508;130.484310653333
320.447537847805;130.383349551494
320.469160419103;130.196918744376
320.4907829904;129.931013737735
320.512405561697;129.58881733788
320.534028132995;129.159499352247
320.555650704292;128.656023242521
320.577273275589;128.137776680563
320.598895846886;127.639523747548
320.620518418184;127.162077044472
320.642140989481;126.701834597855
320.663763560778;126.262167337646
320.685386132076;125.8646157702
320.707008703373;125.546283818723
320.72863127467;125.323817761526
320.750253845968;125.206839646371
320.771876417265;125.205517452336
320.793498988562;125.298958789826
320.815121559859;125.463888116128
320.836744131157;125.69051379202
320.858366702454;125.962086611627
320.879989273751;126.236004341103
320.901611845049;126.479289542237
320.923234416346;126.68027105273
320.944856987643;126.826732778054
320.966479558941;126.908252115352
320.988102130238;126.925532494492
321.009724701535;126.882952433551
321.031347272832;126.784360572097
321.05296984413;126.6497984347
321.074592415427;126.496006981382
321.096214986724;126.339653252428
321.117837558022;126.195670463674
321.139460129319;126.068698679758
321.161082700616;125.958749946648
321.182705271914;125.873104355962
321.204327843211;125.824640321797
321.225950414508;125.816173434184
321.247572985806;125.84043376808
321.269195557103;125.893670602312
321.2908181284;125.97332834138
321.312440699697;126.079608155525
321.334063270995;126.209892658554
321.355685842292;126.342335975131
321.377308413589;126.461612001239
321.398930984887;126.565341572984
321.420553556184;126.65263089496
321.442176127481;126.713774144827
321.463798698779;126.735383766314
321.485421270076;126.718675976654
321.507043841373;126.672514271047
321.52866641267;126.600181330056
321.550288983968;126.505268526829
321.571911555265;126.388426932707
321.593534126562;126.242325613307
321.61515669786;126.086285931079
321.636779269157;125.954298887279
321.658401840454;125.854920562033
321.680024411752;125.762754961365
321.701646983049;125.663822411008
321.723269554346;125.543053902456
321.744892125643;125.396152956794
321.766514696941;125.223912853499
321.788137268238;125.013895483146
321.809759839535;124.736150452641
321.831382410833;124.347414789566
321.85300498213;123.824865896605
321.874627553427;123.200228319381
321.896250124725;122.491645778191
321.917872696022;121.702437479065
321.939495267319;120.877562905245
321.961117838616;120.035907785867
321.982740409914;119.171763561142
322.004362981211;118.29714885231
322.025985552508;117.402644978
322.047608123806;116.498144251408
322.069230695103;115.638820921317
322.0908532664;114.853928542244
322.112475837698;114.091330324032
322.134098408995;113.353539741345
322.155720980292;112.683594346796
322.17734355159;112.091857954633
322.198966122887;111.550279116685
322.220588694184;111.067130367212
322.242211265481;110.691377758975
322.263833836779;110.413487878889
322.285456408076;110.208798512611
322.307078979373;110.090093708397
322.328701550671;110.064028791934
322.350324121968;110.115217553157
322.371946693265;110.227755008002
322.393569264563;110.38596578178
322.41519183586;110.583389864819
322.436814407157;110.811998716885
322.458436978454;111.050772597674
322.480059549752;111.266607207178
322.501682121049;111.447928761002
322.523304692346;111.585157472033
322.544927263644;111.659032190176
322.566549834941;111.657046884033
322.588172406238;111.586373481901
322.609794977536;111.460239782919
322.631417548833;111.289855723587
322.65304012013;111.110009316564
322.674662691427;110.942393509373
322.696285262725;110.774254970975
322.717907834022;110.60782840185
322.739530405319;110.456064699438
322.761152976617;110.336904675745
322.782775547914;110.2497655993
322.804398119211;110.18602893482
322.826020690509;110.135005698697
322.847643261806;110.086166550407
322.869265833103;110.029237006468
322.8908884044;109.956589816537
322.912510975698;109.870003203467
322.934133546995;109.770885384532
322.955756118292;109.658033929267
322.97737868959;109.525889445011
322.999001260887;109.384079470723
323.020623832184;109.242995014432
323.042246403482;109.114038261731
323.063868974779;108.995050184853
323.085491546076;108.894835828142
323.107114117374;108.806412086917
323.128736688671;108.733710786238
323.150359259968;108.676196279291
323.171981831265;108.625427704662
323.193604402563;108.577145238419
323.21522697386;108.525171608662
323.236849545157;108.459458940383
323.258472116455;108.370002049478
323.280094687752;108.249490751102
323.301717259049;108.093133807444
323.323339830347;107.888629003649
323.344962401644;107.632089189572
323.366584972941;107.324212069669
323.388207544238;106.973682701211
323.409830115536;106.604704348366
323.431452686833;106.209248536974
323.45307525813;105.783178586435
323.474697829428;105.371810259697
323.496320400725;105.008389985654
323.517942972022;104.685423354081
323.53956554332;104.378674221193
323.561188114617;104.076739360417
323.582810685914;103.783209420922
323.604433257212;103.506448004165
323.626055828509;103.243009748038
323.647678399806;102.973769214156
323.669300971103;102.696437665868
323.690923542401;102.417520445927
323.712546113698;102.153205887628
323.734168684995;101.913263166582
323.755791256293;101.68871288234
323.77741382759;101.45218339701
323.799036398887;101.191356221802
323.820658970185;100.911977736038
323.842281541482;100.679850221635
323.863904112779;100.509413681127
323.885526684076;100.37370830093
323.907149255374;100.257499489512
323.928771826671;100.161882530569
323.950394397968;100.083625999599
323.972016969266;100.011826107729
323.993639540563;99.9430516603393
324.01526211186;99.8771816996581
324.036884683158;99.8100473469715
324.058507254455;99.729875659169
324.080129825752;99.6361992521519
324.101752397049;99.5197739701148
324.123374968347;99.3891314092489
324.144997539644;99.2673186752332
324.166620110941;99.1561950350045
324.188242682239;99.057489660652
324.209865253536;98.9729110035072
324.231487824833;98.9087974034064
324.253110396131;98.8749040337932
324.274732967428;98.8785266111212
324.296355538725;98.9169720565101
324.317978110022;98.9750904940152
324.33960068132;99.0442307383944
324.361223252617;99.116260121316
324.382845823914;99.1830977884473
324.404468395212;99.23155514012
324.426090966509;99.2419728568431
324.447713537806;99.1985838232703
324.469336109104;99.1014071065406
324.490958680401;98.9517302624257
324.512581251698;98.7593014710211
324.534203822995;98.532953220149
324.555826394293;98.2772195447946
324.57744896559;97.9946669590082
324.599071536887;97.7060153441863
324.620694108185;97.4398723072475
324.642316679482;97.1974650879147
324.663939250779;96.9779575008177
324.685561822077;96.7866271099771
324.707184393374;96.6270686178659
324.728806964671;96.4992136185452
324.750429535969;96.4059225911098
324.772052107266;96.3403655922421
