Name;ESR_BC_1_359s_Y_gon_120dg_5

Recipe
Accumulations;5;Number of accumulations
RetryCount;0;Number of retries on error
AbortOnError;True;Abort on error
EnableQFactorMeasurement;False;Enable/Disable q-Factor measurement
Bfrom;313;B from
Bto;363;B to
SweepTime;60;Sweep time
Modulation;0.2;Modulation
ModulationFreq;100;Modulation
BHoldEnabled;False;B hold enabled
BHold;0;B hold
MicrowavePower;2;Microwave power
MarkerEnabled;False;
MarkerStartField;0;
MarkerEndField;0;
Mode;;
KineticGFact;0;
KineticTotalTransientTime;0;
KineticTimeResolution;0;
TempFrom;5;
TempUseSlope;False;
TempTo;5;
TempdT;1;
TempSetupTime;0;
GonFrom;0;
GonTo;180;
GonSteps;20;
XRayEnabled;False;
XRayTime;3;
XRayVoltage;40;
XRayCurrent;0.5;
UVEnabled;False;
UVIntensity;0;
UVTime;0;
UVLeadTime;0;
UVWavelength;0;
PowSweepFrom;1;
PowSweepTo;5;
PowSweepSteps;5;
AmpModSweepFrom;0;
AmpModSweepTo;1;
AmpModSweepSteps;10;
ExtTriggerEnabled;False;
ExtTrigLeadTime;0;
ExtTrigOnTime;5;

Meas
BField [mT];MW_Absorption []
313.018619003296;161.657467628449
313.040241072287;160.752832582063
313.061863141279;159.785959428304
313.08348521027;158.684566181387
313.105107279261;157.312564170783
313.126729348253;155.828018479587
313.148351417244;154.491412607585
313.169973486236;153.27538924643
313.191595555227;152.133263218013
313.213217624218;151.049233652533
313.23483969321;150.024615214178
313.256461762201;149.085778592606
313.278083831193;148.297507649424
313.299705900184;147.715244848081
313.321327969175;147.354485741165
313.342950038167;147.147536658636
313.364572107158;147.074717049077
313.38619417615;147.137831645763
313.407816245141;147.327479234005
313.429438314132;147.625846103751
313.451060383124;147.997007586868
313.472682452115;148.412726857799
313.494304521107;148.868953893464
313.515926590098;149.380467077626
313.537548659089;150.000777190702
313.559170728081;150.745221010743
313.580792797072;151.477107951237
313.602414866064;152.121721638426
313.624036935055;152.709435242484
313.645659004046;153.27195656342
313.667281073038;153.822726981634
313.688903142029;154.354509540977
313.71052521102;154.863205716786
313.732147280012;155.347040094562
313.753769349003;155.801916282039
313.775391417995;156.217191702167
313.797013486986;156.563143869505
313.818635555977;156.820952561482
313.840257624969;156.982759242201
313.86187969396;157.054861208189
313.883501762952;157.041165471994
313.905123831943;156.949779010144
313.926745900934;156.791701187703
313.948367969926;156.575708795846
313.969990038917;156.309223020109
313.991612107909;155.998483344668
314.0132341769;155.626979070069
314.034856245891;155.19480998745
314.056478314883;154.748714574462
314.078100383874;154.320688018364
314.099722452866;153.904471028722
314.121344521857;153.478802012375
314.142966590848;153.023821101159
314.16458865984;152.50746731253
314.186210728831;151.910618362365
314.207832797823;151.32611083811
314.229454866814;150.776830285439
314.251076935805;150.249569406057
314.272699004797;149.770077308148
314.294321073788;149.344414978952
314.315943142779;148.934431347374
314.337565211771;148.534653840709
314.359187280762;148.171067666179
314.380809349754;147.829495061055
314.402431418745;147.484811544743
314.424053487736;147.135943493636
314.445675556728;146.799039575335
314.467297625719;146.477082743125
314.488919694711;146.153467493343
314.510541763702;145.811208296592
314.532163832693;145.448570021099
314.553785901685;145.098052292248
314.575407970676;144.80093168814
314.597030039668;144.573700561194
314.618652108659;144.398699989876
314.64027417765;144.265758234429
314.661896246642;144.168747861774
314.683518315633;144.112999687136
314.705140384625;144.110047552219
314.726762453616;144.158441373698
314.748384522607;144.251979592424
314.770006591599;144.378309455862
314.79162866059;144.53484605538
314.813250729582;144.711460670169
314.834872798573;144.899953303716
314.856494867564;145.097700846021
314.878116936556;145.292444224861
314.899739005547;145.479406253208
314.921361074538;145.660982909009
314.94298314353;145.84077550208
314.964605212521;146.019751701829
314.986227281513;146.196454904621
315.007849350504;146.361427367069
315.029471419495;146.52256745488
315.051093488487;146.685852463591
315.072715557478;146.856392658127
315.09433762647;147.043966629608
315.115959695461;147.262372799227
315.137581764452;147.529573052746
315.159203833444;147.838018439411
315.180825902435;148.136994022916
315.202447971427;148.416309535487
315.224070040418;148.696152480848
315.245692109409;148.991988970768
315.267314178401;149.296449708017
315.288936247392;149.566311767075
315.310558316384;149.775757266666
315.332180385375;149.920409965179
315.353802454366;149.987707150568
315.375424523358;149.95990783482
315.397046592349;149.81152869654
315.41866866134;149.536956973173
315.440290730332;149.147618436836
315.461912799323;148.656671918069
315.483534868315;148.073578131934
315.505156937306;147.393889726123
315.526779006297;146.655546993485
315.548401075289;145.913655723871
315.57002314428;145.195731917477
315.591645213272;144.529383779046
315.613267282263;143.927968435705
315.634889351254;143.38465933961
315.656511420246;142.906970180051
315.678133489237;142.556193554885
315.699755558229;142.326785174865
315.72137762722;142.204304865982
315.742999696211;142.179899661713
315.764621765203;142.248368770687
315.786243834194;142.392209324322
315.807865903186;142.575072708516
315.829487972177;142.7734285088
315.851110041168;142.969958103635
315.87273211016;143.152048078951
315.894354179151;143.305817668711
315.915976248143;143.425822424574
315.937598317134;143.504005303863
315.959220386125;143.533964175563
315.980842455117;143.51440388353
316.002464524108;143.449152916247
316.024086593099;143.337132767022
316.045708662091;143.157447333236
316.067330731082;142.915223787296
316.088952800074;142.671588441451
316.110574869065;142.427052365284
316.132196938056;142.174122964333
316.153819007048;141.913391474954
316.175441076039;141.649646110385
316.197063145031;141.37098112424
316.218685214022;141.066227296753
316.240307283013;140.769556293484
316.261929352005;140.496209797799
316.283551420996;140.243335835676
316.305173489988;140.017956472147
316.326795558979;139.812029806748
316.34841762797;139.611566293192
316.370039696962;139.416210767699
316.391661765953;139.232086637795
316.413283834945;139.057805166386
316.434905903936;138.892802535758
316.456527972927;138.744379241115
316.478150041919;138.614223548393
316.49977211091;138.504136716324
316.521394179902;138.419969363493
316.543016248893;138.364920423437
316.564638317884;138.333690044536
316.586260386876;138.322505549694
316.607882455867;138.325883636317
316.629504524858;138.335482059584
316.65112659385;138.342068538486
316.672748662841;138.337150049645
316.694370731833;138.308184197935
316.715992800824;138.243987859082
316.737614869815;138.134375239625
316.759236938807;137.962390041813
316.780859007798;137.727516773254
316.80248107679;137.458623592711
316.824103145781;137.176447133521
316.845725214772;136.87751677537
316.867347283764;136.555779245281
316.888969352755;136.2233489802
316.910591421747;135.906251980238
316.932213490738;135.643745900841
316.953835559729;135.408060884412
316.975457628721;135.168279831794
316.997079697712;134.908842765388
317.018701766704;134.618215720632
317.040323835695;134.292840730868
317.061945904686;133.93406262952
317.083567973678;133.538127165984
317.105190042669;133.10060395908
317.126812111661;132.625614197083
317.148434180652;132.119306719659
317.170056249643;131.600586921379
317.191678318635;131.116128780279
317.213300387626;130.680360283835
317.234922456617;130.284555339163
317.256544525609;129.962777068815
317.2781665946;129.727172729209
317.299788663592;129.559322218558
317.321410732583;129.444264015385
317.343032801574;129.364851223007
317.364654870566;129.317228538857
317.386276939557;129.303110213483
317.407899008549;129.31736481388
317.42952107754;129.353421602956
317.451143146531;129.392052922303
317.472765215523;129.427337034185
317.494387284514;129.459991652925
317.516009353506;129.490496066849
317.537631422497;129.525444048287
317.559253491488;129.574819058737
317.58087556048;129.64816472017
317.602497629471;129.751361788656
317.624119698463;129.886451180602
317.645741767454;130.060643464953
317.667363836445;130.290343163863
317.688985905437;130.572127480502
317.710607974428;130.90247072912
317.73223004342;131.26558816857
317.753852112411;131.605812960788
317.775474181402;131.903987467167
317.797096250394;132.140590583068
317.818718319385;132.29016839691
317.840340388376;132.339515719038
317.861962457368;132.263178659948
317.883584526359;132.047873960075
317.905206595351;131.739826056907
317.926828664342;131.386342193111
317.948450733333;131.00620221838
317.970072802325;130.6049684199
317.991694871316;130.198226276756
318.013316940308;129.795622739353
318.034939009299;129.449556805604
318.05656107829;129.215034006291
318.078183147282;129.086605486013
318.099805216273;129.047574483795
318.121427285265;129.089526567943
318.143049354256;129.194013386804
318.164671423247;129.34228185282
318.186293492239;129.530864208958
318.20791556123;129.760026335344
318.229537630222;130.02622262162
318.251159699213;130.313708008967
318.272781768204;130.613404032834
318.294403837196;130.923219287878
318.316025906187;131.238946803192
318.337647975179;131.548477183595
318.35927004417;131.842741514292
318.380892113161;132.117059738948
318.402514182153;132.355761569769
318.424136251144;132.553165006797
318.445758320135;132.701882357879
318.467380389127;132.796843294444
318.489002458118;132.842633011045
318.51062452711;132.843273579707
318.532246596101;132.801178985257
318.553868665092;132.731959428535
318.575490734084;132.653864019948
318.597112803075;132.574061436746
318.618734872067;132.50086327487
318.640356941058;132.44886173967
318.661979010049;132.432329266041
318.683601079041;132.448208267555
318.705223148032;132.491347984729
318.726845217024;132.555591690986
318.748467286015;132.632963764768
318.770089355006;132.708218081681
318.791711423998;132.77824663204
318.813333492989;132.830812985311
318.834955561981;132.866320389831
318.856577630972;132.892039465433
318.878199699963;132.910568716653
318.899821768955;132.925787538857
318.921443837946;132.940964546354
318.943065906937;132.961969121627
318.964687975929;132.992419306604
318.98631004492;133.033243268803
319.007932113912;133.088183645183
319.029554182903;133.150672659783
319.051176251894;133.211755589053
319.072798320886;133.255494006637
319.094420389877;133.271052500083
319.116042458869;133.248438218165
319.13766452786;133.176313251806
319.159286596851;133.057658166903
319.180908665843;132.898650498565
319.202530734834;132.697627580115
319.224152803826;132.467075652996
319.245774872817;132.225920984684
319.267396941808;132.01350816806
319.2890190108;131.864925332947
319.310641079791;131.793410776266
319.332263148783;131.80103560054
319.353885217774;131.902605078225
319.375507286765;132.115260993995
319.397129355757;132.434772141085
319.418751424748;132.851747931638
319.44037349374;133.358955159648
319.461995562731;133.90401121675
319.483617631722;134.448956912413
319.505239700714;135.008356609408
319.526861769705;135.584373609297
319.548483838696;136.117380738618
319.570105907688;136.550568254282
319.591727976679;136.886753947724
319.613350045671;137.123289844571
319.634972114662;137.253647706859
319.656594183653;137.272670094579
319.678216252645;137.187457243695
319.699838321636;137.011470085029
319.721460390628;136.749382865056
319.743082459619;136.392491815721
319.76470452861;135.938374997405
319.786326597602;135.464966358687
319.807948666593;135.004006972681
319.829570735585;134.557746708032
319.851192804576;134.126369281483
319.872814873567;133.705343088433
319.894436942559;133.264313655314
319.91605901155;132.784081845965
319.937681080542;132.326074108112
319.959303149533;131.923183891457
319.980925218524;131.567739358223
320.002547287516;131.250468513204
320.024169356507;130.960283023272
320.045791425499;130.696618004407
320.06741349449;130.476374533347
320.089035563481;130.320253652411
320.110657632473;130.226679420495
320.132279701464;130.188873971567
320.153901770455;130.209458373565
320.175523839447;130.306482046599
320.197145908438;130.477208967668
320.21876797743;130.699203851072
320.240390046421;130.936505526085
320.262012115412;131.183260353104
320.283634184404;131.45024391038
320.305256253395;131.738811053457
320.326878322387;132.025766518453
320.348500391378;132.27520919623
320.370122460369;132.445396045581
320.391744529361;132.514880189605
320.413366598352;132.492491701474
320.434988667344;132.384884940604
320.456610736335;132.18520969884
320.478232805326;131.894263861172
320.499854874318;131.517344878637
320.521476943309;131.069081821394
320.543099012301;130.580043843688
320.564721081292;130.087106700154
320.586343150283;129.620359808162
320.607965219275;129.182820869635
320.629587288266;128.791834318941
320.651209357258;128.480294075884
320.672831426249;128.268038815544
320.69445349524;128.148385071091
320.716075564232;128.117170368606
320.737697633223;128.178989577905
320.759319702215;128.329969511292
320.780941771206;128.559460857998
320.802563840197;128.836465249352
320.824185909189;129.133820786216
320.84580797818;129.443387538575
320.867430047171;129.759840132399
320.889052116163;130.064879160281
320.910674185154;130.322872305762
320.932296254146;130.50386116381
320.953918323137;130.619194757404
320.975540392128;130.692684605422
320.99716246112;130.732992196544
321.018784530111;130.739971733806
321.040406599103;130.724453384001
321.062028668094;130.694503207452
321.083650737085;130.651622200035
321.105272806077;130.59461083438
321.126894875068;130.520326819991
321.14851694406;130.418503119706
321.170139013051;130.276392067678
321.191761082042;130.107236625333
321.213383151034;129.917758314479
321.235005220025;129.698048211495
321.256627289017;129.437376999395
321.278249358008;129.12520588403
321.299871426999;128.777371973924
321.321493495991;128.438106029679
321.343115564982;128.128942817499
321.364737633974;127.851257731994
321.386359702965;127.603713168155
321.407981771956;127.383684869581
321.429603840948;127.189141853217
321.451225909939;127.025658986224
321.47284797893;126.899312479215
321.494470047922;126.799619548084
321.516092116913;126.718183272243
321.537714185905;126.646542931437
321.559336254896;126.569112524185
321.580958323887;126.472256232239
321.602580392879;126.350600805439
321.62420246187;126.202060186959
321.645824530862;126.02196806224
321.667446599853;125.793309558079
321.689068668844;125.48039347581
321.710690737836;125.080198534689
321.732312806827;124.662932121941
321.753934875819;124.226884325704
321.77555694481;123.7347278856
321.797179013801;123.217060115049
321.818801082793;122.727734945056
321.840423151784;122.246687014265
321.862045220776;121.729916845201
321.883667289767;121.14060594581
321.905289358758;120.485031475748
321.92691142775;119.786349115813
321.948533496741;119.062216999951
321.970155565732;118.296142396319
321.991777634724;117.458152931965
322.013399703715;116.569505370685
322.035021772707;115.69176933644
322.056643841698;114.82842403751
322.078265910689;113.986519376428
322.099887979681;113.136684303011
322.121510048672;112.278023113141
322.143132117664;111.438435179596
322.164754186655;110.670588613649
322.186376255646;109.986969140861
322.207998324638;109.375226260896
322.229620393629;108.870677472133
322.251242462621;108.569134542614
322.272864531612;108.490589126687
322.294486600603;108.594811164735
322.316108669595;108.868572568654
322.337730738586;109.294854097443
322.359352807578;109.85245063506
322.380974876569;110.56239921518
322.40259694556;111.414443324778
322.424219014552;112.213703885426
322.445841083543;112.884169934963
322.467463152534;113.478032982993
322.489085221526;114.008045366243
322.510707290517;114.42373639137
322.532329359509;114.685986443318
322.5539514285;114.81744389023
322.575573497491;114.830370476411
322.597195566483;114.756761040566
322.618817635474;114.601420489567
322.640439704466;114.354716208645
322.662061773457;114.011901776826
322.683683842448;113.592254855819
322.70530591144;113.123663006504
322.726927980431;112.626359585465
322.748550049423;112.113544680051
322.770172118414;111.591258998387
322.791794187405;111.070567404601
322.813416256397;110.557317922389
322.835038325388;110.059727986517
322.85666039438;109.585165712821
322.878282463371;109.148402620805
322.899904532362;108.739678344331
322.921526601354;108.345714871086
322.943148670345;107.960385871573
322.964770739337;107.592905189706
322.986392808328;107.260489749267
323.008014877319;106.964275243027
323.029636946311;106.71670535514
323.051259015302;106.534821448179
323.072881084294;106.396862512315
323.094503153285;106.286163699766
323.116125222276;106.194836040834
323.137747291268;106.119394498331
323.159369360259;106.056962987238
323.18099142925;106.006354488281
323.202613498242;105.969919386874
323.224235567233;105.954951233642
323.245857636225;105.967931502755
323.267479705216;106.014209908197
323.289101774207;106.099270421184
323.310723843199;106.227274106639
323.33234591219;106.387002811391
323.353967981182;106.56727689216
323.375590050173;106.750488764197
323.397212119164;106.916667916019
323.418834188156;107.050078512794
323.440456257147;107.15081074894
323.462078326139;107.207001422627
323.48370039513;107.206879643664
323.505322464121;107.133842557925
323.526944533113;106.978372050809
323.548566602104;106.747944960414
323.570188671096;106.444120608638
323.591810740087;106.05953601275
323.613432809078;105.606408310427
323.63505487807;105.130571325316
323.656676947061;104.673511442581
323.678299016053;104.223322886276
323.699921085044;103.770481679463
323.721543154035;103.341775659167
323.743165223027;102.984323079627
323.764787292018;102.675411734818
323.786409361009;102.391099721246
323.808031430001;102.116011804757
323.829653498992;101.857640971825
323.851275567984;101.623723388632
323.872897636975;101.417463165222
323.894519705966;101.239448833913
323.916141774958;101.088437617426
323.937763843949;100.96489755718
323.959385912941;100.855221446974
323.981007981932;100.745831438171
324.002630050923;100.634711589322
324.024252119915;100.530676510682
324.045874188906;100.419624448974
324.067496257898;100.280974814311
324.089118326889;100.114168012874
324.11074039588;99.9055597655781
324.132362464872;99.6480838589802
324.153984533863;99.3485896009147
324.175606602855;99.0083593348998
324.197228671846;98.6060046005074
324.218850740837;98.1307894955338
324.240472809829;97.6926256329468
324.26209487882;97.3167794217926
324.283716947812;96.9774824768872
324.305339016803;96.6610458787586
324.326961085794;96.3712341122594
324.348583154786;96.1243293946309
324.370205223777;95.9467987932568
324.391827292768;95.8438916663996
324.41344936176;95.804693693196
324.435071430751;95.8280377979527
324.456693499743;95.9178966524498
324.478315568734;96.0814490313014
324.499937637725;96.3018799489631
324.521559706717;96.5512689969057
324.543181775708;96.8235947238383
324.5648038447;97.1026860749915
324.586425913691;97.3610348075728
324.608047982682;97.5794776158887
324.629670051674;97.7622691202794
324.651292120665;97.9088079913468
324.672914189657;98.0043691135001
324.694536258648;98.0414849822425
324.716158327639;98.0320606019518
324.737780396631;97.9881004334986
324.759402465622;97.9172072829271
324.781024534614;97.8282994095603
