Name;ESR_BC_1_359s_Y_gon_40dg_3

Recipe
Accumulations;5;Number of accumulations
RetryCount;0;Number of retries on error
AbortOnError;True;Abort on error
EnableQFactorMeasurement;False;Enable/Disable q-Factor measurement
Bfrom;313;B from
Bto;363;B to
SweepTime;60;Sweep time
Modulation;0.2;Modulation
ModulationFreq;100;Modulation
BHoldEnabled;False;B hold enabled
BHold;0;B hold
MicrowavePower;2;Microwave power
MarkerEnabled;False;
MarkerStartField;0;
MarkerEndField;0;
Mode;;
KineticGFact;0;
KineticTotalTransientTime;0;
KineticTimeResolution;0;
TempFrom;5;
TempUseSlope;False;
TempTo;5;
TempdT;1;
TempSetupTime;0;
GonFrom;0;
GonTo;180;
GonSteps;20;
XRayEnabled;False;
XRayTime;3;
XRayVoltage;40;
XRayCurrent;0.5;
UVEnabled;False;
UVIntensity;0;
UVTime;0;
UVLeadTime;0;
UVWavelength;0;
PowSweepFrom;1;
PowSweepTo;5;
PowSweepSteps;5;
AmpModSweepFrom;0;
AmpModSweepTo;1;
AmpModSweepSteps;10;
ExtTriggerEnabled;False;
ExtTrigLeadTime;0;
ExtTrigOnTime;5;

Meas
BField [mT];MW_Absorption []
313.010408782959;177.594555345293
313.032030925775;177.036298954443
313.053653068592;176.431754218741
313.075275211409;175.795265209473
313.096897354225;175.114611363808
313.118519497042;174.39601948024
313.140141639858;173.629972026782
313.161763782675;172.830351934692
313.183385925491;172.027054660645
313.205008068308;171.265287532951
313.226630211124;170.553529318231
313.248252353941;169.882847876306
313.269874496757;169.253606886249
313.291496639574;168.655929925263
313.31311878239;168.102416557225
313.334740925207;167.605120366321
313.356363068023;167.157390055117
313.37798521084;166.771673086623
313.399607353656;166.468351861508
313.421229496473;166.231998295738
313.442851639289;166.044238239491
313.464473782106;165.909189839624
313.486095924922;165.845739430124
313.507718067739;165.865556371822
313.529340210555;165.973659670795
313.550962353372;166.170450216397
313.572584496188;166.452410798999
313.594206639005;166.801776474273
313.615828781821;167.195385798146
313.637450924638;167.611482992157
313.659073067454;168.027021260162
313.680695210271;168.414985803885
313.702317353087;168.76657557833
313.723939495904;169.085122566772
313.74556163872;169.345734817453
313.767183781537;169.506089448726
313.788805924353;169.573791146957
313.81042806717;169.549397297579
313.832050209986;169.44670718014
313.853672352803;169.280097321341
313.875294495619;169.061093265454
313.896916638436;168.819759277461
313.918538781252;168.574351797119
313.940160924069;168.325845755258
313.961783066885;168.117504403892
313.983405209702;167.996891409026
314.005027352518;167.979127850718
314.026649495335;168.058037966069
314.048271638151;168.226014933255
314.069893780968;168.488961355038
314.091515923784;168.847523101024
314.113138066601;169.277433140015
314.134760209417;169.735798841547
314.156382352234;170.176241344165
314.17800449505;170.570094011411
314.199626637867;170.914674725153
314.221248780683;171.197678982308
314.2428709235;171.395351924965
314.264493066316;171.494895589083
314.286115209133;171.496007481597
314.307737351949;171.390839866147
314.329359494766;171.184683558457
314.350981637582;170.928681030616
314.372603780399;170.636555676491
314.394225923215;170.311544039272
314.415848066032;169.970642021678
314.437470208848;169.651841214909
314.459092351665;169.388134832745
314.480714494482;169.199932334603
314.502336637298;169.076550250224
314.523958780115;169.016349446835
314.545580922931;169.037473180989
314.567203065748;169.149335529305
314.588825208564;169.343855141728
314.610447351381;169.637688147232
314.632069494197;170.018002647987
314.653691637014;170.408904588547
314.67531377983;170.79820967296
314.696935922647;171.204838260167
314.718558065463;171.633467505371
314.74018020828;172.057906046149
314.761802351096;172.457992782184
314.783424493913;172.843547985355
314.805046636729;173.213013533758
314.826668779546;173.539455476388
314.848290922362;173.806778156307
314.869913065179;174.025932740362
314.891535207995;174.206414220061
314.913157350812;174.33860106163
314.934779493628;174.379735633113
314.956401636445;174.290546602519
314.978023779261;174.124882328233
314.999645922078;173.901535026551
315.021268064894;173.609932104968
315.042890207711;173.238758941314
315.064512350527;172.781777392519
315.086134493344;172.227373753604
315.10775663616;171.599796141822
315.129378778977;170.97128085053
315.151000921793;170.35944805895
315.17262306461;169.748820287148
315.194245207426;169.125940720319
315.215867350243;168.492232657315
315.237489493059;167.833175642386
315.259111635876;167.156734052324
315.280733778692;166.498652470682
315.302355921509;165.860894922018
315.323978064325;165.223390786471
315.345600207142;164.577241072638
315.367222349958;163.961565667023
315.388844492775;163.417319920459
315.410466635591;162.941920316372
315.432088778408;162.530640842547
315.453710921224;162.223495393102
315.475333064041;161.999511793494
315.496955206857;161.822198372685
315.518577349674;161.674890388038
315.54019949249;161.557987632838
315.561821635307;161.471444505259
315.583443778123;161.407475809556
315.60506592094;161.352029264764
315.626688063756;161.293797483482
315.648310206573;161.226101556118
315.669932349389;161.134512383546
315.691554492206;161.020224239645
315.713176635022;160.894932199248
315.734798777839;160.767050670706
315.756420920656;160.63392475784
315.778043063472;160.502202492326
315.799665206289;160.371498041163
315.821287349105;160.246456800606
315.842909491922;160.133858379266
315.864531634738;160.03896634326
315.886153777555;159.972370022555
315.907775920371;159.938436299375
315.929398063188;159.938794159146
315.951020206004;159.964395392732
315.972642348821;160.010685366641
315.994264491637;160.069489964707
316.015886634454;160.124836968266
316.03750877727;160.165882802906
316.059130920087;160.177710367983
316.080753062903;160.150871865532
316.10237520572;160.064032580896
316.123997348536;159.890989002374
316.145619491353;159.640034641507
316.167241634169;159.321976497004
316.188863776986;158.907832661141
316.210485919802;158.396166682487
316.232108062619;157.82177820295
316.253730205435;157.224178384205
316.275352348252;156.618768247705
316.296974491068;155.997172686806
316.318596633885;155.344280473323
316.340218776701;154.679331879407
316.361840919518;154.080028946037
316.383463062334;153.568075826215
316.405085205151;153.104144756852
316.426707347967;152.652386436006
316.448329490784;152.220454099995
316.4699516336;151.853880451021
316.491573776417;151.559898892061
316.513195919233;151.31933111426
316.53481806205;151.119259132787
316.556440204866;150.959422108332
316.578062347683;150.842289440955
316.599684490499;150.759308719537
316.621306633316;150.704032836847
316.642928776132;150.677632985083
316.664550918949;150.688926624206
316.686173061765;150.740278707232
316.707795204582;150.821236370939
316.729417347398;150.927422024011
316.751039490215;151.065519659994
316.772661633031;151.239218932145
316.794283775848;151.426471352559
316.815905918664;151.602416327377
316.837528061481;151.762547718964
316.859150204297;151.90117308047
316.880772347114;152.00050088827
316.90239448993;152.057520723745
316.924016632747;152.067001234176
316.945638775563;152.01603738998
316.96726091838;151.884461984846
316.988883061196;151.660883806273
317.010505204013;151.357173177164
317.032127346829;150.981665550072
317.053749489646;150.515975378577
317.075371632462;149.939769389353
317.096993775279;149.287550787813
317.118615918095;148.608572143656
317.140238060912;147.891909113573
317.161860203729;147.101958320993
317.183482346545;146.294916292253
317.205104489362;145.557923078527
317.226726632178;144.907422397075
317.248348774995;144.382723390298
317.269970917811;143.971725581982
317.291593060628;143.653128613386
317.313215203444;143.40146221373
317.334837346261;143.209251786782
317.356459489077;143.095773404825
317.378081631894;143.062155982069
317.39970377471;143.088153930962
317.421325917527;143.165585058486
317.442948060343;143.292736668515
317.46457020316;143.470150971951
317.486192345976;143.675634031064
317.507814488793;143.889712846844
317.529436631609;144.112596194821
317.551058774426;144.350438547538
317.572680917242;144.599980184389
317.594303060059;144.82980477865
317.615925202875;145.023335807877
317.637547345692;145.181465853384
317.659169488508;145.299965981811
317.680791631325;145.371036514152
317.702413774141;145.400765183346
317.724035916958;145.392791152812
317.745658059774;145.34600483607
317.767280202591;145.265947452784
317.788902345407;145.158388003386
317.810524488224;145.022566937431
317.83214663104;144.844931715907
317.853768773857;144.626679257856
317.875390916673;144.383066171237
317.89701305949;144.111858956413
317.918635202306;143.806856438126
317.940257345123;143.478905388225
317.961879487939;143.146833017636
317.983501630756;142.827064469445
318.005123773572;142.529878564267
318.026745916389;142.252189608157
318.048368059205;141.985526976907
318.069990202022;141.735751235147
318.091612344838;141.511519456373
318.113234487655;141.309942028018
318.134856630471;141.12251458783
318.156478773288;140.926664450415
318.178100916104;140.716111555799
318.199723058921;140.506967231553
318.221345201737;140.307162914094
318.242967344554;140.109478680646
318.26458948737;139.903591791728
318.286211630187;139.688499351331
318.307833773003;139.464739480038
318.32945591582;139.243414561101
318.351078058636;139.042954756189
318.372700201453;138.873168247354
318.394322344269;138.739515117566
318.415944487086;138.654286317684
318.437566629903;138.636611074283
318.459188772719;138.702349853032
318.480810915536;138.857243613327
318.502433058352;139.090807973719
318.524055201169;139.382959399679
318.545677343985;139.703101699192
318.567299486802;140.040730656666
318.588921629618;140.381210313765
318.610543772435;140.702691559528
318.632165915251;140.998040557898
318.653788058068;141.254476145323
318.675410200884;141.429162479006
318.697032343701;141.5049589941
318.718654486517;141.499576457337
318.740276629334;141.41698651498
318.76189877215;141.257754723256
318.783520914967;141.041512093071
318.805143057783;140.789213390722
318.8267652006;140.515798326855
318.848387343416;140.231575361343
318.870009486233;139.941946079348
318.891631629049;139.654212621818
318.913253771866;139.388721908351
318.934875914682;139.176521980488
318.956498057499;139.036971874403
318.978120200315;138.954912733215
318.999742343132;138.91152364349
319.021364485948;138.896587112975
319.042986628765;138.901732578706
319.064608771581;138.905199896359
319.086230914398;138.885876522312
319.107853057214;138.828570195244
319.129475200031;138.716596785865
319.151097342847;138.53559655029
319.172719485664;138.291256087614
319.19434162848;137.988773757599
319.215963771297;137.63176185187
319.237585914113;137.258561853071
319.25920805693;136.907995597646
319.280830199746;136.601732233815
319.302452342563;136.329885181372
319.324074485379;136.079478581627
319.345696628196;135.856272775461
319.367318771012;135.676900437914
319.388940913829;135.552648465735
319.410563056645;135.472452504641
319.432185199462;135.419122786462
319.453807342278;135.384927567932
319.475429485095;135.360784552829
319.497051627911;135.331935224575
319.518673770728;135.284867901648
319.540295913544;135.209901006796
319.561918056361;135.102075624759
319.583540199177;134.954031428468
319.605162341994;134.756408932235
319.62678448481;134.514814215905
319.648406627627;134.239824493803
319.670028770443;133.936638802307
319.69165091326;133.634630595413
319.713273056076;133.368323085688
319.734895198893;133.139211976718
319.756517341709;132.964262410415
319.778139484526;132.860722843871
319.799761627342;132.842207900841
319.821383770159;132.914582181401
319.843005912976;133.084844968587
319.864628055792;133.336745576503
319.886250198609;133.647620188502
319.907872341425;134.015979894429
319.929494484242;134.435744061309
319.951116627058;134.871380842826
319.972738769875;135.260118053467
319.994360912691;135.540301697996
320.015983055508;135.705600448444
320.037605198324;135.764994617803
320.059227341141;135.734643911265
320.080849483957;135.590187359007
320.102471626774;135.284314860056
320.12409376959;134.827775418568
320.145715912407;134.316782048191
320.167338055223;133.784191507872
320.18896019804;133.220710947155
320.210582340856;132.637878513495
320.232204483673;132.065998920012
320.253826626489;131.542043294534
320.275448769306;131.129931934364
320.297070912122;130.876531878168
320.318693054939;130.773765266415
320.340315197755;130.810576599116
320.361937340572;130.986859517834
320.383559483388;131.294294544056
320.405181626205;131.697025914761
320.426803769021;132.178654992372
320.448425911838;132.768208858564
320.470048054654;133.480976128074
320.491670197471;134.202299815915
320.513292340287;134.880642062144
320.534914483104;135.560885604936
320.55653662592;136.333183059996
320.578158768737;137.143893863997
320.599780911553;137.812406304856
320.62140305437;138.330478601292
320.643025197186;138.749652610281
320.664647340003;139.089529116438
320.686269482819;139.328332466328
320.707891625636;139.456145246433
320.729513768452;139.491282796646
320.751135911269;139.447192992026
320.772758054085;139.311997035887
320.794380196902;139.094172327214
320.816002339718;138.814363276251
320.837624482535;138.487136348624
320.859246625351;138.126511764756
320.880868768168;137.766476212895
320.902490910984;137.426691973872
320.924113053801;137.113788410792
320.945735196617;136.869022401672
320.967357339434;136.738162114429
320.98897948225;136.728594920976
321.010601625067;136.837681124367
321.032223767883;137.063922709828
321.0538459107;137.412872975443
321.075468053516;137.89801283102
321.097090196333;138.515955687121
321.11871233915;139.246505897893
321.140334481966;140.141615284061
321.161956624783;141.186453483159
321.183578767599;142.178666291306
321.205200910416;143.048167495235
321.226823053232;143.820106503963
321.248445196049;144.539264991494
321.270067338865;145.23399528851
321.291689481682;145.866965834716
321.313311624498;146.375442909141
321.334933767315;146.762829312254
321.356555910131;147.057036638376
321.378178052948;147.267708496143
321.399800195764;147.390808342956
321.421422338581;147.424041718738
321.443044481397;147.360111322767
321.464666624214;147.206355605206
321.48628876703;146.96821740495
321.507910909847;146.65896575713
321.529533052663;146.287119087804
321.55115519548;145.863282644132
321.572777338296;145.428867098492
321.594399481113;145.008168561367
321.616021623929;144.599110137537
321.637643766746;144.208373856403
321.659265909562;143.847214695178
321.680888052379;143.526006243238
321.702510195195;143.254384398185
321.724132338012;143.037980992876
321.745754480828;142.884425612764
321.767376623645;142.793548963748
321.788998766461;142.747722375285
321.810620909278;142.734452225638
321.832243052094;142.755118965541
321.853865194911;142.795478634066
321.875487337727;142.834674815386
321.897109480544;142.858595757178
321.91873162336;142.854750022838
321.940353766177;142.809265818167
321.961975908993;142.708281945295
321.98359805181;142.535478792626
322.005220194626;142.266317900584
322.026842337443;141.910329720831
322.048464480259;141.518284833208
322.070086623076;141.091272640338
322.091708765892;140.574862480899
322.113330908709;139.946249953441
322.134953051525;139.330465248169
322.156575194342;138.775214590853
322.178197337158;138.231279949223
322.199819479975;137.651996311073
322.221441622791;137.009696809739
322.243063765608;136.34383570262
322.264685908424;135.707786548373
322.286308051241;135.093623975326
322.307930194057;134.461884376628
322.329552336874;133.749727690762
322.35117447969;132.945150447794
322.372796622507;132.163516268056
322.394418765323;131.520170624938
322.41604090814;131.005622708067
322.437663050956;130.595671751473
322.459285193773;130.298147283947
322.48090733659;130.124455948878
322.502529479406;130.086005841036
322.524151622223;130.192296273381
322.545773765039;130.423056234788
322.567395907856;130.733786920624
322.589018050672;131.091129513719
322.610640193489;131.476765856276
322.632262336305;131.866085582268
322.653884479122;132.231628679482
322.675506621938;132.54582054355
322.697128764755;132.775891999945
322.718750907571;132.899967122857
322.740373050388;132.929969487111
322.761995193204;132.881691183507
322.783617336021;132.756405228834
322.805239478837;132.55348976024
322.826861621654;132.291851960464
322.84848376447;131.985727036336
322.870105907287;131.645322268878
322.891728050103;131.287716371512
322.91335019292;130.915501767224
322.934972335736;130.525298987847
322.956594478553;130.133499539717
322.978216621369;129.757650687591
322.999838764186;129.39024305499
323.021460907002;129.028376205804
323.043083049819;128.710013744455
323.064705192635;128.456974593507
323.086327335452;128.265068148645
323.107949478268;128.145382207095
323.129571621085;128.097628065867
323.151193763901;128.111426098105
323.172815906718;128.176470717017
323.194438049534;128.287547110717
323.216060192351;128.428477957289
323.237682335167;128.565880387844
323.259304477984;128.676297223704
323.2809266208;128.747296228951
323.302548763617;128.762627547371
323.324170906433;128.705254930647
323.34579304925;128.561814669039
323.367415192066;128.320739555342
323.389037334883;127.988016616413
323.410659477699;127.577165148911
323.432281620516;127.097891217113
323.453903763332;126.571147506881
323.475525906149;126.004707860248
323.497148048965;125.418501073393
323.518770191782;124.834733639438
323.540392334598;124.251158592455
323.562014477415;123.631806479604
323.583636620231;122.935033598337
323.605258763048;122.224564970695
323.626880905864;121.597382304875
323.648503048681;121.02149983771
323.670125191497;120.450318176392
323.691747334314;119.853643124361
323.71336947713;119.207872353903
323.734991619947;118.501426225194
323.756613762763;117.746178730629
323.77823590558;116.975631495799
323.799858048397;116.203630645552
323.821480191213;115.424761211089
323.84310233403;114.661040179425
323.864724476846;113.911128161953
323.886346619663;113.141601072467
323.907968762479;112.359972329653
323.929590905296;111.597929812959
323.951213048112;110.854250375538
323.972835190929;110.093925365129
323.994457333745;109.290357914908
324.016079476562;108.482297863873
324.037701619378;107.736403221096
324.059323762195;107.029395446775
324.080945905011;106.337459278205
324.102568047828;105.662048492069
324.124190190644;104.986367454491
324.145812333461;104.293552828793
324.167434476277;103.577723573915
324.189056619094;102.822211291409
324.21067876191;101.977492267612
324.232300904727;100.986245387955
324.253923047543;99.8622730770278
324.27554519036;98.667319895502
324.297167333176;97.446867165146
324.318789475993;96.2595982600922
324.340411618809;95.1411543403222
324.362033761626;94.0835717042893
324.383655904442;93.0873271870615
324.405278047259;92.1585122984189
324.426900190075;91.2925228818736
324.448522332892;90.4918227763086
324.470144475708;89.7702037543676
324.491766618525;89.1496395058112
324.513388761341;88.6326342174725
324.535010904158;88.1881402763983
324.556633046974;87.7736559083417
324.578255189791;87.357704568393
324.599877332607;86.915992726121
324.621499475424;86.4497295427281
324.64312161824;85.9935671874896
324.664743761057;85.5472500490506
324.686365903873;85.0758372254199
324.70798804669;84.5611363216322
324.729610189506;84.0012133495062
324.751232332323;83.3976369792086
