Name;ESR_BC_1_359s_Y_gon_40dg_4

Recipe
Accumulations;5;Number of accumulations
RetryCount;0;Number of retries on error
AbortOnError;True;Abort on error
EnableQFactorMeasurement;False;Enable/Disable q-Factor measurement
Bfrom;313;B from
Bto;363;B to
SweepTime;60;Sweep time
Modulation;0.2;Modulation
ModulationFreq;100;Modulation
BHoldEnabled;False;B hold enabled
BHold;0;B hold
MicrowavePower;2;Microwave power
MarkerEnabled;False;
MarkerStartField;0;
MarkerEndField;0;
Mode;;
KineticGFact;0;
KineticTotalTransientTime;0;
KineticTimeResolution;0;
TempFrom;5;
TempUseSlope;False;
TempTo;5;
TempdT;1;
TempSetupTime;0;
GonFrom;0;
GonTo;180;
GonSteps;20;
XRayEnabled;False;
XRayTime;3;
XRayVoltage;40;
XRayCurrent;0.5;
UVEnabled;False;
UVIntensity;0;
UVTime;0;
UVLeadTime;0;
UVWavelength;0;
PowSweepFrom;1;
PowSweepTo;5;
PowSweepSteps;5;
AmpModSweepFrom;0;
AmpModSweepTo;1;
AmpModSweepSteps;10;
ExtTriggerEnabled;False;
ExtTrigLeadTime;0;
ExtTrigOnTime;5;

Meas
BField [mT];MW_Absorption []
313.014516143799;174.719978057397
313.036139299104;174.364767542332
313.057762454409;174.042393795814
313.079385609713;173.754114484009
313.101008765018;173.522074677526
313.122631920323;173.334803970642
313.144255075628;173.153916761519
313.165878230933;172.938995257915
313.187501386238;172.672617716831
313.209124541543;172.348689037689
313.230747696848;171.96865229913
313.252370852152;171.54870265795
313.273994007457;171.092341985898
313.295617162762;170.601613182056
313.317240318067;170.087579079583
313.338863473372;169.553182035914
313.360486628677;168.980070622541
313.382109783982;168.377777634629
313.403732939287;167.830784790044
313.425356094592;167.394082300236
313.446979249896;167.104727761146
313.468602405201;166.991066772675
313.490225560506;167.006618711327
313.511848715811;167.116796462022
313.533471871116;167.300012744058
313.555095026421;167.556681275226
313.576718181726;167.897581802462
313.598341337031;168.299713050755
313.619964492335;168.709809173144
313.64158764764;169.097089027703
313.663210802945;169.460301159214
313.68483395825;169.798108916991
313.706457113555;170.074624108543
313.72808026886;170.291315868259
313.749703424165;170.461642318145
313.77132657947;170.589744148001
313.792949734774;170.684281004362
313.814572890079;170.755874590003
313.836196045384;170.807569343331
313.857819200689;170.840964391338
313.879442355994;170.866401133384
313.901065511299;170.897517441613
313.922688666604;170.945481959454
313.944311821909;171.021612618546
313.965934977214;171.14911949494
313.987558132518;171.34548926678
314.009181287823;171.604592519064
314.030804443128;171.920596868909
314.052427598433;172.30492877489
314.074050753738;172.761460121894
314.095673909043;173.260168244208
314.117297064348;173.771363207183
314.138920219653;174.290097979397
314.160543374957;174.810876167819
314.182166530262;175.293191352025
314.203789685567;175.650716496928
314.225412840872;175.811437318158
314.247035996177;175.800508427472
314.268659151482;175.643613412184
314.290282306787;175.345070017001
314.311905462092;174.920178055819
314.333528617397;174.387836977154
314.355151772701;173.739000897599
314.376774928006;172.936838838211
314.398398083311;172.02062777027
314.420021238616;171.12818043206
314.441644393921;170.333977617883
314.463267549226;169.653887705072
314.484890704531;169.152285107012
314.506513859836;168.837289648511
314.52813701514;168.674082009614
314.549760170445;168.647659723607
314.57138332575;168.768300506785
314.593006481055;169.023560346408
314.61462963636;169.380423522991
314.636252791665;169.807666193337
314.65787594697;170.291976258537
314.679499102275;170.799756203192
314.701122257579;171.276319271065
314.722745412884;171.690256374012
314.744368568189;172.03909210524
314.765991723494;172.310687658094
314.787614878799;172.479219414096
314.809238034104;172.546554061411
314.830861189409;172.54048684184
314.852484344714;172.480060518149
314.874107500018;172.367470554927
314.895730655323;172.206524244166
314.917353810628;172.027097503638
314.938976965933;171.851769130072
314.960600121238;171.674902668204
314.982223276543;171.479323970472
315.003846431848;171.251370887721
315.025469587153;170.987854281812
315.047092742457;170.69072459087
315.068715897762;170.362466701667
315.090339053067;169.992199606158
315.111962208372;169.585681873534
315.133585363677;169.187327580098
315.155208518982;168.796315699738
315.176831674287;168.386439010131
315.198454829592;167.929029125482
315.220077984897;167.41082220676
315.241701140201;166.846065608362
315.263324295506;166.262113817958
315.284947450811;165.723412378144
315.306570606116;165.250948105155
315.328193761421;164.79633245805
315.349816916726;164.321769117884
315.371440072031;163.794513966216
315.393063227336;163.223905311053
315.41468638264;162.656498323056
315.436309537945;162.110919042223
315.45793269325;161.576768574356
315.479555848555;161.041308199756
315.50117900386;160.512363280438
315.522802159165;160.048737049565
315.54442531447;159.698051330148
315.566048469775;159.450181389666
315.58767162508;159.28950032561
315.609294780384;159.224893511943
315.630917935689;159.271221129971
315.652541090994;159.41237212735
315.674164246299;159.609053400705
315.695787401604;159.849899629585
315.717410556909;160.12560331186
315.739033712214;160.411140884505
315.760656867519;160.686216436122
315.782280022823;160.920335510071
315.803903178128;161.075062349574
315.825526333433;161.148193303202
315.847149488738;161.157330353351
315.868772644043;161.115158839525
315.890395799348;161.022846150899
315.912018954653;160.88016601333
315.933642109958;160.691606321108
315.955265265262;160.469254427563
315.976888420567;160.233871636795
315.998511575872;159.991601927972
316.020134731177;159.734626672738
316.041757886482;159.490755784187
316.063381041787;159.291653434681
316.085004197092;159.124170538829
316.106627352397;158.97664375527
316.128250507702;158.853853810923
316.149873663006;158.75751998654
316.171496818311;158.682517578723
316.193119973616;158.625776706882
316.214743128921;158.587708380575
316.236366284226;158.569477166287
316.257989439531;158.572918348545
316.279612594836;158.60167999056
316.301235750141;158.661809680598
316.322858905445;158.762747671509
316.34448206075;158.9135894306
316.366105216055;159.111905509012
316.38772837136;159.350008142182
316.409351526665;159.620164366115
316.43097468197;159.915441161946
316.452597837275;160.230734524589
316.47422099258;160.554922083413
316.495844147884;160.869863862455
316.517467303189;161.154089357717
316.539090458494;161.389642158804
316.560713613799;161.564129051403
316.582336769104;161.643670478378
316.603959924409;161.56975059453
316.625583079714;161.342475188859
316.647206235019;160.987191458567
316.668829390323;160.504396444751
316.690452545628;159.880006076092
316.712075700933;159.104650449714
316.733698856238;158.215898825527
316.755322011543;157.289541913984
316.776945166848;156.357943737648
316.798568322153;155.425512314475
316.820191477458;154.505705987742
316.841814632763;153.599170994446
316.863437788067;152.686400584812
316.885060943372;151.782262297516
316.906684098677;150.951153377452
316.928307253982;150.226693394915
316.949930409287;149.603298031141
316.971553564592;149.072089558631
316.993176719897;148.621282384286
317.014799875202;148.239600656962
317.036423030506;147.8989928022
317.058046185811;147.575530038244
317.079669341116;147.274204877373
317.101292496421;147.015806478908
317.122915651726;146.797287828513
317.144538807031;146.60305178854
317.166161962336;146.434462670393
317.187785117641;146.291025266301
317.209408272946;146.160489500595
317.23103142825;146.029965052469
317.252654583555;145.891035704605
317.27427773886;145.7370971245
317.295900894165;145.571604763086
317.31752404947;145.400102341778
317.339147204775;145.22320668602
317.36077036008;145.041553375693
317.382393515385;144.863570392295
317.404016670689;144.701888223452
317.425639825994;144.557036524502
317.447262981299;144.422425300916
317.468886136604;144.287753112971
317.490509291909;144.144016965451
317.512132447214;143.992413880745
317.533755602519;143.842934752513
317.555378757824;143.703186761938
317.577001913128;143.569459848939
317.598625068433;143.426069737065
317.620248223738;143.258348970556
317.641871379043;143.067900622182
317.663494534348;142.887780270713
317.685117689653;142.728470775098
317.706740844958;142.588180647563
317.728364000263;142.469769290154
317.749987155568;142.378346189526
317.771610310872;142.313374134424
317.793233466177;142.277572206701
317.814856621482;142.267585910077
317.836479776787;142.276574349566
317.858102932092;142.294858505686
317.879726087397;142.311945909378
317.901349242702;142.323169456595
317.922972398007;142.326343688624
317.944595553311;142.317335633506
317.966218708616;142.298224088411
317.987841863921;142.262716876362
318.009465019226;142.221522561373
318.031088174531;142.183094864408
318.052711329836;142.150638211288
318.074334485141;142.12848148319
318.095957640446;142.117971537146
318.11758079575;142.124954565357
318.139203951055;142.152191284057
318.16082710636;142.199661219399
318.182450261665;142.264964741982
318.20407341697;142.346364192055
318.225696572275;142.444839710835
318.24731972758;142.563610688242
318.268942882885;142.706064949247
318.290566038189;142.871414123238
318.312189193494;143.048944947572
318.333812348799;143.217502421804
318.355435504104;143.365440251487
318.377058659409;143.490574288482
318.398681814714;143.59184321611
318.420304970019;143.665358918346
318.441928125324;143.704226941974
318.463551280629;143.705303970682
318.485174435933;143.670812694674
318.506797591238;143.608793433496
318.528420746543;143.529393206503
318.550043901848;143.437240815189
318.571667057153;143.32891589005
318.593290212458;143.204140163607
318.614913367763;143.067879163717
318.636536523068;142.921718485346
318.658159678372;142.760560553753
318.679782833677;142.586193229842
318.701405988982;142.398494013062
318.723029144287;142.190944174312
318.744652299592;141.954450553436
318.766275454897;141.691293437021
318.787898610202;141.411671308787
318.809521765507;141.112097760743
318.831144920811;140.788603986813
318.852768076116;140.476368157911
318.874391231421;140.203671154338
318.896014386726;139.965211161865
318.917637542031;139.759438811136
318.939260697336;139.591559876969
318.960883852641;139.442474938407
318.982507007946;139.287459252322
319.004130163251;139.120846910322
319.025753318555;138.93398961953
319.04737647386;138.715573451848
319.068999629165;138.447055637785
319.09062278447;138.121772933987
319.112245939775;137.754812439297
319.13386909508;137.358681572213
319.155492250385;136.938724276233
319.17711540569;136.466028437572
319.198738560994;135.918938662964
319.220361716299;135.358856000799
319.241984871604;134.871167848358
319.263608026909;134.45128832451
319.285231182214;134.086988590088
319.306854337519;133.789261100068
319.328477492824;133.566873959367
319.350100648129;133.413331380503
319.371723803434;133.316569612194
319.393346958738;133.265381203093
319.414970114043;133.251921474281
319.436593269348;133.269367288415
319.458216424653;133.306575299557
319.479839579958;133.349875268808
319.501462735263;133.390080513637
319.523085890568;133.429883830636
319.544709045873;133.470410587829
319.566332201177;133.519032633515
319.587955356482;133.582262532365
319.609578511787;133.658907413156
319.631201667092;133.749862776119
319.652824822397;133.857686849623
319.674447977702;133.985221837972
319.696071133007;134.122589704918
319.717694288312;134.268013633614
319.739317443616;134.419675365571
319.760940598921;134.560205988536
319.782563754226;134.664340059679
319.804186909531;134.734038849707
319.825810064836;134.776409189788
319.847433220141;134.797468243442
319.869056375446;134.806235297076
319.890679530751;134.816243944286
319.912302686055;134.837456014491
319.93392584136;134.885081736177
319.955548996665;134.968194667649
319.97717215197;135.080484256883
319.998795307275;135.229376241745
320.02041846258;135.420581173235
320.042041617885;135.64110792157
320.06366477319;135.8764066973
320.085287928494;136.120468066677
320.106911083799;136.348060243277
320.128534239104;136.520340777645
320.150157394409;136.637298631132
320.171780549714;136.705128505306
320.193403705019;136.721896336684
320.215026860324;136.69137451564
320.236650015629;136.630154149104
320.258273170934;136.555076886103
320.279896326238;136.481482594923
320.301519481543;136.424830367201
320.323142636848;136.391311788616
320.344765792153;136.381473021759
320.366388947458;136.39353282615
320.388012102763;136.420399576107
320.409635258068;136.451404247408
320.431258413373;136.470357598518
320.452881568677;136.453625657452
320.474504723982;136.384236599631
320.496127879287;136.263784956809
320.517751034592;136.094632267092
320.539374189897;135.877621728974
320.560997345202;135.615148725933
320.582620500507;135.297596216173
320.604243655812;134.916828883125
320.625866811117;134.510600703682
320.647489966421;134.155009523857
320.669113121726;133.86867341204
320.690736277031;133.638124866222
320.712359432336;133.464169834047
320.733982587641;133.360397688644
320.755605742946;133.342438722145
320.777228898251;133.427604590224
320.798852053556;133.642604148468
320.82047520886;133.976986573836
320.842098364165;134.411794905045
320.86372151947;134.938211212483
320.885344674775;135.489583110269
320.90696783008;136.020658508751
320.928590985385;136.555649388664
320.95021414069;137.121023137357
320.971837295995;137.719474122848
320.993460451299;138.291943027429
321.015083606604;138.766445908628
321.036706761909;139.151957325824
321.058329917214;139.477862822082
321.079953072519;139.754453668502
321.101576227824;139.972978131534
321.123199383129;140.130881847953
321.144822538434;140.244053457221
321.166445693739;140.329893061826
321.188068849043;140.400628988254
321.209692004348;140.46914583919
321.231315159653;140.556376602899
321.252938314958;140.671540660903
321.274561470263;140.816363298077
321.296184625568;140.997328032642
321.317807780873;141.221964554997
321.339430936178;141.486671778743
321.361054091482;141.765745939414
321.382677246787;142.033262969807
321.404300402092;142.277762761491
321.425923557397;142.480333641476
321.447546712702;142.594897895538
321.469169868007;142.591480939415
321.490793023312;142.455674487927
321.512416178617;142.155631620938
321.534039333921;141.714664212751
321.555662489226;141.178958328481
321.577285644531;140.562766024708
321.598908799836;139.887746556399
321.620531955141;139.197921496296
321.642155110446;138.532084029292
321.663778265751;137.900594764941
321.685401421056;137.320843344134
321.70702457636;136.835133052819
321.728647731665;136.477647635688
321.75027088697;136.254312283165
321.771894042275;136.170694455343
321.79351719758;136.232715688122
321.815140352885;136.434178949456
321.83676350819;136.75395669113
321.858386663495;137.138238174172
321.8800098188;137.553253020217
321.901632974104;137.984980826018
321.923256129409;138.381953182608
321.944879284714;138.694764376975
321.966502440019;138.927900174067
321.988125595324;139.085088076656
322.009748750629;139.155130931917
322.031371905934;139.134905739268
322.052995061239;139.026401525109
322.074618216543;138.839147298446
322.096241371848;138.587920256626
322.117864527153;138.2794247616
322.139487682458;137.936870917695
322.161110837763;137.617343639384
322.182733993068;137.344317743499
322.204357148373;137.106595476853
322.225980303678;136.900281426106
322.247603458983;136.739807738554
322.269226614287;136.637743611239
322.290849769592;136.588197872636
322.312472924897;136.577310066725
322.334096080202;136.594511022712
322.355719235507;136.629773956645
322.377342390812;136.667726148609
322.398965546117;136.690598090207
322.420588701422;136.697476554649
322.442211856726;136.692591709653
322.463835012031;136.682575474373
322.485458167336;136.667693330129
322.507081322641;136.653203969779
322.528704477946;136.65298244814
322.550327633251;136.682026726545
322.571950788556;136.747420741543
322.593573943861;136.846709272385
322.615197099165;136.971859175821
322.63682025447;137.106608593094
322.658443409775;137.237165927253
322.68006656508;137.358526451411
322.701689720385;137.456465963155
322.72331287569;137.520339515313
322.744936030995;137.52600154962
322.7665591863;137.45991411216
322.788182341605;137.315484029978
322.809805496909;137.10015475548
322.831428652214;136.827898767024
322.853051807519;136.501366667709
322.874674962824;136.109881732407
322.896298118129;135.654718674975
322.917921273434;135.173601134847
322.939544428739;134.724506472562
322.961167584044;134.308132676748
322.982790739348;133.913756185388
323.004413894653;133.541473250972
323.026037049958;133.207056046332
323.047660205263;132.919436858057
323.069283360568;132.665074506111
323.090906515873;132.432020793353
323.112529671178;132.212035102081
323.134152826483;131.999141553428
323.155775981787;131.775718414009
323.177399137092;131.525192692676
323.199022292397;131.248140632201
323.220645447702;130.96007615952
323.242268603007;130.645930079923
323.263891758312;130.275568369201
323.285514913617;129.819756584863
323.307138068922;129.289833821718
323.328761224226;128.726538685638
323.350384379531;128.134373595506
323.372007534836;127.495172328053
323.393630690141;126.807416942454
323.415253845446;126.070108054456
323.436877000751;125.257915645635
323.458500156056;124.384577360765
323.480123311361;123.530686713685
323.501746466666;122.710397947881
323.52336962197;121.862524811836
323.544992777275;120.941846124289
323.56661593258;119.983460356422
323.588239087885;119.122546090068
323.60986224319;118.388132136017
323.631485398495;117.734005373989
323.6531085538;117.106529270985
323.674731709105;116.483850293825
323.696354864409;115.863546764278
323.717978019714;115.242646286137
323.739601175019;114.611284191896
323.761224330324;113.973095673847
323.782847485629;113.325307418221
323.804470640934;112.65546617796
323.826093796239;111.949922463282
323.847716951544;111.228898707835
323.869340106848;110.530362020839
323.890963262153;109.83651434661
323.912586417458;109.123304886248
323.934209572763;108.414712557619
323.955832728068;107.719759057583
323.977455883373;107.031884093639
323.999079038678;106.34506539827
324.020702193983;105.635913996439
324.042325349288;104.877909222265
324.063948504592;104.058095223614
324.085571659897;103.210426215351
324.107194815202;102.373233334086
324.128817970507;101.528594590519
324.150441125812;100.644740157693
324.172064281117;99.6901271382993
324.193687436422;98.6570087188071
324.215310591727;97.5812285304855
324.236933747031;96.5339066377208
324.258556902336;95.5205546952191
324.280180057641;94.5427194197688
324.301803212946;93.5954767834263
324.323426368251;92.6627491480661
324.345049523556;91.7852533813508
324.366672678861;91.011228915523
324.388295834166;90.3357693112629
324.409918989471;89.7423596911901
324.431542144775;89.2443900206816
324.45316530008;88.8353332197184
324.474788455385;88.5145173681198
324.49641161069;88.2688397235127
324.518034765995;88.0721281249476
324.5396579213;87.8953977049147
324.561281076605;87.7158705687752
324.58290423191;87.5175886535583
324.604527387214;87.2958568073581
324.626150542519;87.0361334518759
324.647773697824;86.7357039271133
324.669396853129;86.3824182728095
324.691020008434;85.9366946904977
324.712643163739;85.3593735432163
324.734266319044;84.6646582810636
324.755889474349;83.9330373150292
