Name;ESR_BC_1_359s_Y_gon_40dg_5

Recipe
Accumulations;5;Number of accumulations
RetryCount;0;Number of retries on error
AbortOnError;True;Abort on error
EnableQFactorMeasurement;False;Enable/Disable q-Factor measurement
Bfrom;313;B from
Bto;363;B to
SweepTime;60;Sweep time
Modulation;0.2;Modulation
ModulationFreq;100;Modulation
BHoldEnabled;False;B hold enabled
BHold;0;B hold
MicrowavePower;2;Microwave power
MarkerEnabled;False;
MarkerStartField;0;
MarkerEndField;0;
Mode;;
KineticGFact;0;
KineticTotalTransientTime;0;
KineticTimeResolution;0;
TempFrom;5;
TempUseSlope;False;
TempTo;5;
TempdT;1;
TempSetupTime;0;
GonFrom;0;
GonTo;180;
GonSteps;20;
XRayEnabled;False;
XRayTime;3;
XRayVoltage;40;
XRayCurrent;0.5;
UVEnabled;False;
UVIntensity;0;
UVTime;0;
UVLeadTime;0;
UVWavelength;0;
PowSweepFrom;1;
PowSweepTo;5;
PowSweepSteps;5;
AmpModSweepFrom;0;
AmpModSweepTo;1;
AmpModSweepSteps;10;
ExtTriggerEnabled;False;
ExtTrigLeadTime;0;
ExtTrigOnTime;5;

Meas
BField [mT];MW_Absorption []
313.009308853149;175.050369339188
313.03092973294;174.858106633772
313.05255061273;174.596192011547
313.07417149252;174.238794750634
313.09579237231;173.747531296514
313.117413252101;173.132332316436
313.139034131891;172.420164048918
313.160655011681;171.603684462613
313.182275891471;170.741758210537
313.203896771261;169.955675555591
313.225517651052;169.270925065461
313.247138530842;168.672429672752
313.268759410632;168.15691693476
313.290380290422;167.762802316205
313.312001170212;167.54503993199
313.333622050003;167.490641232807
313.355242929793;167.558048030836
313.376863809583;167.740920372272
313.398484689373;168.069719411637
313.420105569164;168.564663812492
313.441726448954;169.123696036423
313.463347328744;169.639020977877
313.484968208534;170.09676124688
313.506589088324;170.512120572173
313.528209968115;170.888059457072
313.549830847905;171.183042311707
313.571451727695;171.331520647741
313.593072607485;171.3625532111
313.614693487275;171.296800826072
313.636314367066;171.156020107194
313.657935246856;170.965721779244
313.679556126646;170.740802455488
313.701177006436;170.479743156017
313.722797886227;170.183878881414
313.744418766017;169.89032994299
313.766039645807;169.632034315332
313.787660525597;169.418595818006
313.809281405387;169.263856633779
313.830902285178;169.170879832424
313.852523164968;169.13763060896
313.874144044758;169.166535462256
313.895764924548;169.24823905718
313.917385804339;169.366129224052
313.939006684129;169.510147438453
313.960627563919;169.675695770021
313.982248443709;169.851893639865
314.003869323499;170.013130010565
314.02549020329;170.13446764775
314.04711108308;170.213367280652
314.06873196287;170.260093551024
314.09035284266;170.284805764128
314.111973722451;170.299319049088
314.133594602241;170.321382114961
314.155215482031;170.368680098089
314.176836361821;170.450711545397
314.198457241611;170.570583386837
314.220078121402;170.727879433697
314.241699001192;170.920905041633
314.263319880982;171.134395756217
314.284940760772;171.347315884959
314.306561640562;171.531404714642
314.328182520353;171.665069146762
314.349803400143;171.738556756458
314.371424279933;171.733154686745
314.393045159723;171.656393191204
314.414666039514;171.516554030223
314.436286919304;171.320687037276
314.457907799094;171.076142826296
314.479528678884;170.803724753749
314.501149558674;170.524720244273
314.522770438465;170.250748642199
314.544391318255;169.957799029521
314.566012198045;169.635658061489
314.587633077835;169.310356608234
314.609253957625;168.990591089984
314.630874837416;168.663350906123
314.652495717206;168.325720258575
314.674116596996;167.980142476183
314.695737476786;167.615411003369
314.717358356577;167.210535190301
314.738979236367;166.767717333849
314.760600116157;166.322454648845
314.782220995947;165.903603862429
314.803841875737;165.513345621379
314.825462755528;165.149949040745
314.847083635318;164.827982913734
314.868704515108;164.577544859426
314.890325394898;164.41957834444
314.911946274688;164.359483336081
314.933567154479;164.398820872046
314.955188034269;164.54504029233
314.976808914059;164.800937164511
314.998429793849;165.132421834075
315.02005067364;165.498836598056
315.04167155343;165.888575559285
315.06329243322;166.304079023466
315.08491331301;166.716628495962
315.1065341928;167.050574681083
315.128155072591;167.276141310921
315.149775952381;167.415354307322
315.171396832171;167.477667315026
315.193017711961;167.444866351162
315.214638591752;167.292558149292
315.236259471542;167.048758062958
315.257880351332;166.751678799896
315.279501231122;166.405920745341
315.301122110912;166.011922413041
315.322742990703;165.581163387008
315.344363870493;165.135093975319
315.365984750283;164.691216058146
315.387605630073;164.251990781495
315.409226509863;163.82070772774
315.430847389654;163.419107828066
315.452468269444;163.071759664186
315.474089149234;162.747123626368
315.495710029024;162.416706462359
315.517330908815;162.104673123215
315.538951788605;161.861192645718
315.560572668395;161.666412893032
315.582193548185;161.491040851573
315.603814427975;161.315615394209
315.625435307766;161.130740049037
315.647056187556;160.937317377177
315.668677067346;160.743355965529
315.690297947136;160.543825925866
315.711918826926;160.332505279872
315.733539706717;160.102833367946
315.755160586507;159.841333692071
315.776781466297;159.53490846478
315.798402346087;159.203228129183
315.820023225878;158.867105420919
315.841644105668;158.526563832668
315.863264985458;158.200201295706
315.884885865248;157.893243010718
315.906506745038;157.604239893057
315.928127624829;157.355597775167
315.949748504619;157.174890765806
315.971369384409;157.062582370536
315.992990264199;157.019781847321
316.01461114399;157.054375213378
316.03623202378;157.15296051551
316.05785290357;157.294174964336
316.07947378336;157.468379568175
316.10109466315;157.666222396581
316.122715542941;157.842946156017
316.144336422731;157.947617313341
316.165957302521;157.957205768037
316.187578182311;157.864535597565
316.209199062102;157.654864826767
316.230819941892;157.351601927604
316.252440821682;156.967802259454
316.274061701472;156.504251769571
316.295682581262;156.001256365162
316.317303461053;155.475781930642
316.338924340843;154.912778439324
316.360545220633;154.303235467195
316.382166100423;153.673720048163
316.403786980213;153.055119371268
316.425407860004;152.444432178485
316.447028739794;151.836347527107
316.468649619584;151.25815357632
316.490270499374;150.758697485307
316.511891379165;150.356922262791
316.533512258955;150.036734559296
316.555133138745;149.783375083711
316.576754018535;149.590440481146
316.598374898325;149.465112960429
316.619995778116;149.415604245805
316.641616657906;149.430741712747
316.663237537696;149.493771282691
316.684858417486;149.59215481614
316.706479297276;149.715056336057
316.728100177067;149.849625970326
316.749721056857;149.982422542403
316.771341936647;150.081245106925
316.792962816437;150.119047019132
316.814583696228;150.091751143372
316.836204576018;149.999203955464
316.857825455808;149.844518379849
316.879446335598;149.623393200714
316.901067215388;149.332278614002
316.922688095179;148.974360208479
316.944308974969;148.552601239926
316.965929854759;148.105909226279
316.987550734549;147.676071915958
317.009171614339;147.252853464443
317.03079249413;146.845073127264
317.05241337392;146.501307608562
317.07403425371;146.219440285203
317.0956551335;145.974323604925
317.117276013291;145.768851569031
317.138896893081;145.613384618496
317.160517772871;145.504708776727
317.182138652661;145.430466606764
317.203759532451;145.380205940876
317.225380412242;145.343244511942
317.247001292032;145.307629314789
317.268622171822;145.262106230248
317.290243051612;145.191839727817
317.311863931403;145.077158181823
317.333484811193;144.924143875459
317.355105690983;144.743402550669
317.376726570773;144.529144918175
317.398347450563;144.269705403725
317.419968330354;143.946543800282
317.441589210144;143.53621011038
317.463210089934;143.052360352299
317.484830969724;142.542887058271
317.506451849514;142.026836889305
317.528072729305;141.484871805172
317.549693609095;140.884494440097
317.571314488885;140.240057517479
317.592935368675;139.596821544582
317.614556248466;138.973961045924
317.636177128256;138.361047970861
317.657798008046;137.728745306409
317.679418887836;137.104586352765
317.701039767626;136.560066391797
317.722660647417;136.108693752657
317.744281527207;135.726842193656
317.765902406997;135.397104362948
317.787523286787;135.119220921263
317.809144166577;134.90152607852
317.830765046368;134.763819989894
317.852385926158;134.714229071701
317.874006805948;134.767221710725
317.895627685738;134.943028764756
317.917248565529;135.208802198032
317.938869445319;135.532350450561
317.960490325109;135.92778006495
317.982111204899;136.431047695255
318.003732084689;137.010782559348
318.02535296448;137.554544087916
318.04697384427;138.008449201933
318.06859472406;138.368908729835
318.09021560385;138.65135823082
318.111836483641;138.857436040346
318.133457363431;138.982758412304
318.155078243221;139.030795781978
318.176699123011;139.020190916116
318.198320002801;138.964527320129
318.219940882592;138.876713013383
318.241561762382;138.775983125233
318.263182642172;138.690135478614
318.284803521962;138.653040324224
318.306424401753;138.693198623275
318.328045281543;138.832896107668
318.349666161333;139.071471466641
318.371287041123;139.39928926097
318.392907920913;139.784784949305
318.414528800704;140.171971836478
318.436149680494;140.535527701289
318.457770560284;140.863858642842
318.479391440074;141.157876003893
318.501012319864;141.410619959299
318.522633199655;141.584488567653
318.544254079445;141.638536383125
318.565874959235;141.57067996879
318.587495839025;141.380599442966
318.609116718816;141.062864948101
318.630737598606;140.639284677303
318.652358478396;140.142994804284
318.673979358186;139.611282292007
318.695600237976;139.046638820702
318.717221117767;138.446545571558
318.738841997557;137.830838295528
318.760462877347;137.246310324919
318.782083757137;136.744557699559
318.803704636927;136.337042473569
318.825325516718;136.002247115609
318.846946396508;135.740143653597
318.868567276298;135.564976883072
318.890188156088;135.477570332994
318.911809035879;135.474898107391
318.933429915669;135.571331440319
318.955050795459;135.760478617269
318.976671675249;135.994157319758
318.998292555039;136.256387917056
319.01991343483;136.538262690304
319.04153431462;136.800226243444
319.06315519441;137.016420943454
319.0847760742;137.183580609886
319.106396953991;137.306967996372
319.128017833781;137.370223272642
319.149638713571;137.364699597473
319.171259593361;137.300881234946
319.192880473151;137.193095328875
319.214501352942;137.057213458517
319.236122232732;136.904494252214
319.257743112522;136.748018959935
319.279363992312;136.613873798106
319.300984872102;136.538778377441
319.322605751893;136.535378461867
319.344226631683;136.585072333141
319.365847511473;136.671616779016
319.387468391263;136.800136564496
319.409089271054;136.963734782149
319.430710150844;137.139994303589
319.452331030634;137.293368884223
319.473951910424;137.403868605396
319.495572790214;137.46981926355
319.517193670005;137.494944678214
319.538814549795;137.485077789392
319.560435429585;137.451301168329
319.582056309375;137.402735215584
319.603677189165;137.336814191567
319.625298068956;137.259045059319
319.646918948746;137.186087860455
319.668539828536;137.134027434809
319.690160708326;137.105291736258
319.711781588117;137.100394027478
319.733402467907;137.118908030751
319.755023347697;137.157605983499
319.776644227487;137.209656085764
319.798265107277;137.27052299965
319.819885987068;137.330841798812
319.841506866858;137.373080547792
319.863127746648;137.363255887456
319.884748626438;137.303468209953
319.906369506228;137.193256687604
319.927990386019;137.017471716583
319.949611265809;136.772741463563
319.971232145599;136.471338442083
319.992853025389;136.109500603278
320.01447390518;135.68112366161
320.03609478497;135.205527369774
320.05771566476;134.706136186403
320.07933654455;134.207195804416
320.10095742434;133.733503800694
320.122578304131;133.289168178233
320.144199183921;132.877255751789
320.165820063711;132.505590934363
320.187440943501;132.184601201501
320.209061823292;131.918318412021
320.230682703082;131.705778152398
320.252303582872;131.541393226388
320.273924462662;131.425192691921
320.295545342452;131.370971158701
320.317166222243;131.385622392492
320.338787102033;131.450532996158
320.360407981823;131.543636419388
320.382028861613;131.659394063665
320.403649741404;131.805259555639
320.425270621194;131.999081233254
320.446891500984;132.234896417851
320.468512380774;132.488173046274
320.490133260564;132.751439615513
320.511754140355;133.028299815603
320.533375020145;133.338755517619
320.554995899935;133.708275141431
320.576616779725;134.16173301164
320.598237659515;134.705480501979
320.619858539306;135.334312337416
320.641479419096;136.075150468471
320.663100298886;136.894634598369
320.684721178676;137.704101088762
320.706342058467;138.483638210692
320.727962938257;139.242501241609
320.749583818047;139.983104870637
320.771204697837;140.69989672494
320.792825577627;141.389236035243
320.814446457418;141.989181773598
320.836067337208;142.381479956443
320.857688216998;142.549997861213
320.879309096788;142.561069213738
320.900929976578;142.442893924375
320.922550856369;142.209544221713
320.944171736159;141.891462375156
320.965792615949;141.508903418789
320.987413495739;141.07969188108
321.00903437553;140.612122320036
321.03065525532;140.134187369602
321.05227613511;139.692962119449
321.0738970149;139.32467727962
321.09551789469;139.040249188493
321.117138774481;138.842750859548
321.138759654271;138.734388476323
321.160380534061;138.711411799784
321.182001413851;138.755563769099
321.203622293642;138.856937660194
321.225243173432;139.019321498948
321.246864053222;139.255517613493
321.268484933012;139.558879068436
321.290105812802;139.906203367122
321.311726692593;140.298056903887
321.333347572383;140.736103355075
321.354968452173;141.205255677396
321.376589331963;141.677670861976
321.398210211753;142.138141624661
321.419831091544;142.59110968548
321.441451971334;143.04882943794
321.463072851124;143.51991543833
321.484693730914;143.971133769418
321.506314610705;144.330823021518
321.527935490495;144.569939423025
321.549556370285;144.704906681808
321.571177250075;144.758561305531
321.592798129865;144.735179097546
321.614419009656;144.623720470086
321.636039889446;144.401630438098
321.657660769236;144.057177261043
321.679281649026;143.642510732188
321.700902528816;143.200823260691
321.722523408607;142.730317796994
321.744144288397;142.229843332981
321.765765168187;141.704133193414
321.787386047977;141.163819863808
321.809006927768;140.648690082216
321.830627807558;140.19708791391
321.852248687348;139.811876977484
321.873869567138;139.480737024377
321.895490446928;139.205493201842
321.917111326719;138.994618561978
321.938732206509;138.857852215861
321.960353086299;138.792083346648
321.981973966089;138.788475070772
322.003594845879;138.838288125947
322.02521572567;138.935170993215
322.04683660546;139.076529132711
322.06845748525;139.237445151494
322.09007836504;139.393553399849
322.111699244831;139.538625578053
322.133320124621;139.656767488586
322.154941004411;139.73829492915
322.176561884201;139.770344805236
322.198182763991;139.754849184364
322.219803643782;139.682005470043
322.241424523572;139.547300700363
322.263045403362;139.310959440947
322.284666283152;139.007454046085
322.306287162943;138.699136994717
322.327908042733;138.37383329386
322.349528922523;138.034128049789
322.371149802313;137.698887306867
322.392770682103;137.374902216445
322.414391561894;137.052998783811
322.436012441684;136.742073691134
322.457633321474;136.4698531263
322.479254201264;136.24760517124
322.500875081055;136.060811702831
322.522495960845;135.895600220198
322.544116840635;135.744489647903
322.565737720425;135.615067849499
322.587358600215;135.504485947179
322.608979480006;135.408333280821
322.630600359796;135.318081171213
322.652221239586;135.222479304877
322.673842119376;135.111327190445
322.695462999166;134.975736493062
322.717083878957;134.813562067372
322.738704758747;134.621408916038
322.760325638537;134.38533452933
322.781946518327;134.083894908869
322.803567398118;133.713806446921
322.825188277908;133.254903948751
322.846809157698;132.706314616317
322.868430037488;132.119984652699
322.890050917278;131.545232425664
322.911671797069;130.957189394667
322.933292676859;130.32220681662
322.954913556649;129.627655322927
322.976534436439;128.977764854394
322.998155316229;128.462176146859
323.01977619602;128.067198795741
323.04139707581;127.774186269818
323.0630179556;127.573087354657
323.08463883539;127.461845305594
323.106259715181;127.432007055655
323.127880594971;127.468479648543
323.149501474761;127.543930409566
323.171122354551;127.620899210853
323.192743234341;127.670753911245
323.214364114132;127.65972281077
323.235984993922;127.56545412572
323.257605873712;127.376265929861
323.279226753502;127.095959651402
323.300847633293;126.733881124264
323.322468513083;126.282164864599
323.344089392873;125.757584165921
323.365710272663;125.200850967932
323.387331152453;124.638692392284
323.408952032244;124.058275718843
323.430572912034;123.443338550572
323.452193791824;122.797445358216
323.473814671614;122.213021504981
323.495435551404;121.711278796061
323.517056431195;121.258127919094
323.538677310985;120.785143896718
323.560298190775;120.252487620275
323.581919070565;119.649979367983
323.603539950356;119.058740550208
323.625160830146;118.465848649191
323.646781709936;117.81423125217
323.668402589726;117.086068981298
323.690023469516;116.319445755355
323.711644349307;115.52298336262
323.733265229097;114.6856875345
323.754886108887;113.813182027463
323.776506988677;112.924895225802
323.798127868467;112.016168191416
323.819748748258;111.069397922626
323.841369628048;110.159683141734
323.862990507838;109.331211492059
323.884611387628;108.532394167342
323.906232267419;107.703448934475
323.927853147209;106.892758374841
323.949474026999;106.128108883667
323.971094906789;105.396833633355
323.992715786579;104.722615719344
324.01433666637;104.11346841447
324.03595754616;103.535367756476
324.05757842595;102.951790265458
324.07919930574;102.37254046443
324.10082018553;101.818056938922
324.122441065321;101.283550224795
324.144061945111;100.706051688571
324.165682824901;100.056849840996
324.187303704691;99.4147958067783
324.208924584482;98.8015380034251
324.230545464272;98.1819454929432
324.252166344062;97.5492739643292
324.273787223852;96.9311300172771
324.295408103642;96.3255072898848
324.317028983433;95.7028960834888
324.338649863223;95.0191204036952
324.360270743013;94.2684973233414
324.381891622803;93.5020625131186
324.403512502594;92.7765091357912
324.425133382384;92.0898476612404
324.446754262174;91.4170599276329
324.468375141964;90.744934871732
324.489996021754;90.0779545047007
324.511616901545;89.3850477703938
324.533237781335;88.6318087473339
324.554858661125;87.8574934409765
324.576479540915;87.1277289839684
324.598100420705;86.4594366840128
324.619721300496;85.8124271994785
324.641342180286;85.1324716108669
324.662963060076;84.3790279444255
324.684583939866;83.522082914934
324.706204819657;82.566909260181
324.727825699447;81.5451862008591
324.749446579237;80.5427471280988
