Name;ESR_BC_1_359s_Y_gon_80dg_result

Recipe
Accumulations;5;Number of accumulations
RetryCount;0;Number of retries on error
AbortOnError;True;Abort on error
EnableQFactorMeasurement;False;Enable/Disable q-Factor measurement
Bfrom;313;B from
Bto;363;B to
SweepTime;60;Sweep time
Modulation;0.2;Modulation
ModulationFreq;100;Modulation
BHoldEnabled;False;B hold enabled
BHold;0;B hold
MicrowavePower;2;Microwave power
MarkerEnabled;False;
MarkerStartField;0;
MarkerEndField;0;
Mode;;
KineticGFact;0;
KineticTotalTransientTime;0;
KineticTimeResolution;0;
TempFrom;5;
TempUseSlope;False;
TempTo;5;
TempdT;1;
TempSetupTime;0;
GonFrom;0;
GonTo;180;
GonSteps;20;
XRayEnabled;False;
XRayTime;3;
XRayVoltage;40;
XRayCurrent;0.5;
UVEnabled;False;
UVIntensity;0;
UVTime;0;
UVLeadTime;0;
UVWavelength;0;
PowSweepFrom;1;
PowSweepTo;5;
PowSweepSteps;5;
AmpModSweepFrom;0;
AmpModSweepTo;1;
AmpModSweepSteps;10;
ExtTriggerEnabled;False;
ExtTrigLeadTime;0;
ExtTrigOnTime;5;

Meas
BField [mT];MW_Absorption []
313.033935317993;154.153363494424
313.055558059692;153.650906932511
313.077180801392;153.118179501285
313.098803543091;152.576865676135
313.12042628479;152.002071113107
313.142049026489;151.397367083433
313.163671768188;150.808244842034
313.185294509888;150.2647357855
313.206917251587;149.775557176095
313.228539993286;149.334614509049
313.250162734985;148.939161570034
313.271785476685;148.60065333492
313.293408218384;148.321784414645
313.315030960083;148.093690094967
313.336653701782;147.916358766636
313.358276443481;147.786526753807
313.379899185181;147.696748253816
313.40152192688;147.637964720199
313.423144668579;147.598932031788
313.444767410278;147.568509036251
313.466390151978;147.552603416385
313.488012893677;147.563820672946
313.509635635376;147.60734529563
313.531258377075;147.687933312572
313.552881118774;147.800687496128
313.574503860474;147.938221971609
313.596126602173;148.092632869338
313.617749343872;148.261033077742
313.639372085571;148.433067418851
313.66099482727;148.604037071842
313.68261756897;148.778483812501
313.704240310669;148.957544025604
313.725863052368;149.123753645299
313.747485794067;149.249408560216
313.769108535767;149.327645462013
313.790731277466;149.358875584687
313.812354019165;149.342563563389
313.833976760864;149.270633562385
313.855599502563;149.140591136172
313.877222244263;148.957091037099
313.898844985962;148.724940706757
313.920467727661;148.459007382987
313.94209046936;148.175710506441
313.96371321106;147.883530149221
313.985335952759;147.58256279837
314.006958694458;147.267068903012
314.028581436157;146.939535049381
314.050204177856;146.618924669049
314.071826919556;146.324748139759
314.093449661255;146.065362214658
314.115072402954;145.843707237005
314.136695144653;145.661666023223
314.158317886353;145.522647184421
314.179940628052;145.433024648179
314.201563369751;145.392754631061
314.22318611145;145.398077424875
314.244808853149;145.446878188784
314.266431594849;145.540733372543
314.288054336548;145.681760312921
314.309677078247;145.869530783055
314.331299819946;146.098063483152
314.352922561645;146.358735837784
314.374545303345;146.652654806727
314.396168045044;146.981308784533
314.417790786743;147.342715623765
314.439413528442;147.727767193221
314.461036270142;148.119519719308
314.482659011841;148.509595861191
314.50428175354;148.892773995679
314.525904495239;149.268960877853
314.547527236938;149.626310025452
314.569149978638;149.950351181368
314.590772720337;150.245430063682
314.612395462036;150.510431673643
314.634018203735;150.738726361487
314.655640945435;150.91661442673
314.677263687134;151.03541910186
314.698886428833;151.096504139508
314.720509170532;151.103583606196
314.742131912231;151.058291161907
314.763754653931;150.952571753268
314.78537739563;150.773722465167
314.807000137329;150.520156436824
314.828622879028;150.214662223656
314.850245620728;149.889755361131
314.871868362427;149.559507133603
314.893491104126;149.228867661035
314.915113845825;148.905246991592
314.936736587524;148.597796083612
314.958359329224;148.32200772759
314.979982070923;148.091599193073
315.001604812622;147.905319960463
315.023227554321;147.753811437734
315.044850296021;147.640440690953
315.06647303772;147.565913932015
315.088095779419;147.52564384566
315.109718521118;147.503452973866
315.131341262817;147.485548942115
315.152964004517;147.478893502884
315.174586746216;147.481633526751
315.196209487915;147.475946142977
315.217832229614;147.447434893398
315.239454971313;147.397549556532
315.261077713013;147.319205478433
315.282700454712;147.193912558738
315.304323196411;147.021575738484
315.32594593811;146.810014191311
315.34756867981;146.56833645311
315.369191421509;146.302289077558
315.390814163208;145.996706014103
315.412436904907;145.648526399378
315.434059646606;145.282878934697
315.455682388306;144.921983368165
315.477305130005;144.554773311023
315.498927871704;144.183420513898
315.520550613403;143.819186659181
315.542173355103;143.471458327977
315.563796096802;143.14035263003
315.585418838501;142.817980261373
315.6070415802;142.491416530813
315.628664321899;142.16025521607
315.650287063599;141.83912097696
315.671909805298;141.53065764718
315.693532546997;141.228571546139
315.715155288696;140.923223021388
315.736778030396;140.63227776054
315.758400772095;140.385497313076
315.780023513794;140.188373724903
315.801646255493;140.045170680997
315.823268997192;139.95990673842
315.844891738892;139.930267453714
315.866514480591;139.954211474568
315.88813722229;140.030103541405
315.909759963989;140.141934245715
315.931382705688;140.27212542568
315.953005447388;140.414729216648
315.974628189087;140.5575745166
315.996250930786;140.690870392343
316.017873672485;140.809990759556
316.039496414185;140.910858268591
316.061119155884;140.989911043179
316.082741897583;141.047685801472
316.104364639282;141.091687322397
316.125987380981;141.132376801919
316.147610122681;141.177663413481
316.16923286438;141.235174755879
316.190855606079;141.314597556164
316.212478347778;141.416912899844
316.234101089478;141.53430739659
316.255723831177;141.665649704435
316.277346572876;141.814271612472
316.298969314575;141.973447292549
316.320592056274;142.126734192076
316.342214797974;142.268384650593
316.363837539673;142.396514571451
316.385460281372;142.505220904971
316.407083023071;142.585755684936
316.42870576477;142.630721438699
316.45032850647;142.634001069002
316.471951248169;142.599359460155
316.493573989868;142.532569411891
316.515196731567;142.437527404667
316.536819473267;142.314409980956
316.558442214966;142.162847908215
316.580064956665;141.988835813683
316.601687698364;141.808580960498
316.623310440063;141.63467606594
316.644933181763;141.47492624316
316.666555923462;141.331584062986
316.688178665161;141.210387250153
316.70980140686;141.12274952261
316.73142414856;141.069710823828
316.753046890259;141.040575133519
316.774669631958;141.032276497132
316.796292373657;141.050226144546
316.817915115356;141.095496597133
316.839537857056;141.161901383913
316.861160598755;141.239241088889
316.882783340454;141.317110615732
316.904406082153;141.400020390085
316.926028823853;141.501386308781
316.947651565552;141.602854075659
316.969274307251;141.690478116323
316.99089704895;141.758951100559
317.012519790649;141.797728083983
317.034142532349;141.817126416246
317.055765274048;141.817738715114
317.077388015747;141.803472962671
317.099010757446;141.784006553185
317.120633499145;141.762747872616
317.142256240845;141.739878343676
317.163878982544;141.717050165981
317.185501724243;141.693666206117
317.207124465942;141.66859139758
317.228747207642;141.646133924081
317.250369949341;141.63136077529
317.27199269104;141.61802921321
317.293615432739;141.596915712954
317.315238174438;141.575913935453
317.336860916138;141.562110961018
317.358483657837;141.554968697022
317.380106399536;141.556990474816
317.401729141235;141.57609837373
317.423351882935;141.624361546324
317.444974624634;141.702582949864
317.466597366333;141.802846665466
317.488220108032;141.924354630684
317.509842849731;142.055859657726
317.531465591431;142.190918380763
317.55308833313;142.327643013761
317.574711074829;142.45108291374
317.596333816528;142.535477911475
317.617956558228;142.571962249233
317.639579299927;142.557571103803
317.661202041626;142.493424224875
317.682824783325;142.38141428219
317.704447525024;142.227813093102
317.726070266724;142.036191355389
317.747693008423;141.805880367176
317.769315750122;141.541347490565
317.790938491821;141.253043176766
317.812561233521;140.946780020261
317.83418397522;140.622705581113
317.855806716919;140.28331680956
317.877429458618;139.939954129954
317.899052200317;139.6018045349
317.920674942017;139.267238675365
317.942297683716;138.929561631411
317.963920425415;138.591293516141
317.985543167114;138.267421524723
318.007165908813;137.968512630325
318.028788650513;137.696916417777
318.050411392212;137.443177277386
318.072034133911;137.195016913563
318.09365687561;136.956941999095
318.11527961731;136.750825045359
318.136902359009;136.574625749261
318.158525100708;136.413856450348
318.180147842407;136.262776089853
318.201770584106;136.120572672335
318.223393325806;135.984365565671
318.245016067505;135.850067457437
318.266638809204;135.714130584482
318.288261550903;135.578507826166
318.309884292603;135.450206655015
318.331507034302;135.326744448111
318.353129776001;135.203099069089
318.3747525177;135.07796793931
318.396375259399;134.944668300015
318.417998001099;134.794650744826
318.439620742798;134.624006688306
318.461243484497;134.431134944044
318.482866226196;134.215308294591
318.504488967896;133.97808331487
318.526111709595;133.724545606466
318.547734451294;133.468227274915
318.569357192993;133.229649026919
318.590979934692;133.011911861919
318.612602676392;132.798838431611
318.634225418091;132.583267486111
318.65584815979;132.377667899505
318.677470901489;132.18032680697
318.699093643188;131.984059595417
318.720716384888;131.778120896291
318.742339126587;131.546311460408
318.763961868286;131.278339952684
318.785584609985;130.975194630856
318.807207351685;130.637416971694
318.828830093384;130.25696244307
318.850452835083;129.825277839543
318.872075576782;129.342394334423
318.893698318481;128.812755356876
318.915321060181;128.253581463029
318.93694380188;127.665296798346
318.958566543579;127.032742893807
318.980189285278;126.340775267193
319.001812026978;125.618627879053
319.023434768677;124.909712254739
319.045057510376;124.216191324515
319.066680252075;123.532270459544
319.088302993774;122.874844769038
319.109925735474;122.254671386731
319.131548477173;121.673426158136
319.153171218872;121.122539862864
319.174793960571;120.587975998175
319.19641670227;120.074383951021
319.21803944397;119.585775964351
319.239662185669;119.119587802095
319.261284927368;118.65804356561
319.282907669067;118.192127160408
319.304530410767;117.741870617949
319.326153152466;117.318427874187
319.347775894165;116.927064511934
319.369398635864;116.570489716809
319.391021377563;116.248283433443
319.412644119263;115.964992202137
319.434266860962;115.723015376105
319.455889602661;115.512785748916
319.47751234436;115.311655951961
319.49913508606;115.121722013407
319.520757827759;114.942493209547
319.542380569458;114.759785433636
319.564003311157;114.566099467126
319.585626052856;114.352557951365
319.607248794556;114.108783156186
319.628871536255;113.831222872706
319.650494277954;113.514428927275
319.672117019653;113.146122213958
319.693739761353;112.716548140127
319.715362503052;112.24078602703
319.736985244751;111.75195232202
319.75860798645;111.267180758614
319.780230728149;110.786774983247
319.801853469849;110.315726572651
319.823476211548;109.855702349235
319.845098953247;109.406269099918
319.866721694946;108.964485619019
319.888344436645;108.526065820778
319.909967178345;108.08898810561
319.931589920044;107.657149259644
319.953212661743;107.230266188847
319.974835403442;106.779125229612
319.996458145142;106.274444466677
320.018080886841;105.716376458541
320.03970362854;105.127505388707
320.061326370239;104.52105885139
320.082949111938;103.89756456906
320.104571853638;103.249054033644
320.126194595337;102.566278286669
320.147817337036;101.877833855651
320.169440078735;101.231283821483
320.191062820435;100.640035269649
320.212685562134;100.105734196012
320.234308303833;99.6383260100888
320.255931045532;99.2408620736086
320.277553787231;98.8982566662959
320.299176528931;98.593708305611
320.32079927063;98.3199442867862
320.342422012329;98.0881149609996
320.364044754028;97.9032443378284
320.385667495728;97.7523159316626
320.407290237427;97.6195443749686
320.428912979126;97.4965140514541
320.450535720825;97.3826042380376
320.472158462524;97.2825854968421
320.493781204224;97.1999610360911
320.515403945923;97.1323054331353
320.537026687622;97.0714712624918
320.558649429321;97.0089265112405
320.580272171021;96.9438466013258
320.60189491272;96.8728118969968
320.623517654419;96.7843926599841
320.645140396118;96.6660032537933
320.666763137817;96.5106874886902
320.688385879517;96.3231152032893
320.710008621216;96.1037285867274
320.731631362915;95.8330108785136
320.753254104614;95.5088409292762
320.774876846313;95.1593801972901
320.796499588013;94.7967315910705
320.818122329712;94.4177098404433
320.839745071411;94.0274921780676
320.86136781311;93.6393629305381
320.88299055481;93.2726153130769
320.904613296509;92.9437992276796
320.926236038208;92.659339708421
320.947858779907;92.4218591464301
320.969481521606;92.2375010775223
320.991104263306;92.1148402437432
321.012727005005;92.0555644472483
321.034349746704;92.049116961751
321.055972488403;92.0960237246534
321.077595230103;92.1949254460372
321.099217971802;92.3271007533738
321.120840713501;92.4721441497558
321.1424634552;92.6229097798285
321.164086196899;92.7724380350479
321.185708938599;92.9053655145407
321.207331680298;93.0084934261063
321.228954421997;93.0734887967868
321.250577163696;93.096212934816
321.272199905396;93.0777096828546
321.293822647095;93.0185342706866
321.315445388794;92.9176953414708
321.337068130493;92.7762638772654
321.358690872192;92.5937809861018
321.380313613892;92.3680286074266
321.401936355591;92.1025764310936
321.42355909729;91.8065072327584
321.445181838989;91.498643226077
321.466804580688;91.1984519685996
321.488427322388;90.8962579768266
321.510050064087;90.5919261098902
321.531672805786;90.3106264296681
321.553295547485;90.0650558421784
321.574918289185;89.8547864607195
321.596541030884;89.6765014878923
321.618163772583;89.5260629463684
321.639786514282;89.40250063621
321.661409255981;89.3099962713886
321.683031997681;89.2494067607721
321.70465473938;89.2118103650389
321.726277481079;89.1874368015845
321.747900222778;89.1652993366232
321.769522964478;89.1348143897085
321.791145706177;89.0969160750741
321.812768447876;89.0462049382847
321.834391189575;88.9733754936911
321.856013931274;88.8614800339719
321.877636672974;88.6943865242345
321.899259414673;88.4689426185362
321.920882156372;88.1826646049621
321.942504898071;87.8303995659751
321.96412763977;87.4195139807466
321.98575038147;86.9446222462397
322.007373123169;86.3836181375207
322.028995864868;85.7385420378308
322.050618606567;85.0426326230213
322.072241348267;84.3073364598993
322.093864089966;83.5344089843688
322.115486831665;82.7412344662629
322.137109573364;81.982583957253
322.158732315063;81.3135479906364
322.180355056763;80.7463368111711
322.201977798462;80.2722349459024
322.223600540161;79.8784083197319
322.24522328186;79.5644552149994
322.26684602356;79.3320000413069
322.288468765259;79.195880357047
322.310091506958;79.162214955831
322.331714248657;79.2170024073142
322.353336990356;79.3458253064632
322.374959732056;79.5357684494374
322.396582473755;79.7613112067965
322.418205215454;80.0161425361736
322.439827957153;80.2981991726395
322.461450698853;80.5898335629442
322.483073440552;80.8757956472072
322.504696182251;81.1511791458321
322.52631892395;81.4185933574459
322.547941665649;81.6752178851105
322.569564407349;81.9176192503516
322.591187149048;82.1378269600722
322.612809890747;82.3388703199512
322.634432632446;82.5287625248748
322.656055374145;82.7166264513328
322.677678115845;82.9037033136872
322.699300857544;83.0905409431107
322.720923599243;83.2784973440679
322.742546340942;83.4557874353365
322.764169082642;83.6097402847351
322.785791824341;83.7479604211294
322.80741456604;83.8749613611638
322.829037307739;83.9829079258917
322.850660049438;84.0647134915124
322.872282791138;84.1230115035724
322.893905532837;84.165243828159
322.915528274536;84.2039122495692
322.937151016235;84.2531534248822
322.958773757935;84.3239581372843
322.980396499634;84.4165356907905
323.002019241333;84.53237459097
323.023641983032;84.6784299433833
323.045264724731;84.8752016430207
323.066887466431;85.1330971276298
323.08851020813;85.4438626462942
323.110132949829;85.8044660216199
323.131755691528;86.2061616575423
323.153378433228;86.6206763988029
323.175001174927;87.0378138351754
323.196623916626;87.464994644323
323.218246658325;87.8999536656232
323.239869400024;88.3266725768553
323.261492141724;88.7262145550397
323.283114883423;89.0715732313236
323.304737625122;89.3639421140908
323.326360366821;89.6093751510311
323.347983108521;89.8009882419316
323.36960585022;89.9337924606564
323.391228591919;90.00853342671
323.412851333618;90.0387665749488
323.434474075317;90.0309070176321
323.456096817017;89.9877184800254
323.477719558716;89.9200729246562
323.499342300415;89.8466013917933
323.520965042114;89.7685897199671
323.542587783813;89.6805309236709
323.564210525513;89.5851227797782
323.585833267212;89.4888420402116
323.607456008911;89.4023953674955
323.62907875061;89.3321435699409
323.65070149231;89.2812195643945
323.672324234009;89.2492244411916
323.693946975708;89.2327874653031
323.715569717407;89.2228156281578
323.737192459106;89.2111307375308
323.758815200806;89.1934858738907
323.780437942505;89.1698239295294
323.802060684204;89.1414341034107
323.823683425903;89.1024293483263
323.845306167603;89.036726315636
323.866928909302;88.92443683762
323.888551651001;88.7677197240573
323.9101743927;88.5710777721568
323.931797134399;88.3359429540634
323.953419876099;88.058790142204
323.975042617798;87.737439299816
323.996665359497;87.3942708581361
324.018288101196;87.0592553426212
324.039910842895;86.7417972217049
324.061533584595;86.4390191733222
324.083156326294;86.151176734645
324.104779067993;85.8912084058342
324.126401809692;85.6773201238664
324.148024551392;85.5266775616322
324.169647293091;85.428634121963
324.19127003479;85.3710147596353
324.212892776489;85.3562790573856
324.234515518188;85.3807702352564
324.256138259888;85.4405353041979
324.277761001587;85.533741547729
324.299383743286;85.662336156437
324.321006484985;85.8155680168606
324.342629226685;85.9724096634921
324.364251968384;86.1240887566193
324.385874710083;86.2663122683733
324.407497451782;86.3948059125497
324.429120193481;86.5038514947438
324.450742935181;86.5942965919626
324.47236567688;86.6602002559946
324.493988418579;86.6962208710329
324.515611160278;86.7046117848312
324.537233901978;86.6874389596764
324.558856643677;86.6445087443335
324.580479385376;86.5842037513993
324.602102127075;86.5183080124047
324.623724868774;86.4513042713583
324.645347610474;86.3858398843632
324.666970352173;86.319339566457
324.688593093872;86.2404676300445
324.710215835571;86.1438945703514
324.73183857727;86.0398272277565
324.75346131897;85.9278200825331
324.775084060669;85.7975680520177
324.796706802368;85.6425634784118
