Name;ESR_BC_1_359s_Y_gon_180dg_result

Recipe
Accumulations;5;Number of accumulations
RetryCount;0;Number of retries on error
AbortOnError;True;Abort on error
EnableQFactorMeasurement;False;Enable/Disable q-Factor measurement
Bfrom;313;B from
Bto;363;B to
SweepTime;60;Sweep time
Modulation;0.2;Modulation
ModulationFreq;100;Modulation
BHoldEnabled;False;B hold enabled
BHold;0;B hold
MicrowavePower;2;Microwave power
MarkerEnabled;False;
MarkerStartField;0;
MarkerEndField;0;
Mode;;
KineticGFact;0;
KineticTotalTransientTime;0;
KineticTimeResolution;0;
TempFrom;5;
TempUseSlope;False;
TempTo;5;
TempdT;1;
TempSetupTime;0;
GonFrom;0;
GonTo;180;
GonSteps;20;
XRayEnabled;False;
XRayTime;3;
XRayVoltage;40;
XRayCurrent;0.5;
UVEnabled;False;
UVIntensity;0;
UVTime;0;
UVLeadTime;0;
UVWavelength;0;
PowSweepFrom;1;
PowSweepTo;5;
PowSweepSteps;5;
AmpModSweepFrom;0;
AmpModSweepTo;1;
AmpModSweepSteps;10;
ExtTriggerEnabled;False;
ExtTrigLeadTime;0;
ExtTrigOnTime;5;

Meas
BField [mT];MW_Absorption []
313.017115402222;186.71521023154
313.038738436976;186.444459262344
313.060361471729;185.984533930223
313.081984506483;185.439075863428
313.103607541237;184.817463345298
313.125230575991;184.140278130076
313.146853610745;183.404022539463
313.168476645499;182.585910972967
313.190099680252;181.699416179951
313.211722715006;180.790794124937
313.23334574976;179.866692770312
313.254968784514;178.910952747847
313.276591819268;177.918395821321
313.298214854022;176.909406506672
313.319837888775;175.925047978747
313.341460923529;174.994645041916
313.363083958283;174.130748296665
313.384706993037;173.34911911769
313.406330027791;172.687622439254
313.427953062545;172.18023176647
313.449576097299;171.793950826096
313.471199132052;171.49620824059
313.492822166806;171.289128214152
313.51444520156;171.191520592821
313.536068236314;171.193087633029
313.557691271068;171.266256178309
313.579314305822;171.423646156537
313.600937340575;171.671812968819
313.622560375329;171.964665233644
313.644183410083;172.265375765406
313.665806444837;172.556071599321
313.687429479591;172.818866844569
313.709052514345;173.026277972997
313.730675549098;173.158849342213
313.752298583852;173.212469596094
313.773921618606;173.184736018008
313.79554465336;173.065100604875
313.817167688114;172.851178555586
313.838790722868;172.557848944762
313.860413757621;172.1946087702
313.882036792375;171.763043863682
313.903659827129;171.275400301065
313.925282861883;170.749911963059
313.946905896637;170.198818226145
313.968528931391;169.625867121587
313.990151966145;169.034439429715
314.011775000898;168.438169980049
314.033398035652;167.8518507587
314.055021070406;167.275828840168
314.07664410516;166.711173106232
314.098267139914;166.175167703533
314.119890174668;165.682925786903
314.141513209421;165.229599467607
314.163136244175;164.813318877712
314.184759278929;164.433500520901
314.206382313683;164.091371337812
314.228005348437;163.786669364978
314.249628383191;163.51378039282
314.271251417944;163.263420398689
314.292874452698;163.025861152197
314.314497487452;162.782080827955
314.336120522206;162.519520299819
314.35774355696;162.245515943209
314.379366591714;161.966732989284
314.400989626467;161.680738817153
314.422612661221;161.388356997621
314.444235695975;161.097326397663
314.465858730729;160.822367660601
314.487481765483;160.571983894475
314.509104800237;160.352666553717
314.530727834991;160.172638452447
314.552350869744;160.025062765561
314.573973904498;159.909573379638
314.595596939252;159.826070097059
314.617219974006;159.758759935041
314.63884300876;159.699610199057
314.660466043514;159.650288126806
314.682089078267;159.599447495605
314.703712113021;159.531880213379
314.725335147775;159.441163166121
314.746958182529;159.325358445815
314.768581217283;159.188153135238
314.790204252037;159.024360357754
314.81182728679;158.823825984181
314.833450321544;158.590946179062
314.855073356298;158.3410369579
314.876696391052;158.085344272489
314.898319425806;157.816893733085
314.91994246056;157.525103148643
314.941565495314;157.211214729812
314.963188530067;156.882487645029
314.984811564821;156.552808800292
315.006434599575;156.225994440624
315.028057634329;155.893889438367
315.049680669083;155.554817588362
315.071303703837;155.224621617322
315.09292673859;154.913756978281
315.114549773344;154.618128711414
315.136172808098;154.330214032989
315.157795842852;154.042395697628
315.179418877606;153.750242205247
315.20104191236;153.44697152858
315.222664947113;153.123797451428
315.244287981867;152.785269244079
315.265911016621;152.436472302322
315.287534051375;152.073200624578
315.309157086129;151.694060335975
315.330780120883;151.302372196835
315.352403155636;150.894257542509
315.37402619039;150.469319270967
315.395649225144;150.032665187665
315.417272259898;149.584239225763
315.438895294652;149.128336326416
315.460518329406;148.682188201547
315.48214136416;148.268802072418
315.503764398913;147.891400373645
315.525387433667;147.531595722195
315.547010468421;147.177216442513
315.568633503175;146.834524769383
315.590256537929;146.513693439134
315.611879572683;146.211271502523
315.633502607436;145.913157677725
315.65512564219;145.601257339613
315.676748676944;145.282531015485
315.698371711698;144.95801414836
315.719994746452;144.622873535328
315.741617781206;144.28969171519
315.763240815959;143.973645268487
315.784863850713;143.675358273354
315.806486885467;143.383221981805
315.828109920221;143.105304267625
315.849732954975;142.845741864186
315.871355989729;142.606797942518
315.892979024482;142.399339068712
315.914602059236;142.231713057507
315.93622509399;142.109035488324
315.957848128744;142.034602787671
315.979471163498;142.013056326805
316.001094198252;142.047017684818
316.022717233006;142.132322648452
316.044340267759;142.265752973074
316.065963302513;142.453743343061
316.087586337267;142.707583799807
316.109209372021;143.02191741596
316.130832406775;143.363256125313
316.152455441529;143.705511025087
316.174078476282;144.043433033308
316.195701511036;144.374386007536
316.21732454579;144.686890157311
316.238947580544;144.96859300765
316.260570615298;145.203414861131
316.282193650052;145.371667422558
316.303816684806;145.468709597753
316.325439719559;145.502848939198
316.347062754313;145.479823446759
316.368685789067;145.393184153108
316.390308823821;145.23723606645
316.411931858575;145.024402414951
316.433554893329;144.766275667187
316.455177928082;144.471746218121
316.476800962836;144.148450755264
316.49842399759;143.805117521257
316.520047032344;143.452963282699
316.541670067098;143.103150950087
316.563293101852;142.756959204538
316.584916136605;142.411900442149
316.606539171359;142.068204660857
316.628162206113;141.741078750361
316.649785240867;141.448407515985
316.671408275621;141.191746524924
316.693031310375;140.9641928993
316.714654345128;140.76696699421
316.736277379882;140.59860738393
316.757900414636;140.448229573481
316.77952344939;140.31114716479
316.801146484144;140.190000902709
316.822769518898;140.079650907858
316.844392553652;139.975776249246
316.866015588405;139.877184965036
316.887638623159;139.777132437191
316.909261657913;139.676431951927
316.930884692667;139.574445295881
316.952507727421;139.466436384194
316.974130762175;139.350250465691
316.995753796928;139.221791130108
317.017376831682;139.079030153042
317.038999866436;138.918860107435
317.06062290119;138.740172738262
317.082245935944;138.544637331453
317.103868970698;138.333016004194
317.125492005451;138.120193668236
317.147115040205;137.911027139666
317.168738074959;137.707079513083
317.190361109713;137.519817339866
317.211984144467;137.358411107306
317.233607179221;137.222649577009
317.255230213974;137.107586940662
317.276853248728;137.008963176831
317.298476283482;136.930380076389
317.320099318236;136.879697391025
317.34172235299;136.852765714427
317.363345387744;136.839400559067
317.384968422498;136.830650944618
317.406591457251;136.821933004583
317.428214492005;136.811973055179
317.449837526759;136.798962301143
317.471460561513;136.776397414628
317.493083596267;136.732258181197
317.514706631021;136.674351950346
317.536329665774;136.615911513509
317.557952700528;136.551227547904
317.579575735282;136.473038029329
317.601198770036;136.378023465663
317.62282180479;136.267796708863
317.644444839544;136.142415343693
317.666067874297;135.989914727998
317.687690909051;135.801913990301
317.709313943805;135.573856208382
317.730936978559;135.302575672366
317.752560013313;134.986461665351
317.774183048067;134.625204970081
317.79580608282;134.218025924053
317.817429117574;133.760813601766
317.839052152328;133.27192014181
317.860675187082;132.784540504346
317.882298221836;132.318363645918
317.90392125659;131.880794367447
317.925544291344;131.471164336529
317.947167326097;131.091110984726
317.968790360851;130.745573313718
317.990413395605;130.433629402176
318.012036430359;130.153962927042
318.033659465113;129.921785479332
318.055282499867;129.754831873866
318.07690553462;129.645640266365
318.098528569374;129.586416640262
318.120151604128;129.569370069477
318.141774638882;129.586064049201
318.163397673636;129.63237433783
318.18502070839;129.707579486647
318.206643743143;129.808403751351
318.228266777897;129.931562202125
318.249889812651;130.07224673629
318.271512847405;130.224276402915
318.293135882159;130.384618585844
318.314758916913;130.550044712998
318.336381951667;130.710447087589
318.35800498642;130.849678807444
318.379628021174;130.958493285726
318.401251055928;131.03174074011
318.422874090682;131.060570834604
318.444497125436;131.039014577392
318.46612016019;130.957136436749
318.487743194943;130.805005929601
318.509366229697;130.580039409133
318.530989264451;130.28730095099
318.552612299205;129.932555553374
318.574235333959;129.524510862567
318.595858368713;129.060131424257
318.617481403466;128.558542481599
318.63910443822;128.04245868018
318.660727472974;127.514127157702
318.682350507728;126.996142492321
318.703973542482;126.52075303041
318.725596577236;126.079925708689
318.747219611989;125.665033302642
318.768842646743;125.268542685709
318.790465681497;124.885876361904
318.812088716251;124.522076993485
318.833711751005;124.183376728492
318.855334785759;123.856632427346
318.876957820513;123.538471416439
318.898580855266;123.236621241829
318.92020389002;122.947676806325
318.941826924774;122.659429381097
318.963449959528;122.364658498561
318.985072994282;122.065366813108
319.006696029036;121.763103553031
319.028319063789;121.459600821322
319.049942098543;121.165822311998
319.071565133297;120.888807484919
319.093188168051;120.630515661126
319.114811202805;120.389957116707
319.136434237559;120.177458044524
319.158057272312;119.999701813659
319.179680307066;119.857683732397
319.20130334182;119.746667073299
319.222926376574;119.657098644387
319.244549411328;119.56644384359
319.266172446082;119.465690792181
319.287795480835;119.35112946487
319.309418515589;119.216251941012
319.331041550343;119.050817228474
319.352664585097;118.860656742149
319.374287619851;118.654103476827
319.395910654605;118.422831592391
319.417533689359;118.148579240112
319.439156724112;117.831831987683
319.460779758866;117.51829449747
319.48240279362;117.221087163735
319.504025828374;116.928759864288
319.525648863128;116.633824705434
319.547271897882;116.342797196113
319.568894932635;116.048487385109
319.590517967389;115.733133235607
319.612141002143;115.395958094273
319.633764036897;115.043693906685
319.655387071651;114.668976505486
319.677010106405;114.26810237177
319.698633141159;113.857850011699
319.720256175912;113.445814362958
319.741879210666;113.021139019173
319.76350224542;112.576790794154
319.785125280174;112.12667205096
319.806748314928;111.695688535766
319.828371349682;111.294057169473
319.849994384435;110.924444731733
319.871617419189;110.596980695524
319.893240453943;110.317664813532
319.914863488697;110.078055161677
319.936486523451;109.866035757157
319.958109558205;109.674760332025
319.979732592958;109.505040522939
320.001355627712;109.359001876121
320.022978662466;109.23296346962
320.04460169722;109.119648679061
320.066224731974;109.01392540084
320.087847766728;108.921271318126
320.109470801481;108.847885047989
320.131093836235;108.787390962232
320.152716870989;108.727332543467
320.174339905743;108.6629386502
320.195962940497;108.612152737846
320.217585975251;108.590133058523
320.239209010005;108.589928002081
320.260832044758;108.588689811309
320.282455079512;108.578164434114
320.304078114266;108.554040899201
320.32570114902;108.512153717662
320.347324183774;108.447551600737
320.368947218528;108.357130178492
320.390570253281;108.243699789154
320.412193288035;108.111581078179
320.433816322789;107.968279415171
320.455439357543;107.815916679173
320.477062392297;107.649769472013
320.498685427051;107.47221184276
320.520308461804;107.304124689553
320.541931496558;107.166675863716
320.563554531312;107.063343715819
320.585177566066;106.995825377085
320.60680060082;106.970757949506
320.628423635574;106.985967583284
320.650046670327;107.02992908217
320.671669705081;107.097956447273
320.693292739835;107.200491793206
320.714915774589;107.331408557532
320.736538809343;107.459456436109
320.758161844097;107.570285040004
320.779784878851;107.657928394764
320.801407913604;107.719122620921
320.823030948358;107.757268411432
320.844653983112;107.777813068884
320.866277017866;107.781360289082
320.88790005262;107.764894799847
320.909523087374;107.730132445712
320.931146122127;107.688760481946
320.952769156881;107.65054143871
320.974392191635;107.626452833906
320.996015226389;107.625735412184
321.017638261143;107.653959492805
321.039261295897;107.713805251606
321.06088433065;107.805705205147
321.082507365404;107.924354525265
321.104130400158;108.063098810399
321.125753434912;108.226463976811
321.147376469666;108.425904668276
321.16899950442;108.667013177917
321.190622539173;108.940932148751
321.212245573927;109.22613313683
321.233868608681;109.504063809699
321.255491643435;109.770946705523
321.277114678189;110.025650248383
321.298737712943;110.251536530297
321.320360747697;110.427465644571
321.34198378245;110.542840489775
321.363606817204;110.584945659058
321.385229851958;110.537163408822
321.406852886712;110.396183482507
321.428475921466;110.164528402189
321.45009895622;109.828543602849
321.471721990973;109.385809071913
321.493345025727;108.850628552963
321.514968060481;108.236128134505
321.536591095235;107.55348770173
321.558214129989;106.820965544271
321.579837164743;106.060557877759
321.601460199496;105.281960679784
321.62308323425;104.511323392398
321.644706269004;103.780425968515
321.666329303758;103.081549928088
321.687952338512;102.425006700558
321.709575373266;101.812119767665
321.73119840802;101.241570285288
321.752821442773;100.745675308501
321.774444477527;100.328199236069
321.796067512281;99.9842689217436
321.817690547035;99.7030967678642
321.839313581789;99.4624414654112
321.860936616543;99.2561091983212
321.882559651296;99.0777237322543
321.90418268605;98.913123287284
321.925805720804;98.7426422900072
321.947428755558;98.5681822559434
321.969051790312;98.3919888972834
321.990674825066;98.2110370777254
322.012297859819;98.0104916885472
322.033920894573;97.7754214872909
322.055543929327;97.5088961627109
322.077166964081;97.2127549032316
322.098789998835;96.8774929836602
322.120413033589;96.4931426607009
322.142036068342;96.0624055995065
322.163659103096;95.6009755743901
322.18528213785;95.1283170788741
322.206905172604;94.6485759995991
322.228528207358;94.1600978163916
322.250151242112;93.6670166931197
322.271774276866;93.1816795508934
322.293397311619;92.7166085812768
322.315020346373;92.2844460767683
322.336643381127;91.8929805289024
322.358266415881;91.5444568460218
322.379889450635;91.2438940530497
322.401512485389;91.0029693770095
322.423135520142;90.8448515486451
322.444758554896;90.7742342473565
322.46638158965;90.7750461383209
322.488004624404;90.825998071049
322.509627659158;90.9215638633511
322.531250693912;91.0488661563925
322.552873728665;91.1948447290897
322.574496763419;91.3468618779663
322.596119798173;91.5007315139646
322.617742832927;91.6571213208189
322.639365867681;91.8079566892385
322.660988902435;91.9465872496276
322.682611937188;92.0771960629702
322.704234971942;92.2077999579365
322.725858006696;92.3438245305125
322.74748104145;92.4933010135976
322.769104076204;92.652456816755
322.790727110958;92.8124312895373
322.812350145712;92.9673676411579
322.833973180465;93.1261891733837
322.855596215219;93.2869041004289
322.877219249973;93.4180525870192
322.898842284727;93.4955329962142
322.920465319481;93.504171284129
322.942088354235;93.4478056651717
322.963711388988;93.3528436020635
322.985334423742;93.2206030025564
323.006957458496;93.0446588513622
323.02858049325;92.832540226352
323.050203528004;92.5992423170007
323.071826562758;92.357660796065
323.093449597511;92.1238604712562
323.115072632265;91.9044771466186
323.136695667019;91.700937796485
323.158318701773;91.522891776304
323.179941736527;91.3740470807383
323.201564771281;91.2419169751419
323.223187806035;91.1135092974232
323.244810840788;90.979729157189
323.266433875542;90.8259669899236
323.288056910296;90.6423102509209
323.30967994505;90.4305565920293
323.331302979804;90.1903566022767
323.352926014558;89.9094625877254
323.374549049311;89.5918769737663
323.396172084065;89.2476070673966
323.417795118819;88.8717031604338
323.439418153573;88.4777248226339
323.461041188327;88.0834330214456
323.482664223081;87.6954185030101
323.504287257834;87.3161962645662
323.525910292588;86.9349096779398
323.547533327342;86.5324023912989
323.569156362096;86.1062068170797
323.59077939685;85.6649824308418
323.612402431604;85.2068606699398
323.634025466358;84.7058781678095
323.655648501111;84.1251597524086
323.677271535865;83.4644142379531
323.698894570619;82.7882311058566
323.720517605373;82.126625273316
323.742140640127;81.4638218362056
323.763763674881;80.810843164685
323.785386709634;80.212888952391
323.807009744388;79.6863427105847
323.828632779142;79.2204730389439
323.850255813896;78.8137235261409
323.87187884865;78.4795542636257
323.893501883404;78.2338533326025
323.915124918157;78.0822653384248
323.936747952911;78.0069277450076
323.958370987665;77.9952889468039
323.979994022419;78.0349003797281
324.001617057173;78.102903471809
324.023240091927;78.1723254258329
324.04486312668;78.2244920947707
324.066486161434;78.2392976674296
324.088109196188;78.2133343672457
324.109732230942;78.1361432662975
324.131355265696;77.9938733150836
324.15297830045;77.7897334519028
324.174601335204;77.5391997277552
324.196224369957;77.2498884376577
324.217847404711;76.9230262173117
324.239470439465;76.5607891150829
324.261093474219;76.1770363884467
324.282716508973;75.804105125501
324.304339543727;75.465735805391
324.32596257848;75.1749231162332
324.347585613234;74.9383957483998
324.369208647988;74.7501159836051
324.390831682742;74.593202800985
324.412454717496;74.4679222478414
324.43407775225;74.3819199490587
324.455700787003;74.3305468159709
324.477323821757;74.3040576224972
324.498946856511;74.2926421964046
324.520569891265;74.2906861602015
324.542192926019;74.3018179961856
324.563815960773;74.3260563945254
324.585438995526;74.3591835916704
324.60706203028;74.4005657769108
324.628685065034;74.4542432111712
324.650308099788;74.51969408591
324.671931134542;74.5847280172163
324.693554169296;74.6499539011533
324.71517720405;74.7182347031982
324.736800238803;74.7801578593735
324.758423273557;74.8303631055347
