Name;ESR_BC_1_359s_Y_gon_80dg_5

Recipe
Accumulations;5;Number of accumulations
RetryCount;0;Number of retries on error
AbortOnError;True;Abort on error
EnableQFactorMeasurement;False;Enable/Disable q-Factor measurement
Bfrom;313;B from
Bto;363;B to
SweepTime;60;Sweep time
Modulation;0.2;Modulation
ModulationFreq;100;Modulation
BHoldEnabled;False;B hold enabled
BHold;0;B hold
MicrowavePower;2;Microwave power
MarkerEnabled;False;
MarkerStartField;0;
MarkerEndField;0;
Mode;;
KineticGFact;0;
KineticTotalTransientTime;0;
KineticTimeResolution;0;
TempFrom;5;
TempUseSlope;False;
TempTo;5;
TempdT;1;
TempSetupTime;0;
GonFrom;0;
GonTo;180;
GonSteps;20;
XRayEnabled;False;
XRayTime;3;
XRayVoltage;40;
XRayCurrent;0.5;
UVEnabled;False;
UVIntensity;0;
UVTime;0;
UVLeadTime;0;
UVWavelength;0;
PowSweepFrom;1;
PowSweepTo;5;
PowSweepSteps;5;
AmpModSweepFrom;0;
AmpModSweepTo;1;
AmpModSweepSteps;10;
ExtTriggerEnabled;False;
ExtTrigLeadTime;0;
ExtTrigOnTime;5;

Meas
BField [mT];MW_Absorption []
313.014106445313;163.040159722082
313.035730703528;162.701470546391
313.057354961744;162.247746093417
313.078979219959;161.681068470835
313.100603478175;161.012061350201
313.12222773639;160.241633182431
313.143851994606;159.315333255574
313.165476252821;158.222912590892
313.187100511037;157.140414991575
313.208724769252;156.110463396083
313.230349027468;155.093437969714
313.251973285683;154.11984251623
313.273597543899;153.245214120773
313.295221802114;152.474213143086
313.31684606033;151.785510487211
313.338470318545;151.172274335093
313.360094576761;150.642389148287
313.381718834976;150.225213841375
313.403343093192;149.938015619965
313.424967351408;149.758592220312
313.446591609623;149.650079344533
313.468215867839;149.590920197871
313.489840126054;149.568213703346
313.51146438427;149.568040861479
313.533088642485;149.565838374512
313.554712900701;149.544340029554
313.576337158916;149.491732740958
313.597961417132;149.403699959884
313.619585675347;149.283473208634
313.641209933563;149.133581389913
313.662834191778;148.96574539833
313.684458449994;148.784537062924
313.706082708209;148.610510382615
313.727706966425;148.481301335207
313.74933122464;148.414828258519
313.770955482856;148.407214146873
313.792579741072;148.440859504348
313.814203999287;148.501265449793
313.835828257503;148.576153788954
313.857452515718;148.654323627726
313.879076773934;148.724653003874
313.900701032149;148.766196593381
313.922325290365;148.763631756917
313.94394954858;148.692958593131
313.965573806796;148.557680680474
313.987198065011;148.385673675431
314.008822323227;148.173949874765
314.030446581442;147.917664994778
314.052070839658;147.636848379679
314.073695097873;147.359323329726
314.095319356089;147.083383076744
314.116943614304;146.80880921349
314.13856787252;146.573056546434
314.160192130735;146.389665449602
314.181816388951;146.248205150919
314.203440647167;146.148661903486
314.225064905382;146.093888576725
314.246689163598;146.076330524681
314.268313421813;146.087087068044
314.289937680029;146.121664862958
314.311561938244;146.173216301097
314.33318619646;146.237542863995
314.354810454675;146.316747370552
314.376434712891;146.421535611042
314.398058971106;146.550765197363
314.419683229322;146.716840605514
314.441307487537;146.939674201898
314.462931745753;147.243363267388
314.484556003968;147.609372296832
314.506180262184;148.004597054947
314.527804520399;148.440666914718
314.549428778615;148.941949399332
314.571053036831;149.481077784022
314.592677295046;150.010862104179
314.614301553262;150.539111723026
314.635925811477;151.098558368259
314.657550069693;151.655970978938
314.679174327908;152.15808649255
314.700798586124;152.565168293533
314.722422844339;152.868994066205
314.744047102555;153.061568715817
314.76567136077;153.125195183307
314.787295618986;153.041414036151
314.808919877201;152.797246743456
314.830544135417;152.367115875968
314.852168393632;151.782678264085
314.873792651848;151.081969928052
314.895416910063;150.261471025424
314.917041168279;149.358809409277
314.938665426494;148.443603063724
314.96028968471;147.548768078161
314.981913942926;146.68077471942
315.003538201141;145.894352353133
315.025162459357;145.229431414738
315.046786717572;144.69026953601
315.068410975788;144.284666693914
315.090035234003;144.049800132256
315.111659492219;144.007998318546
315.133283750434;144.109648938201
315.15490800865;144.320608257866
315.176532266865;144.642128819936
315.198156525081;145.065375801561
315.219780783296;145.545548808888
315.241405041512;146.049787236967
315.263029299727;146.570336356647
315.284653557943;147.08021452638
315.306277816158;147.512222257219
315.327902074374;147.829386973392
315.349526332589;148.029767725781
315.371150590805;148.11864603783
315.392774849021;148.085030289936
315.414399107236;147.900156146074
315.436023365452;147.559136718972
315.457647623667;147.102674651924
315.479271881883;146.545221479911
315.500896140098;145.867127109501
315.522520398314;145.095858697811
315.544144656529;144.309777159149
315.565768914745;143.546221090176
315.58739317296;142.833008361181
315.609017431176;142.176618814546
315.630641689391;141.553494037884
315.652265947607;140.955695023493
315.673890205822;140.414222521759
315.695514464038;139.960538645084
315.717138722253;139.592562811564
315.738762980469;139.294729331461
315.760387238684;139.051496650947
315.7820114969;138.864572042982
315.803635755116;138.75039202624
315.825260013331;138.723884543215
315.846884271547;138.797623075751
315.868508529762;138.972001460804
315.890132787978;139.201554607521
315.911757046193;139.47851472065
315.933381304409;139.803045531788
315.955005562624;140.158805863495
315.97662982084;140.538169741755
315.998254079055;140.937320889619
316.019878337271;141.343400748471
316.041502595486;141.738080511235
316.063126853702;142.116010588121
316.084751111917;142.4792975608
316.106375370133;142.810110856179
316.127999628348;143.079560155075
316.149623886564;143.286775788177
316.17124814478;143.445135281156
316.192872402995;143.560459833213
316.214496661211;143.63277354853
316.236120919426;143.664977053479
316.257745177642;143.661099083427
316.279369435857;143.61509959871
316.300993694073;143.53804599593
316.322617952288;143.449774948535
316.344242210504;143.367486821362
316.365866468719;143.304833129371
316.387490726935;143.267115640509
316.40911498515;143.255462344253
316.430739243366;143.266642469428
316.452363501581;143.296965937376
316.473987759797;143.342908964388
316.495612018012;143.40088699335
316.517236276228;143.473539387759
316.538860534443;143.561049702686
316.560484792659;143.652921879458
316.582109050875;143.730796420246
316.60373330909;143.793500675171
316.625357567306;143.839094645613
316.646981825521;143.870720470656
316.668606083737;143.883763485361
316.690230341952;143.867858806809
316.711854600168;143.818664063337
316.733478858383;143.739072748244
316.755103116599;143.635998054835
316.776727374814;143.507325982677
316.79835163303;143.351208915627
316.819975891245;143.184030022913
316.841600149461;143.028500234679
316.863224407676;142.882736497313
316.884848665892;142.740611460482
316.906472924107;142.604478847793
316.928097182323;142.478504432707
316.949721440539;142.375541391096
316.971345698754;142.299101589617
316.99296995697;142.246066883075
317.014594215185;142.208312478578
317.036218473401;142.184133443616
317.057842731616;142.170501558721
317.079466989832;142.165074676743
317.101091248047;142.168070295487
317.122715506263;142.176882782928
317.144339764478;142.198357888214
317.165964022694;142.232462655991
317.187588280909;142.284982352494
317.209212539125;142.345229109151
317.23083679734;142.404420887982
317.252461055556;142.465364149402
317.274085313771;142.524269378759
317.295709571987;142.584587275364
317.317333830202;142.652200292466
317.338958088418;142.727791361141
317.360582346634;142.809577905134
317.382206604849;142.900524921306
317.403830863065;142.998624833269
317.42545512128;143.1123307438
317.447079379496;143.249959047992
317.468703637711;143.412968858076
317.490327895927;143.592558916917
317.511952154142;143.773182543471
317.533576412358;143.951283876426
317.555200670573;144.11793538333
317.576824928789;144.266285233487
317.598449187004;144.397169555109
317.62007344522;144.498506620595
317.641697703435;144.557216089219
317.663321961651;144.563892538682
317.684946219866;144.504857312321
317.706570478082;144.398271602008
317.728194736298;144.267480131331
317.749818994513;144.115707301399
317.771443252729;143.933866459918
317.793067510944;143.727692689753
317.81469176916;143.509894742269
317.836316027375;143.296803393139
317.857940285591;143.081359397606
317.879564543806;142.857123974755
317.901188802022;142.623115582983
317.922813060237;142.379548330187
317.944437318453;142.130055136847
317.966061576668;141.87494430894
317.987685834884;141.608132761609
318.009310093099;141.314450561868
318.030934351315;140.973957052107
318.05255860953;140.591451939955
318.074182867746;140.182830297527
318.095807125961;139.737172771758
318.117431384177;139.218286928149
318.139055642393;138.681054655671
318.160679900608;138.177296562599
318.182304158824;137.694666821727
318.203928417039;137.215130937793
318.225552675255;136.72823476056
318.24717693347;136.23909237332
318.268801191686;135.785821674773
318.290425449901;135.413585966737
318.312049708117;135.132947769427
318.333673966332;134.929142137936
318.355298224548;134.776331412849
318.376922482763;134.657173933361
318.398546740979;134.571464889744
318.420170999194;134.52491169247
318.44179525741;134.512608525645
318.463419515625;134.520649285025
318.485043773841;134.536795152182
318.506668032057;134.546737814363
318.528292290272;134.535650311036
318.549916548488;134.48693894369
318.571540806703;134.393290567951
318.593165064919;134.259521527489
318.614789323134;134.088907029256
318.63641358135;133.872992677406
318.658037839565;133.595440835804
318.679662097781;133.26740012367
318.701286355996;132.919244074573
318.722910614212;132.557776027313
318.744534872427;132.17390901363
318.766159130643;131.754505623501
318.787783388858;131.291330523183
318.809407647074;130.786818270061
318.831031905289;130.254744256549
318.852656163505;129.727352015066
318.87428042172;129.23677622548
318.895904679936;128.742349349171
318.917528938152;128.230982940406
318.939153196367;127.743354968902
318.960777454583;127.310964512636
318.982401712798;126.904317897849
319.004025971014;126.497035822687
319.025650229229;126.08748558114
319.047274487445;125.735196560677
319.06889874566;125.475104219598
319.090523003876;125.265944582835
319.112147262091;125.08237367135
319.133771520307;124.918018192822
319.155395778522;124.766307642528
319.177020036738;124.610451301946
319.198644294953;124.433702619189
319.220268553169;124.225956179372
319.241892811384;123.979880535726
319.2635170696;123.673345692634
319.285141327816;123.274109904609
319.306765586031;122.736168677099
319.328389844247;122.087584270093
319.350014102462;121.3975308639
319.371638360678;120.688429754568
319.393262618893;119.976590326628
319.414886877109;119.271889469578
319.436511135324;118.604420242142
319.45813539354;117.999247866564
319.479759651755;117.441278974013
319.501383909971;116.902719443113
319.523008168186;116.360702015901
319.544632426402;115.835487352274
319.566256684617;115.350538109054
319.587880942833;114.936872318215
319.609505201048;114.617844599868
319.631129459264;114.361910859421
319.652753717479;114.134540872207
319.674377975695;113.917921372623
319.69600223391;113.718097493312
319.717626492126;113.525502834359
319.739250750342;113.316385896309
319.760875008557;113.086406534587
319.782499266773;112.83969679907
319.804123524988;112.564399603404
319.825747783204;112.245835866699
319.847372041419;111.867229538573
319.868996299635;111.411648156623
319.89062055785;110.846405305499
319.912244816066;110.186934417769
319.933869074281;109.492890736119
319.955493332497;108.800068098179
319.977117590712;108.097742204624
319.998741848928;107.365438018842
320.020366107143;106.538501977653
320.041990365359;105.612345356614
320.063614623574;104.655743641597
320.08523888179;103.745625898572
320.106863140005;102.917827104639
320.128487398221;102.125052924004
320.150111656437;101.293385397085
320.171735914652;100.449799330466
320.193360172868;99.7300666886429
320.214984431083;99.1130467629437
320.236608689299;98.5432100931693
320.258232947514;98.0054939685477
320.27985720573;97.5350337411756
320.301481463945;97.1401258135538
320.323105722161;96.8110635306592
320.344729980376;96.5461477269647
320.366354238592;96.3312947095137
320.387978496807;96.1544642565945
320.409602755023;96.0052377321274
320.431227013238;95.8864503860911
320.452851271454;95.7973014559827
320.474475529669;95.7385927478643
320.496099787885;95.7185929593566
320.517724046101;95.7427017029652
320.539348304316;95.8224956621164
320.560972562532;95.9663175298437
320.582596820747;96.1699545546758
320.604221078963;96.4328414389819
320.625845337178;96.7447171703957
320.647469595394;97.0746285995834
320.669093853609;97.4066392077933
320.690718111825;97.7335410688142
320.71234237004;98.0298332839386
320.733966628256;98.2656709754411
320.755590886471;98.3918782752029
320.777215144687;98.3663369209612
320.798839402902;98.2088468666931
320.820463661118;97.952697337436
320.842087919333;97.5935176672167
320.863712177549;97.096818742703
320.885336435764;96.454200936542
320.90696069398;95.7323162440185
320.928584952196;95.0209162893944
320.950209210411;94.3661962673046
320.971833468627;93.7573629265745
320.993457726842;93.1747332552636
321.015081985058;92.6446724785056
321.036706243273;92.2221064271443
321.058330501489;91.9238397828061
321.079954759704;91.7713347560049
321.10157901792;91.771806257122
321.123203276135;91.8945537533697
321.144827534351;92.1171599557764
321.166451792566;92.4410667506847
321.188076050782;92.8717712577986
321.209700308997;93.3795288776306
321.231324567213;93.9002550852062
321.252948825428;94.3836940387469
321.274573083644;94.814931378704
321.29619734186;95.1912681694532
321.317821600075;95.5084283261923
321.339445858291;95.7487712603587
321.361070116506;95.8908851291673
321.382694374722;95.9245521258698
321.404318632937;95.839628554394
321.425942891153;95.6380039561245
321.447567149368;95.3444189425561
321.469191407584;94.9865556706336
321.490815665799;94.600568514249
321.512439924015;94.204999074378
321.53406418223;93.7967587807705
321.555688440446;93.3789948864272
321.577312698661;92.9688844512068
321.598936956877;92.5810290610329
321.620561215092;92.2332096586469
321.642185473308;91.9313492191735
321.663809731523;91.6708726828963
321.685433989739;91.4548248151249
321.707058247955;91.2815754946141
321.72868250617;91.1416985138481
321.750306764386;91.0276802697783
321.771931022601;90.9284617859549
321.793555280817;90.8301361308244
321.815179539032;90.7157792701493
321.836803797248;90.56612769606
321.858428055463;90.3582824035738
321.880052313679;90.0850712825569
321.901676571894;89.7420590552629
321.92330083011;89.3202622921092
321.944925088325;88.8017805579086
321.966549346541;88.1706911078624
321.988173604756;87.471061980627
322.009797862972;86.7509795284165
322.031422121187;86.0001717075811
322.053046379403;85.2071840469792
322.074670637619;84.3905725714468
322.096294895834;83.5851208956971
322.11791915405;82.8142820495895
322.139543412265;82.0700687686802
322.161167670481;81.3457360948113
322.182791928696;80.662815517804
322.204416186912;80.0468472203611
322.226040445127;79.5067167180299
322.247664703343;79.042884649123
322.269288961558;78.6591949496666
322.290913219774;78.361561788457
322.312537477989;78.1566414785875
322.334161736205;78.0653398170065
322.35578599442;78.0763937717645
322.377410252636;78.1654226832214
322.399034510851;78.3195115929021
322.420658769067;78.5238286758907
322.442283027282;78.7625042804105
322.463907285498;79.020452596616
322.485531543714;79.2997061036026
322.507155801929;79.599149406779
322.528780060145;79.8936647052074
322.55040431836;80.1479370628574
322.572028576576;80.3717751181201
322.593652834791;80.5954446420298
322.615277093007;80.8220842007001
322.636901351222;81.0254870511274
322.658525609438;81.2164340701661
322.680149867653;81.4291791314379
322.701774125869;81.6763984896315
322.723398384084;81.9661970129632
322.7450226423;82.2992839719474
322.766646900515;82.6744872211633
322.788271158731;83.0708992738929
322.809895416946;83.4684294423879
322.831519675162;83.8620093562048
322.853143933378;84.2328019998348
322.874768191593;84.5681710927601
322.896392449809;84.8538883789222
322.918016708024;85.0902689634612
322.93964096624;85.2801563773878
322.961265224455;85.4242789004368
322.982889482671;85.5173479544211
323.004513740886;85.566332598402
323.026137999102;85.5985416079381
323.047762257317;85.6327565385439
323.069386515533;85.6858417067026
323.091010773748;85.7696859315247
323.112635031964;85.8963360275571
323.134259290179;86.0905611333167
323.155883548395;86.3677408208932
323.17750780661;86.6981120342759
323.199132064826;87.0525067756025
323.220756323041;87.4374043242956
323.242380581257;87.8599391949904
323.264004839473;88.3052787581352
323.285629097688;88.7471582527466
323.307253355904;89.1358277946224
323.328877614119;89.4695918465536
323.350501872335;89.7723134090533
323.37212613055;90.0266762373434
323.393750388766;90.2054374007144
323.415374646981;90.309611779295
323.436998905197;90.3481652601866
323.458623163412;90.3166858403523
323.480247421628;90.2094246859058
323.501871679843;90.035637906919
323.523495938059;89.8362657160689
323.545120196274;89.6266626888536
323.56674445449;89.3984039402713
323.588368712705;89.1663271102105
323.609992970921;88.9616693623306
323.631617229137;88.7898207536586
323.653241487352;88.6570878834652
323.674865745568;88.5946095066483
323.696490003783;88.5918588713021
323.718114261999;88.6377600578492
323.739738520214;88.7259902378987
323.76136277843;88.847407372001
323.782987036645;88.9960352561509
323.804611294861;89.1664353433327
323.826235553076;89.3430935970838
323.847859811292;89.5067075598667
323.869484069507;89.6417404066987
323.891108327723;89.7339747236278
323.912732585938;89.7687771103465
323.934356844154;89.7294330991294
323.955981102369;89.6001281950462
323.977605360585;89.380635387937
323.9992296188;89.0630770548184
324.020853877016;88.6575858922069
324.042478135232;88.2398531860608
324.064102393447;87.8366147836434
324.085726651663;87.4345187103128
324.107350909878;87.0184058696949
324.128975168094;86.6109164361818
324.150599426309;86.2368646889043
324.172223684525;85.9028257743904
324.19384794274;85.5922520443159
324.215472200956;85.2931386839445
324.237096459171;85.0125653924685
324.258720717387;84.7740475531785
324.280344975602;84.5602524304573
324.301969233818;84.352753163987
324.323593492033;84.1503904048556
324.345217750249;83.9600350242421
324.366842008464;83.7864329746991
324.38846626668;83.6546293563595
324.410090524895;83.5672127922492
324.431714783111;83.5211221336784
324.453339041327;83.5167071722287
324.474963299542;83.5703404539518
324.496587557758;83.6632304474534
324.518211815973;83.7769075105524
324.539836074189;83.9057089625598
324.561460332404;84.0316384260319
324.58308459062;84.124908401683
324.604708848835;84.1712321405831
324.626333107051;84.1729402222294
324.647957365266;84.1126558581412
324.669581623482;83.9968890755752
324.691205881697;83.8262646203619
324.712830139913;83.5921595891507
324.734454398128;83.303232169415
324.756078656344;82.998661588057
324.777702914559;82.7055790353727
