Name;ESR_BC_1_359s_Y_gon_80dg_1

Recipe
Accumulations;5;Number of accumulations
RetryCount;0;Number of retries on error
AbortOnError;True;Abort on error
EnableQFactorMeasurement;False;Enable/Disable q-Factor measurement
Bfrom;313;B from
Bto;363;B to
SweepTime;60;Sweep time
Modulation;0.2;Modulation
ModulationFreq;100;Modulation
BHoldEnabled;False;B hold enabled
BHold;0;B hold
MicrowavePower;2;Microwave power
MarkerEnabled;False;
MarkerStartField;0;
MarkerEndField;0;
Mode;;
KineticGFact;0;
KineticTotalTransientTime;0;
KineticTimeResolution;0;
TempFrom;5;
TempUseSlope;False;
TempTo;5;
TempdT;1;
TempSetupTime;0;
GonFrom;0;
GonTo;180;
GonSteps;20;
XRayEnabled;False;
XRayTime;3;
XRayVoltage;40;
XRayCurrent;0.5;
UVEnabled;False;
UVIntensity;0;
UVTime;0;
UVLeadTime;0;
UVWavelength;0;
PowSweepFrom;1;
PowSweepTo;5;
PowSweepSteps;5;
AmpModSweepFrom;0;
AmpModSweepTo;1;
AmpModSweepSteps;10;
ExtTriggerEnabled;False;
ExtTrigLeadTime;0;
ExtTrigOnTime;5;

Meas
BField [mT];MW_Absorption []
313.033935317993;153.088443238432
313.055558059692;152.733688140692
313.077180801392;152.338113306384
313.098803543091;151.90229428315
313.12042628479;151.398849480384
313.142049026489;150.798513105203
313.163671768188;150.150417240833
313.185294509888;149.551683363918
313.206917251587;149.029984532314
313.228539993286;148.558830149315
313.250162734985;148.139515273439
313.271785476685;147.802869418716
313.293408218384;147.563047018752
313.315030960083;147.410899467676
313.336653701782;147.319768254444
313.358276443481;147.270827803467
313.379899185181;147.251059285296
313.40152192688;147.249950655114
313.423144668579;147.26039696687
313.444767410278;147.276294322672
313.466390151978;147.290607623421
313.488012893677;147.302647563899
313.509635635376;147.3190931647
313.531258377075;147.347255270006
313.552881118774;147.389035259758
313.574503860474;147.455012105099
313.596126602173;147.538043373671
313.617749343872;147.634497128545
313.639372085571;147.746956994595
313.66099482727;147.879120442283
313.68261756897;148.00038932476
313.704240310669;148.096303458722
313.725863052368;148.166080869011
313.747485794067;148.210603718856
313.769108535767;148.223576232083
313.790731277466;148.200273887992
313.812354019165;148.153664047902
313.833976760864;148.098961145626
313.855599502563;148.047607124165
313.877222244263;148.00956234144
313.898844985962;147.992710840997
313.920467727661;148.00830284203
313.94209046936;148.060168249213
313.96371321106;148.14653646532
313.985335952759;148.251929547348
314.006958694458;148.356102788828
314.028581436157;148.454133485457
314.050204177856;148.541396718041
314.071826919556;148.615430710758
314.093449661255;148.668292599416
314.115072402954;148.707727562584
314.136695144653;148.744459894278
314.158317886353;148.789783892422
314.179940628052;148.866352982471
314.201563369751;148.994605165539
314.22318611145;149.173857924274
314.244808853149;149.406968342311
314.266431594849;149.708272315554
314.288054336548;150.087894435095
314.309677078247;150.529912038337
314.331299819946;150.980803842315
314.352922561645;151.419701986958
314.374545303345;151.854400847354
314.396168045044;152.278495269514
314.417790786743;152.676053487456
314.439413528442;153.042393141649
314.461036270142;153.387138742234
314.482659011841;153.719049322285
314.50428175354;154.012250505368
314.525904495239;154.258064799168
314.547527236938;154.485455948412
314.569149978638;154.713955175987
314.590772720337;154.923316354421
314.612395462036;155.084743851364
314.634018203735;155.203917259882
314.655640945435;155.280103158612
314.677263687134;155.306638855143
314.698886428833;155.276466430778
314.720509170532;155.181355657383
314.742131912231;155.024572142619
314.763754653931;154.813284595377
314.78537739563;154.55045945901
314.807000137329;154.248499015213
314.828622879028;153.934162527312
314.850245620728;153.640752543934
314.871868362427;153.380989998454
314.893491104126;153.146938826543
314.915113845825;152.937392407888
314.936736587524;152.767214857738
314.958359329224;152.658149834998
314.979982070923;152.596703255501
315.001604812622;152.559581111238
315.023227554321;152.536008111867
315.044850296021;152.519647367882
315.06647303772;152.502419096788
315.088095779419;152.476996853291
315.109718521118;152.431792764719
315.131341262817;152.348139879698
315.152964004517;152.220576002331
315.174586746216;152.040839429883
315.196209487915;151.793893739993
315.217832229614;151.475031857248
315.239454971313;151.095566289202
315.261077713013;150.671726626106
315.282700454712;150.191435183328
315.304323196411;149.633672979748
315.32594593811;148.99831544972
315.34756867981;148.325179398077
315.369191421509;147.687249630151
315.390814163208;147.092368243968
315.412436904907;146.533020287821
315.434059646606;146.033724923667
315.455682388306;145.634324982878
315.477305130005;145.318184317128
315.498927871704;145.071344754769
315.520550613403;144.89065278037
315.542173355103;144.772368742625
315.563796096802;144.695912484611
315.585418838501;144.636265778674
315.6070415802;144.567520508103
315.628664321899;144.466189936801
315.650287063599;144.318703430115
315.671909805298;144.145050664104
315.693532546997;143.953672648324
315.715155288696;143.737050425202
315.736778030396;143.488069206895
315.758400772095;143.227737175567
315.780023513794;142.986534072159
315.801646255493;142.783328900848
315.823268997192;142.607921333039
315.844891738892;142.460005384906
315.866514480591;142.344672005008
315.88813722229;142.258078528214
315.909759963989;142.183450070604
315.931382705688;142.1113310796
315.953005447388;142.040594003734
315.974628189087;141.964549146175
315.996250930786;141.879013883182
316.017873672485;141.783574893773
316.039496414185;141.686819707518
316.061119155884;141.612364170328
316.082741897583;141.578264115896
316.104364639282;141.591113956599
316.125987380981;141.654956340477
316.147610122681;141.771907355243
316.16923286438;141.952478615926
316.190855606079;142.216496653653
316.212478347778;142.551740206383
316.234101089478;142.915920960321
316.255723831177;143.301802379832
316.277346572876;143.701395255579
316.298969314575;144.063403093191
316.320592056274;144.354610437918
316.342214797974;144.580024053863
316.363837539673;144.746386266755
316.385460281372;144.852239466154
316.407083023071;144.882550146908
316.42870576477;144.827299119379
316.45032850647;144.700419712963
316.471951248169;144.532276337363
316.493573989868;144.333818746687
316.515196731567;144.10098344301
316.536819473267;143.82204795217
316.558442214966;143.486040180566
316.580064956665;143.118987802298
316.601687698364;142.776694368058
316.623310440063;142.466913977135
316.644933181763;142.184621470704
316.666555923462;141.942609219851
316.688178665161;141.74123427154
316.70980140686;141.580189380152
316.73142414856;141.447581874386
316.753046890259;141.343823677028
316.774669631958;141.277219017643
316.796292373657;141.255985584953
316.817915115356;141.28228618747
316.839537857056;141.353710678284
316.861160598755;141.463208559726
316.882783340454;141.610206662988
316.904406082153;141.791518394668
316.926028823853;142.012011835125
316.947651565552;142.278479896617
316.969274307251;142.604832615279
316.99089704895;142.976143243204
317.012519790649;143.31189951814
317.034142532349;143.595439919628
317.055765274048;143.816339033421
317.077388015747;143.965613137088
317.099010757446;144.044259689766
317.120633499145;144.047693519519
317.142256240845;143.972458019932
317.163878982544;143.828283578696
317.185501724243;143.629218478724
317.207124465942;143.377920535776
317.228747207642;143.041206720623
317.250369949341;142.62547471848
317.27199269104;142.1561761604
317.293615432739;141.680679654531
317.315238174438;141.239983933861
317.336860916138;140.854488496477
317.358483657837;140.530001685746
317.380106399536;140.277189349433
317.401729141235;140.104767029535
317.423351882935;140.010729540397
317.444974624634;139.994168769011
317.466597366333;140.056069880275
317.488220108032;140.175395438014
317.509842849731;140.322459903908
317.531465591431;140.488102374737
317.55308833313;140.664200720092
317.574711074829;140.825576934693
317.596333816528;140.952141424587
317.617956558228;141.043614397428
317.639579299927;141.096685192367
317.661202041626;141.109104479579
317.682824783325;141.083224168172
317.704447525024;141.023125362822
317.726070266724;140.936416905128
317.747693008423;140.835219314606
317.769315750122;140.727298639539
317.790938491821;140.607134225351
317.812561233521;140.463286027606
317.83418397522;140.28572126996
317.855806716919;140.075625592477
317.877429458618;139.845125091986
317.899052200317;139.600206851818
317.920674942017;139.339405017688
317.942297683716;139.06364670124
317.963920425415;138.780564032391
317.985543167114;138.500268764301
318.007165908813;138.263128839942
318.028788650513;138.101079310266
318.050411392212;138.009762728179
318.072034133911;137.991406803811
318.09365687561;138.054794832385
318.11527961731;138.191683571362
318.136902359009;138.36647562296
318.158525100708;138.554178473257
318.180147842407;138.746137028205
318.201770584106;138.923962222136
318.223393325806;139.040246653398
318.245016067505;139.037964940592
318.266638809204;138.880348338771
318.288261550903;138.576985289317
318.309884292603;138.150937561321
318.331507034302;137.618075324593
318.353129776001;136.986452047262
318.3747525177;136.253981770234
318.396375259399;135.433453084146
318.417998001099;134.556712250202
318.439620742798;133.660258997237
318.461243484497;132.778057250648
318.482866226196;131.940997145333
318.504488967896;131.169532938704
318.526111709595;130.474992031525
318.547734451294;129.888138587499
318.569357192993;129.486125641783
318.590979934692;129.302807900866
318.612602676392;129.271697616226
318.634225418091;129.343725915806
318.65584815979;129.492484364554
318.677470901489;129.685222515222
318.699093643188;129.898126184459
318.720716384888;130.11223596823
318.742339126587;130.301999136208
318.763961868286;130.449676998218
318.785584609985;130.545896506941
318.807207351685;130.568298668493
318.828830093384;130.48043489724
318.850452835083;130.273091502668
318.872075576782;129.949816274454
318.893698318481;129.523657751026
318.915321060181;129.020585619134
318.93694380188;128.427780590859
318.958566543579;127.686206636077
318.980189285278;126.731610968415
319.001812026978;125.69095207127
319.023434768677;124.694290808977
319.045057510376;123.707235522602
319.066680252075;122.694271361257
319.088302993774;121.69814892751
319.109925735474;120.769223602575
319.131548477173;119.921522509085
319.153171218872;119.153774767815
319.174793960571;118.476405076924
319.19641670227;117.915662541947
319.21803944397;117.471844379851
319.239662185669;117.121996725855
319.261284927368;116.853058434565
319.282907669067;116.64840201498
319.304530410767;116.499393450922
319.326153152466;116.400863196525
319.347775894165;116.352363463862
319.369398635864;116.346452610183
319.391021377563;116.358864946657
319.412644119263;116.378859650323
319.434266860962;116.401324667333
319.455889602661;116.418312481136
319.47751234436;116.413068357018
319.49913508606;116.37653687211
319.520757827759;116.266296157199
319.542380569458;116.079179471799
319.564003311157;115.822036759169
319.585626052856;115.494168542305
319.607248794556;115.097724423691
319.628871536255;114.653531233964
319.650494277954;114.164356885981
319.672117019653;113.609445786495
319.693739761353;112.992738305346
319.715362503052;112.373916019699
319.736985244751;111.788829397197
319.75860798645;111.223510150085
319.780230728149;110.671329024022
319.801853469849;110.177748184741
319.823476211548;109.773520466924
319.845098953247;109.461223970948
319.866721694946;109.232947958546
319.888344436645;109.067943727125
319.909967178345;108.940544185562
319.931589920044;108.821978961279
319.953212661743;108.676490749969
319.974835403442;108.4763801484
319.996458145142;108.20792205589
320.018080886841;107.864034668919
320.03970362854;107.456195026252
320.061326370239;106.987231623656
320.082949111938;106.44395745716
320.104571853638;105.799527558205
320.126194595337;105.017580308847
320.147817337036;104.088251730717
320.169440078735;103.121209895442
320.191062820435;102.202016600102
320.212685562134;101.387971687125
320.234308303833;100.705271819163
320.255931045532;100.11640764749
320.277553787231;99.5778521521279
320.299176528931;99.0672368480242
320.32079927063;98.5830929489661
320.342422012329;98.1462481525658
320.364044754028;97.7922401349824
320.385667495728;97.5072123409264
320.407290237427;97.2619037639701
320.428912979126;97.0350160211015
320.450535720825;96.8048864787995
320.472158462524;96.5549337254778
320.493781204224;96.2844783273017
320.515403945923;96.0048306738934
320.537026687622;95.7203759922614
320.558649429321;95.4222997380099
320.580272171021;95.1140763341769
320.60189491272;94.807358693965
320.623517654419;94.5090783861691
320.645140396118;94.2250246910247
320.666763137817;93.962955695675
320.688385879517;93.7310353225594
320.710008621216;93.5324173880449
320.731631362915;93.3745175432593
320.753254104614;93.269207980865
320.774876846313;93.2199166315326
320.796499588013;93.2227657234403
320.818122329712;93.2720650375288
320.839745071411;93.3687174375532
320.86136781311;93.5129490142886
320.88299055481;93.701450349367
320.904613296509;93.9252273639559
320.926236038208;94.1712747329548
320.947858779907;94.4377952562558
320.969481521606;94.7253592818828
320.991104263306;95.0367768982146
321.012727005005;95.334974317464
321.034349746704;95.5600551141048
321.055972488403;95.7043942935219
321.077595230103;95.7736512331803
321.099217971802;95.7555018933203
321.120840713501;95.6368782791078
321.1424634552;95.4210716334232
321.164086196899;95.1273036036209
321.185708938599;94.7800127422731
321.207331680298;94.4062799131225
321.228954421997;94.0129066750379
321.250577163696;93.5981339900276
321.272199905396;93.1804631295551
321.293822647095;92.7827648150009
321.315445388794;92.4006461830605
321.337068130493;92.0272332021995
321.358690872192;91.6695406111358
321.380313613892;91.3259246757662
321.401936355591;90.9736917439228
321.42355909729;90.5863908360799
321.445181838989;90.1953444622973
321.466804580688;89.8111585092622
321.488427322388;89.4131270326101
321.510050064087;89.0020054783276
321.531672805786;88.6068751253736
321.553295547485;88.2415668114008
321.574918289185;87.9173157727221
321.596541030884;87.6371467602743
321.618163772583;87.397551459621
321.639786514282;87.2013998432312
321.661409255981;87.082813509143
321.683031997681;87.0696268275124
321.70465473938;87.1427939447317
321.726277481079;87.2903280638872
321.747900222778;87.5187814440101
321.769522964478;87.8115412702084
321.791145706177;88.1326545170265
321.812768447876;88.4745051020743
321.834391189575;88.8331255271218
321.856013931274;89.1679324679007
321.877636672974;89.4575357018942
321.899259414673;89.6850492647417
321.920882156372;89.8245171675525
321.942504898071;89.8398887508833
321.96412763977;89.7028020697782
321.98575038147;89.3967459782058
322.007373123169;88.9068572094935
322.028995864868;88.2376433936012
322.050618606567;87.4379180644564
322.072241348267;86.5113557905163
322.093864089966;85.4644931735038
322.115486831665;84.3645670458706
322.137109573364;83.2801483131689
322.158732315063;82.2956042018205
322.180355056763;81.4452320826021
322.201977798462;80.7176943665073
322.223600540161;80.0987234719944
322.24522328186;79.5809484970137
322.26684602356;79.1744252924631
322.288468765259;78.9096169437726
322.310091506958;78.7967411380007
322.331714248657;78.819070912049
322.353336990356;78.9562811073219
322.374959732056;79.1837651337333
322.396582473755;79.4561601542991
322.418205215454;79.758539711909
322.439827957153;80.0933606761904
322.461450698853;80.4455032325292
322.483073440552;80.7962540730023
322.504696182251;81.1465257881823
322.52631892395;81.501505568319
322.547941665649;81.866937106274
322.569564407349;82.2443059263142
322.591187149048;82.5963852624177
322.612809890747;82.9073084001394
322.634432632446;83.1849497188939
322.656055374145;83.4321439804533
322.677678115845;83.6538422521997
322.699300857544;83.8577371267204
322.720923599243;84.0422968325875
322.742546340942;84.1754171150837
322.764169082642;84.2347368884171
322.785791824341;84.2474562941264
322.80741456604;84.2229572507246
322.829037307739;84.1660362139513
322.850660049438;84.0730758614077
322.872282791138;83.9383637633036
322.893905532837;83.769085772153
322.915528274536;83.5896307193729
322.937151016235;83.407894093013
322.958773757935;83.2208912572658
322.980396499634;83.0222803917621
323.002019241333;82.8080825817029
323.023641983032;82.592829022246
323.045264724731;82.3917889574563
323.066887466431;82.2136203971722
323.08851020813;82.0593351747764
323.110132949829;81.9324477027559
323.131755691528;81.8418333832006
323.153378433228;81.8054368577437
323.175001174927;81.8274198967759
323.196623916626;81.9161496525292
323.218246658325;82.0850022475661
323.239869400024;82.3498474982877
323.261492141724;82.7040288842381
323.283114883423;83.1304772781841
323.304737625122;83.6542571857657
323.326360366821;84.2660155425552
323.347983108521;84.9254956420761
323.36960585022;85.6089128039333
323.391228591919;86.2985972344528
323.412851333618;86.9885581125447
323.434474075317;87.6666959653166
323.456096817017;88.3006126907669
323.477719558716;88.8802952593448
323.499342300415;89.4200349338525
323.520965042114;89.8837237198116
323.542587783813;90.257184681317
323.564210525513;90.5648024811723
323.585833267212;90.8241174956326
323.607456008911;91.0390426501345
323.62907875061;91.2168655895439
323.65070149231;91.3658138225464
323.672324234009;91.4895052183581
323.693946975708;91.5916322194522
323.715569717407;91.6768197297914
323.737192459106;91.7516729912778
323.758815200806;91.8057367609655
323.780437942505;91.8288089518918
323.802060684204;91.8269567533677
323.823683425903;91.7955158762956
323.845306167603;91.7185943565356
323.866928909302;91.5906596265667
323.888551651001;91.4249542157798
323.9101743927;91.2337696000052
323.931797134399;91.0097351729001
323.953419876099;90.7308471997341
323.975042617798;90.3911554211592
323.996665359497;90.0214085817597
324.018288101196;89.6443856849513
324.039910842895;89.2639125123431
324.061533584595;88.8817612954972
324.083156326294;88.5184429143938
324.104779067993;88.1983838704406
324.126401809692;87.9203830985557
324.148024551392;87.6777888784156
324.169647293091;87.4684286590274
324.19127003479;87.3056561624729
324.212892776489;87.2246453882987
324.234515518188;87.2325812902188
324.256138259888;87.3123249723668
324.277761001587;87.4525285415122
324.299383743286;87.662464084178
324.321006484985;87.9411745907683
324.342629226685;88.2729481363706
324.364251968384;88.6263457377572
324.385874710083;88.9585463123278
324.407497451782;89.2524074478634
324.429120193481;89.505800126611
324.450742935181;89.7190905424187
324.47236567688;89.8713309809016
324.493988418579;89.9491122874073
324.515611160278;89.9598679881735
324.537233901978;89.9106119534899
324.558856643677;89.7956772034297
324.580479385376;89.627133683542
324.602102127075;89.442788898682
324.623724868774;89.2585100659617
324.645347610474;89.0712343147656
324.666970352173;88.8770927354052
324.688593093872;88.6681336730614
324.710215835571;88.4356553283327
324.73183857727;88.1929367754208
324.75346131897;87.9378200713798
324.775084060669;87.6566192937933
324.796706802368;87.3433731477352
