Name;BF_ESR_01_7202s_X_gon_20dg_result

Recipe
Accumulations;5;Number of accumulations
RetryCount;0;Number of retries on error
AbortOnError;True;Abort on error
EnableQFactorMeasurement;False;Enable/Disable q-Factor measurement
Bfrom;313;B from
Bto;363;B to
SweepTime;60;Sweep time
Modulation;0.2;Modulation
ModulationFreq;100;Modulation
BHoldEnabled;False;B hold enabled
BHold;0;B hold
MicrowavePower;2;Microwave power
MarkerEnabled;False;
MarkerStartField;0;
MarkerEndField;0;
Mode;;
KineticGFact;0;
KineticTotalTransientTime;0;
KineticTimeResolution;0;
TempFrom;5;
TempUseSlope;False;
TempTo;5;
TempdT;1;
TempSetupTime;0;
GonFrom;0;
GonTo;180;
GonSteps;20;
XRayEnabled;False;
XRayTime;3;
XRayVoltage;40;
XRayCurrent;0.5;
UVEnabled;False;
UVIntensity;0;
UVTime;0;
UVLeadTime;0;
UVWavelength;0;
PowSweepFrom;1;
PowSweepTo;5;
PowSweepSteps;5;
AmpModSweepFrom;0;
AmpModSweepTo;1;
AmpModSweepSteps;10;
ExtTriggerEnabled;False;
ExtTrigLeadTime;0;
ExtTrigOnTime;5;

Meas
BField [mT];MW_Absorption []
313.011069869995;115.48776938463
313.032673249531;114.73841544445
313.054276629067;113.907500193346
313.075880008604;112.996027932299
313.09748338814;112.032238642839
313.119086767676;111.026625486814
313.140690147212;109.971871401014
313.162293526748;108.894137225805
313.183896906284;107.823817640585
313.20550028582;106.770433124646
313.227103665356;105.73424095837
313.248707044893;104.727707714185
313.270310424429;103.777090084696
313.291913803965;102.883894099893
313.313517183501;102.007055253057
313.335120563037;101.155381730497
313.356723942573;100.385478739575
313.378327322109;99.6865774289845
313.399930701645;99.0129433464069
313.421534081182;98.3404383972617
313.443137460718;97.6761510982179
313.464740840254;97.0037088249444
313.48634421979;96.2933953521835
313.507947599326;95.5593318306392
313.529550978862;94.8425824700713
313.551154358398;94.1525449890796
313.572757737934;93.4835352114197
313.594361117471;92.8222179664223
313.615964497007;92.168668190783
313.637567876543;91.5482450230558
313.659171256079;90.9770971918216
313.680774635615;90.4541674270209
313.702378015151;89.9752427948292
313.723981394687;89.5559854195726
313.745584774224;89.2155476696954
313.76718815376;88.9502952512692
313.788791533296;88.7448089599234
313.810394912832;88.5819602564853
313.831998292368;88.4476161077408
313.853601671904;88.3405600788777
313.87520505144;88.2586968548622
313.896808430976;88.1887898614441
313.918411810513;88.1192069321855
313.940015190049;88.0373477573948
313.961618569585;87.9386981673577
313.983221949121;87.8262111369422
314.004825328657;87.7031472783945
314.026428708193;87.5746962170088
314.048032087729;87.4538305352002
314.069635467265;87.3463167660048
314.091238846802;87.2519786356264
314.112842226338;87.1710776259437
314.134445605874;87.1132753990585
314.15604898541;87.0893484544479
314.177652364946;87.0984682497771
314.199255744482;87.139252770202
314.220859124018;87.2218097269352
314.242462503554;87.368098126758
314.264065883091;87.5823448220259
314.285669262627;87.8479886825231
314.307272642163;88.1718336063332
314.328876021699;88.5643187286292
314.350479401235;89.0124617497713
314.372082780771;89.5096957092925
314.393686160307;90.0751282674083
314.415289539844;90.736930524358
314.43689291938;91.4848044970154
314.458496298916;92.257935533526
314.480099678452;93.0362578286309
314.501703057988;93.8400974074657
314.523306437524;94.6990722014421
314.54490981706;95.6275497675651
314.566513196596;96.5970851764366
314.588116576133;97.5503702506907
314.609719955669;98.5063689628918
314.631323335205;99.5292361469385
314.652926714741;100.630174634336
314.674530094277;101.820106105872
314.696133473813;103.074572790119
314.717736853349;104.300272623376
314.739340232885;105.507089486491
314.760943612422;106.724923050437
314.782546991958;107.962146969344
314.804150371494;109.222430080026
314.82575375103;110.521529714262
314.847357130566;111.872073551908
314.868960510102;113.262631213549
314.890563889638;114.688552080693
314.912167269174;116.124452410385
314.933770648711;117.539295468842
314.955374028247;118.960929879405
314.976977407783;120.446169289346
314.998580787319;121.982015065213
315.020184166855;123.502040303117
315.041787546391;124.974304556376
315.063390925927;126.45664162597
315.084994305464;128.012433817576
315.106597685;129.584649499121
315.128201064536;131.09079504458
315.149804444072;132.527088705267
315.171407823608;133.940447426574
315.193011203144;135.365542250228
315.21461458268;136.802392613745
315.236217962216;138.211987126027
315.257821341753;139.541528519909
315.279424721289;140.766077110622
315.301028100825;141.920145205335
315.322631480361;143.037573757075
315.344234859897;144.10272486244
315.365838239433;145.127978192234
315.387441618969;146.145730741056
315.409044998505;147.148805695756
315.430648378042;148.113258030811
315.452251757578;149.019342397431
315.473855137114;149.838223870304
315.49545851665;150.56159963953
315.517061896186;151.207021023796
315.538665275722;151.809125235188
315.560268655258;152.388483872086
315.581872034794;152.952646533449
315.603475414331;153.482413053778
315.625078793867;153.962883462479
315.646682173403;154.418025144888
315.668285552939;154.887434582863
315.689888932475;155.391091562424
315.711492312011;155.934642238219
315.733095691547;156.510767078443
315.754699071083;157.123246290165
315.77630245062;157.774620378092
315.797905830156;158.453497201226
315.819509209692;159.147496731896
315.841112589228;159.855038549084
315.862715968764;160.579977578861
315.8843193483;161.313793659995
315.905922727836;162.047993597733
315.927526107373;162.761726412365
315.949129486909;163.445563271051
315.970732866445;164.098437828219
315.992336245981;164.709351866935
316.013939625517;165.284664765122
316.035543005053;165.829667901628
316.057146384589;166.335203070857
316.078749764125;166.795741070156
316.100353143662;167.217650193158
316.121956523198;167.612485483535
316.143559902734;167.995449214816
316.16516328227;168.380876699159
316.186766661806;168.782582043893
316.208370041342;169.208024674128
316.229973420878;169.653433804385
316.251576800414;170.116735998387
316.273180179951;170.603788011456
316.294783559487;171.119473810406
316.316386939023;171.659965899246
316.337990318559;172.221825526972
316.359593698095;172.794067815216
316.381197077631;173.353323070806
316.402800457167;173.888817904303
316.424403836703;174.397057363251
316.44600721624;174.896569176588
316.467610595776;175.400332269483
316.489213975312;175.914423757061
316.510817354848;176.441264205976
316.532420734384;176.992527413407
316.55402411392;177.582991749051
316.575627493456;178.204641246444
316.597230872993;178.865554400595
316.618834252529;179.614653387447
316.640437632065;180.446544242026
316.662041011601;181.30790299869
316.683644391137;182.201157982327
316.705247770673;183.138041740575
316.726851150209;184.154318069121
316.748454529745;185.258191429482
316.770057909281;186.401346397509
316.791661288818;187.583497658894
316.813264668354;188.782388499938
316.83486804789;189.942306884336
316.856471427426;191.103980993098
316.878074806962;192.324115093909
316.899678186498;193.624077426006
316.921281566034;194.970228932793
316.942884945571;196.352991696937
316.964488325107;197.798373701765
316.986091704643;199.264684438933
317.007695084179;200.714624283806
317.029298463715;202.172320218133
317.050901843251;203.664045721876
317.072505222787;205.167989475802
317.094108602323;206.667298977891
317.11571198186;208.173023309258
317.137315361396;209.69952546362
317.158918740932;211.247012686545
317.180522120468;212.757046010274
317.202125500004;214.201463704157
317.22372887954;215.596177268789
317.245332259076;216.989096512343
317.266935638612;218.421025045053
317.288539018149;219.85520225827
317.310142397685;221.237791452116
317.331745777221;222.547906752466
317.353349156757;223.789754864726
317.374952536293;224.972725533611
317.396555915829;226.061009242642
317.418159295365;227.038632466083
317.439762674901;227.939816812926
317.461366054438;228.7987445656
317.482969433974;229.605692844191
317.50457281351;230.315739900323
317.526176193046;230.90308716716
317.547779572582;231.363006221293
317.569382952118;231.703250621141
317.590986331654;231.933043613516
317.612589711191;232.057025350976
317.634193090727;232.076349840378
317.655796470263;231.988632391641
317.677399849799;231.792293704279
317.699003229335;231.48019090298
317.720606608871;231.061058944668
317.742209988407;230.55960895714
317.763813367943;229.982030531927
317.78541674748;229.340234579693
317.807020127016;228.66908203926
317.828623506552;227.989488401955
317.850226886088;227.304675665353
317.871830265624;226.608835735578
317.89343364516;225.893756311527
317.915037024696;225.164360500224
317.936640404232;224.444719915389
317.958243783769;223.750390587305
317.979847163305;223.071734211715
318.001450542841;222.390383220323
318.023053922377;221.692689057161
318.044657301913;221.002158589092
318.066260681449;220.334110096221
318.087864060985;219.662362994087
318.109467440521;218.947840930627
318.131070820058;218.178787784844
318.152674199594;217.38270392628
318.17427757913;216.572521767511
318.195880958666;215.717650918289
318.217484338202;214.77209082709
318.239087717738;213.736547599543
318.260691097274;212.61985522243
318.282294476811;211.422410134387
318.303897856347;210.160419375268
318.325501235883;208.841269599246
318.347104615419;207.476861504756
318.368707994955;206.080112786643
318.390311374491;204.628500499401
318.411914754027;203.080720388324
318.433518133563;201.415274779271
318.4551215131;199.762635438871
318.476724892636;198.21914025283
318.498328272172;196.764399856548
318.519931651708;195.343488629046
318.541535031244;193.914613008182
318.56313841078;192.497190096194
318.584741790316;191.12325377249
318.606345169852;189.812405473581
318.627948549389;188.556512922399
318.649551928925;187.328384350105
318.671155308461;186.106110538168
318.692758687997;184.87227554236
318.714362067533;183.63762344823
318.735965447069;182.430213709276
318.757568826605;181.244130041698
318.779172206141;180.022390129589
318.800775585678;178.761562274845
318.822378965214;177.554811087293
318.84398234475;176.417057974528
318.865585724286;175.272907615775
318.887189103822;174.097715003375
318.908792483358;172.919112784561
318.930395862894;171.755205857574
318.95199924243;170.590755995203
318.973602621967;169.40078258199
318.995206001503;168.16511161786
319.016809381039;166.87462804041
319.038412760575;165.541362814489
319.060016140111;164.182591712736
319.081619519647;162.811641076566
319.103222899183;161.416606549524
319.12482627872;159.984420782841
319.146429658256;158.53495873055
319.168033037792;157.092376626166
319.189636417328;155.631329151227
319.211239796864;154.149676700948
319.2328431764;152.672748529124
319.254446555936;151.201941418117
319.276049935472;149.702267345019
319.297653315009;148.1379464503
319.319256694545;146.530330887187
319.340860074081;144.91989587452
319.362463453617;143.301445464682
319.384066833153;141.641086341662
319.405670212689;139.948277194246
319.427273592225;138.280152916506
319.448876971761;136.640919820615
319.470480351298;135.007906172655
319.492083730834;133.397100259345
319.51368711037;131.83307242713
319.535290489906;130.332054008005
319.556893869442;128.90351170862
319.578497248978;127.559202149056
319.600100628514;126.311300729826
319.62170400805;125.1366301453
319.643307387587;123.992269951242
319.664910767123;122.849451713919
319.686514146659;121.70808715964
319.708117526195;120.590472485259
319.729720905731;119.543196861388
319.751324285267;118.570892470837
319.772927664803;117.628915734202
319.79453104434;116.656478026003
319.816134423876;115.642893950789
319.837737803412;114.652267739857
319.859341182948;113.707729847036
319.880944562484;112.78219481479
319.90254794202;111.856985968498
319.924151321556;110.918510769509
319.945754701092;109.976659498278
319.967358080629;109.024915549171
319.988961460165;108.015316192484
320.010564839701;106.906682120137
320.032168219237;105.733438268865
320.053771598773;104.580505889159
320.075374978309;103.460120281542
320.096978357845;102.31979479961
320.118581737381;101.140516489855
320.140185116918;99.9438575939406
320.161788496454;98.7614793070317
320.18339187599;97.6313180226302
320.204995255526;96.5756527370792
320.226598635062;95.5876227863175
320.248202014598;94.6599142152145
320.269805394134;93.778950813738
320.29140877367;92.9272808979863
320.313012153207;92.1028001048359
320.334615532743;91.3098613454201
320.356218912279;90.5400159775115
320.377822291815;89.7744401383131
320.399425671351;88.9875028193227
320.421029050887;88.1505488652867
320.442632430423;87.2427789149009
320.46423580996;86.2598491579163
320.485839189496;85.2203218950788
320.507442569032;84.1122797463175
320.529045948568;82.9231254086158
320.550649328104;81.6807035411061
320.57225270764;80.4250502728295
320.593856087176;79.1814404477014
320.615459466712;77.9587837026211
320.637062846249;76.7631069403679
320.658666225785;75.6109789868323
320.680269605321;74.528285649424
320.701872984857;73.5267175026775
320.723476364393;72.586864933205
320.745079743929;71.7245443743896
320.766683123465;70.9647679278351
320.788286503001;70.2925520797287
320.809889882538;69.6780156060785
320.831493262074;69.0951928489031
320.85309664161;68.5183214683055
320.874700021146;67.929673292098
320.896303400682;67.3256127549165
320.917906780218;66.6907409895871
320.939510159754;65.9946848337763
320.96111353929;65.2234809946204
320.982716918827;64.3851104372753
321.004320298363;63.4751408467217
321.025923677899;62.485650056129
321.047527057435;61.4361564339091
321.069130436971;60.3685174248729
321.090733816507;59.2833577661286
321.112337196043;58.1675693309567
321.133940575579;57.0199965986267
321.155543955116;55.8375956556452
321.177147334652;54.6274288266261
321.198750714188;53.4376409984834
321.220354093724;52.3209223913503
321.24195747326;51.3019620386603
321.263560852796;50.3731617835301
321.285164232332;49.5191588026154
321.306767611869;48.7497858088643
321.328370991405;48.080941310346
321.349974370941;47.5170183766306
321.371577750477;47.0474547827146
321.393181130013;46.6565628655415
321.414784509549;46.3380749435833
321.436387889085;46.074904027903
321.457991268621;45.8402508602249
321.479594648158;45.6183379733989
321.501198027694;45.3947544395592
321.52280140723;45.1592947328363
321.544404786766;44.9177370556617
321.566008166302;44.6607759893782
321.587611545838;44.371543835626
321.609214925374;44.0581793306594
321.63081830491;43.7219460077301
321.652421684447;43.3692757625566
321.674025063983;43.0115973249699
321.695628443519;42.661365902429
321.717231823055;42.318390400725
321.738835202591;41.9858648204599
321.760438582127;41.6696519808432
321.782041961663;41.3799578235482
321.803645341199;41.1334401801631
321.825248720736;40.9370434033354
321.846852100272;40.7877110402574
321.868455479808;40.6775162209661
321.890058859344;40.5928782084494
321.91166223888;40.5191763851655
321.933265618416;40.4602013961838
321.954868997952;40.4315510536129
321.976472377489;40.438714924537
321.998075757025;40.4780473773353
322.019679136561;40.5411548184733
322.041282516097;40.6122984960284
322.062885895633;40.6852552459645
322.084489275169;40.7794285338352
322.106092654705;40.9067646958343
322.127696034241;41.0592875671478
322.149299413778;41.2304249791107
322.170902793314;41.4225583650749
322.19250617285;41.6322803746095
322.214109552386;41.8443941990977
322.235712931922;42.0699954139938
322.257316311458;42.3160908946311
322.278919690994;42.5676035492753
322.30052307053;42.8079649345043
322.322126450067;43.0340121680545
322.343729829603;43.2543940409594
322.365333209139;43.4810808229513
322.386936588675;43.7099366942183
322.408539968211;43.9263316942027
322.430143347747;44.1247095270348
322.451746727283;44.3162401643309
322.473350106819;44.5171519378895
322.494953486356;44.7423997177133
322.516556865892;44.9957513301328
322.538160245428;45.2818071280955
322.559763624964;45.6146150076931
322.5813670045;46.0049891524208
322.602970384036;46.4453669851914
322.624573763572;46.9225526301838
322.646177143109;47.4419175691171
322.667780522645;48.0113498777873
322.689383902181;48.6327512643504
322.710987281717;49.2996276591905
322.732590661253;50.0072288988495
322.754194040789;50.7195862125869
322.775797420325;51.4072522819943
322.797400799861;52.0798069541597
322.819004179398;52.7691782386209
322.840607558934;53.4673961695285
322.86221093847;54.1366140845389
322.883814318006;54.7512575844145
322.905417697542;55.3045973532932
322.927021077078;55.8053356298593
322.948624456614;56.2576857162509
322.97022783615;56.6640501528364
322.991831215687;57.0353300440242
323.013434595223;57.3888834714246
323.035037974759;57.7443617185057
323.056641354295;58.1166637014809
323.078244733831;58.5064845315774
323.099848113367;58.9108088255942
323.121451492903;59.3537723149704
323.143054872439;59.8638145421891
323.164658251976;60.4458884209575
323.186261631512;61.0776049521146
323.207865011048;61.7611906964219
323.229468390584;62.5223875889268
323.25107177012;63.3779058261531
323.272675149656;64.3035721865985
323.294278529192;65.2694256890903
323.315881908729;66.2704990104387
323.337485288265;67.3059814915208
323.359088667801;68.3696183139626
323.380692047337;69.4572663721578
323.402295426873;70.5447332613292
323.423898806409;71.5895471608181
323.445502185945;72.581269920033
323.467105565481;73.5106144049064
323.488708945017;74.382341833654
323.510312324554;75.2165973859846
323.53191570409;76.0419988179491
323.553519083626;76.8724955945361
323.575122463162;77.6888650959825
323.596725842698;78.4670932114068
323.618329222234;79.2014333655451
323.63993260177;79.9091375693701
323.661535981307;80.6187107206123
323.683139360843;81.3621784719418
323.704742740379;82.1679390293106
323.726346119915;83.0370033448336
323.747949499451;83.9418671739576
323.769552878987;84.8371457546331
323.791156258523;85.7147837836226
323.812759638059;86.6008123172594
323.834363017596;87.5046953343121
323.855966397132;88.4344399920049
323.877569776668;89.3704268902739
323.899173156204;90.3170141339023
323.92077653574;91.2846568245859
323.942379915276;92.2446784707372
323.963983294812;93.1878122337141
323.985586674348;94.1294500359555
324.007190053885;95.0492329516054
324.028793433421;95.9117864414567
324.050396812957;96.7075493298545
324.072000192493;97.4519102362437
324.093603572029;98.1403508676267
324.115206951565;98.7467270412899
324.136810331101;99.2718590414512
324.158413710637;99.7254093775884
324.180017090174;100.111361923676
324.20162046971;100.425752919623
324.223223849246;100.678806184228
324.244827228782;100.88399654941
324.266430608318;101.050156129516
324.288033987854;101.189321706482
324.30963736739;101.313177133136
324.331240746927;101.424311536953
324.352844126463;101.526156409674
324.374447505999;101.623068710151
324.396050885535;101.713773238896
324.417654265071;101.791770870551
324.439257644607;101.845258123633
324.460861024143;101.857781222053
324.482464403679;101.823884651197
324.504067783216;101.74299765106
324.525671162752;101.591714031837
324.547274542288;101.354466476619
324.568877921824;101.008476861721
324.59048130136;100.584340203162
324.612084680896;100.087605611914
324.633688060432;99.4962231920755
324.655291439968;98.8186366990234
324.676894819505;98.1000698932694
324.698498199041;97.3453102596154
324.720101578577;96.5457448265893
324.741704958113;95.7176343462209
