Name;BF_ESR_01_900s_Y_gon_20dg_result

Recipe
Accumulations;5;Number of accumulations
RetryCount;0;Number of retries on error
AbortOnError;True;Abort on error
EnableQFactorMeasurement;False;Enable/Disable q-Factor measurement
Bfrom;313;B from
Bto;363;B to
SweepTime;60;Sweep time
Modulation;0.2;Modulation
ModulationFreq;100;Modulation
BHoldEnabled;False;B hold enabled
BHold;0;B hold
MicrowavePower;2;Microwave power
MarkerEnabled;False;
MarkerStartField;0;
MarkerEndField;0;
Mode;;
KineticGFact;0;
KineticTotalTransientTime;0;
KineticTimeResolution;0;
TempFrom;5;
TempUseSlope;False;
TempTo;5;
TempdT;1;
TempSetupTime;0;
GonFrom;0;
GonTo;180;
GonSteps;20;
XRayEnabled;False;
XRayTime;3;
XRayVoltage;40;
XRayCurrent;0.5;
UVEnabled;False;
UVIntensity;0;
UVTime;0;
UVLeadTime;0;
UVWavelength;0;
PowSweepFrom;1;
PowSweepTo;5;
PowSweepSteps;5;
AmpModSweepFrom;0;
AmpModSweepTo;1;
AmpModSweepSteps;10;
ExtTriggerEnabled;False;
ExtTrigLeadTime;0;
ExtTrigOnTime;5;

Meas
BField [mT];MW_Absorption []
313.023332366943;52.8811026710477
313.044950318974;52.4445460858515
313.066568271005;51.8821558204284
313.088186223035;51.202689754033
313.109804175066;50.4446934427602
313.131422127097;49.6295490026756
313.153040079128;48.788012594193
313.174658031158;47.9303886801822
313.196275983189;47.0807990511991
313.21789393522;46.2950742709521
313.23951188725;45.5484743698927
313.261129839281;44.8144275721196
313.282747791312;44.0994101876018
313.304365743342;43.4454311288555
313.325983695373;42.883975926433
313.347601647404;42.4031457016818
313.369219599435;41.9974448721479
313.390837551465;41.6821377537532
313.412455503496;41.4604488158708
313.434073455527;41.3160340573243
313.455691407557;41.2277847543662
313.477309359588;41.1836615590763
313.498927311619;41.1791753144489
313.520545263649;41.2063387393401
313.54216321568;41.2542035425628
313.563781167711;41.3138046157125
313.585399119742;41.3743097439473
313.607017071772;41.4247295371013
313.628635023803;41.4576849494248
313.650252975834;41.4702872494742
313.671870927864;41.4633676887005
313.693488879895;41.4360821522073
313.715106831926;41.3920717693437
313.736724783956;41.3359620178551
313.758342735987;41.2748027078487
313.779960688018;41.2204210188293
313.801578640048;41.1752463606094
313.823196592079;41.1371796450183
313.84481454411;41.1188092672501
313.866432496141;41.1297944922425
313.888050448171;41.1555971597968
313.909668400202;41.1840120649959
313.931286352233;41.2189555011219
313.952904304263;41.2649322305238
313.974522256294;41.314955677539
313.996140208325;41.3624567883164
314.017758160355;41.3970528999538
314.039376112386;41.4152369029417
314.060994064417;41.42870365318
314.082612016448;41.4462387841827
314.104229968478;41.4752258312941
314.125847920509;41.5152476835026
314.14746587254;41.54904216672
314.16908382457;41.5676191909287
314.190701776601;41.5738260101771
314.212319728632;41.5719122461131
314.233937680662;41.5688272289765
314.255555632693;41.5579108220411
314.277173584724;41.5311995562171
314.298791536755;41.4981185352229
314.320409488785;41.4728178248533
314.342027440816;41.4635429843221
314.363645392847;41.4700707700306
314.385263344877;41.4840371013693
314.406881296908;41.5063806258189
314.428499248939;41.5509059056783
314.450117200969;41.6120776249508
314.471735153;41.6813259869174
314.493353105031;41.7524437685908
314.514971057062;41.8236382040115
314.536589009092;41.8805188652973
314.558206961123;41.9052134306892
314.579824913154;41.8968801328636
314.601442865184;41.8633285218069
314.623060817215;41.8133247316771
314.644678769246;41.7500838100221
314.666296721276;41.6685020348935
314.687914673307;41.5682861945232
314.709532625338;41.4714352114168
314.731150577369;41.3900278878848
314.752768529399;41.3156505811966
314.77438648143;41.2517628390012
314.796004433461;41.2020747937182
314.817622385491;41.1647458948414
314.839240337522;41.1418495316271
314.860858289553;41.1247438018864
314.882476241583;41.1001464806354
314.904094193614;41.0659749155152
314.925712145645;41.0231844726932
314.947330097676;40.9755320476992
314.968948049706;40.924565152093
314.990566001737;40.8644044856238
315.012183953768;40.7891749927807
315.033801905798;40.7019059039202
315.055419857829;40.6052309901824
315.07703780986;40.4983103435662
315.09865576189;40.3810771073795
315.120273713921;40.2568992639682
315.141891665952;40.1281830244075
315.163509617983;39.9975457762898
315.185127570013;39.8684434846753
315.206745522044;39.7421090647712
315.228363474075;39.6192343216053
315.249981426105;39.4996718133633
315.271599378136;39.3841943730657
315.293217330167;39.278007524919
315.314835282197;39.1845078087254
315.336453234228;39.1025747489373
315.358071186259;39.0294184928561
315.37968913829;38.9680660635997
315.40130709032;38.9292315740937
315.422925042351;38.9182363359667
315.444542994382;38.9339420697336
315.466160946412;38.9507391735756
315.487778898443;38.9642071192982
315.509396850474;38.9805538949783
315.531014802504;38.9961641600873
315.552632754535;39.0034503396062
315.574250706566;39.00526809107
315.595868658596;39.0014174620072
315.617486610627;38.985122371085
315.639104562658;38.9492222573611
315.660722514689;38.8951321404657
315.682340466719;38.8307131798114
315.70395841875;38.7595809285741
315.725576370781;38.6735552487017
315.747194322811;38.570542142966
315.768812274842;38.4616546034552
315.790430226873;38.3537427012538
315.812048178903;38.2409056678927
315.833666130934;38.1177916831634
315.855284082965;37.9833066605867
315.876902034996;37.8351266658522
315.898519987026;37.6696822326024
315.920137939057;37.4867632624138
315.941755891088;37.2922208200021
315.963373843118;37.0955545549422
315.984991795149;36.8951433101364
316.00660974718;36.6875917032998
316.02822769921;36.481259136658
316.049845651241;36.2810361538742
316.071463603272;36.0902498299359
316.093081555303;35.9193795737927
316.114699507333;35.7780240120249
316.136317459364;35.6697323852632
316.157935411395;35.5946538736853
316.179553363425;35.5464915668837
316.201171315456;35.5194537981009
316.222789267487;35.5164085013316
316.244407219517;35.5381572632092
316.266025171548;35.5773364877818
316.287643123579;35.6271244455104
316.30926107561;35.6803878912215
316.33087902764;35.7283030984327
316.352496979671;35.7676441696782
316.374114931702;35.7949089524786
316.395732883732;35.8115922796471
316.417350835763;35.827610682061
316.438968787794;35.847919274808
316.460586739824;35.8718283602643
316.482204691855;35.9010584138985
316.503822643886;35.9427609101052
316.525440595917;35.9984025982233
316.547058547947;36.07166835632
316.568676499978;36.1790288453778
316.590294452009;36.3183896652889
316.611912404039;36.4580644351906
316.63353035607;36.6006846744788
316.655148308101;36.7502399360043
316.676766260131;36.8844988104088
316.698384212162;37.0042516820581
316.720002164193;37.1205982396595
316.741620116223;37.2331914393515
316.763238068254;37.331793197092
316.784856020285;37.4149841713427
316.806473972316;37.4864426042069
316.828091924346;37.535614392788
316.849709876377;37.556217579242
316.871327828408;37.553354206743
316.892945780438;37.5333145210026
316.914563732469;37.4937355714416
316.9361816845;37.4290634307446
316.95779963653;37.334853351831
316.979417588561;37.2069012169727
317.001035540592;37.0548794806978
317.022653492623;36.8926057208746
317.044271444653;36.7240712699403
317.065889396684;36.5488196675276
317.087507348715;36.3671396237243
317.109125300745;36.1940338661804
317.130743252776;36.0546483596293
317.152361204807;35.9668726819851
317.173979156837;35.9365431277834
317.195597108868;35.9559395627741
317.217215060899;36.0186900225393
317.23883301293;36.1274792816198
317.26045096496;36.2787470149027
317.282068916991;36.4611542707197
317.303686869022;36.6650482588708
317.325304821052;36.8802637317225
317.346922773083;37.09333226059
317.368540725114;37.2951145123103
317.390158677144;37.4761439862061
317.411776629175;37.6282183344869
317.433394581206;37.7466096841031
317.455012533237;37.8315110816824
317.476630485267;37.8858024330112
317.498248437298;37.9134743983489
317.519866389329;37.9180934874548
317.541484341359;37.8989741997921
317.56310229339;37.8531884327187
317.584720245421;37.7787041598737
317.606338197451;37.6724600850833
317.627956149482;37.5357291215631
317.649574101513;37.374735542738
317.671192053544;37.2002182108052
317.692810005574;37.0184420465203
317.714427957605;36.827046631234
317.736045909636;36.6207255838282
317.757663861666;36.4052393666601
317.779281813697;36.1954883087263
317.800899765728;36.0033147427505
317.822517717758;35.837600277408
317.844135669789;35.7013259421014
317.86575362182;35.5964336844089
317.887371573851;35.5228736938896
317.908989525881;35.4689140609938
317.930607477912;35.4291809949168
317.952225429943;35.4082565572223
317.973843381973;35.4083678182689
317.995461334004;35.4253875280521
318.017079286035;35.458162009608
318.038697238065;35.5079630618651
318.060315190096;35.5800873630514
318.081933142127;35.6848178125001
318.103551094158;35.8284426990812
318.125169046188;36.010194758302
318.146786998219;36.2261952522784
318.16840495025;36.476571370492
318.19002290228;36.7606760548399
318.211640854311;37.0735632416498
318.233258806342;37.4250334388004
318.254876758372;37.7942064922243
318.276494710403;38.1619550075011
318.298112662434;38.5149669968641
318.319730614465;38.8469720176179
318.341348566495;39.1536126681616
318.362966518526;39.4307908449963
318.384584470557;39.6770692142614
318.406202422587;39.8946649598554
318.427820374618;40.0782821346346
318.449438326649;40.220831938681
318.471056278679;40.3215025962888
318.49267423071;40.3804105627379
318.514292182741;40.4064549935889
318.535910134771;40.4116451765399
318.557528086802;40.398437468677
318.579146038833;40.3648431332926
318.600763990864;40.3032770337447
318.622381942894;40.2197427919325
318.643999894925;40.1296861522788
318.665617846956;40.0308429561044
318.687235798986;39.9106209442207
318.708853751017;39.7652607673485
318.730471703048;39.5967288347358
318.752089655078;39.4099466522488
318.773707607109;39.2081697098006
318.79532555914;38.9947667141351
318.816943511171;38.7925785334273
318.838561463201;38.6096726470474
318.860179415232;38.4438633105272
318.881797367263;38.2947763582549
318.903415319293;38.1667278062409
318.925033271324;38.074149800842
318.946651223355;38.0296652462101
318.968269175385;38.0317591631258
318.989887127416;38.080732129553
319.011505079447;38.1815771164846
319.033123031478;38.3153837413218
319.054740983508;38.4626663762468
319.076358935539;38.6209072590562
319.09797688757;38.7879591216742
319.1195948396;38.9516933837709
319.141212791631;39.101823108704
319.162830743662;39.2362908293762
319.184448695692;39.3611372254346
319.206066647723;39.4784641080666
319.227684599754;39.5809754638443
319.249302551785;39.6641638102392
319.270920503815;39.7364782223435
319.292538455846;39.8034865924896
319.314156407877;39.8643403837427
319.335774359907;39.9243789533509
319.357392311938;39.9854026981035
319.379010263969;40.0348079244363
319.400628215999;40.0580890086883
319.42224616803;40.0553506868855
319.443864120061;40.0242669650487
319.465482072092;39.9520458472771
319.487100024122;39.8271508928686
319.508717976153;39.6558491896984
319.530335928184;39.4544474131438
319.551953880214;39.226434465734
319.573571832245;38.9634751267186
319.595189784276;38.6642975917643
319.616807736306;38.3492097610464
319.638425688337;38.036359460777
319.660043640368;37.7226139522098
319.681661592398;37.4018746875991
319.703279544429;37.0867172935241
319.72489749646;36.7887072485518
319.746515448491;36.5204326789061
319.768133400521;36.2894747984814
319.789751352552;36.0867891351803
319.811369304583;35.895622525436
319.832987256613;35.7114376956793
319.854605208644;35.5410407270535
319.876223160675;35.3819811135053
319.897841112706;35.2112520564964
319.919459064736;35.0180945165401
319.941077016767;34.8028979823615
319.962694968798;34.569566281159
319.984312920828;34.3355735891628
320.005930872859;34.1104997463271
320.02754882489;33.8954270917648
320.04916677692;33.6937590101717
320.070784728951;33.5131121424121
320.092402680982;33.3588477722607
320.114020633013;33.2357152641369
320.135638585043;33.1475899623137
320.157256537074;33.0969486612948
320.178874489105;33.0784693398714
320.200492441135;33.0855547530836
320.222110393166;33.1155957603816
320.243728345197;33.1690064844715
320.265346297227;33.2400673551173
320.286964249258;33.3066857895904
320.308582201289;33.3716422627793
320.330200153319;33.4442455333527
320.35181810535;33.5317168649946
320.373436057381;33.6388045266245
320.395054009412;33.7627911076117
320.416671961442;33.9013403435793
320.438289913473;34.06999760104
320.459907865504;34.2811739360003
320.481525817534;34.531140351992
320.503143769565;34.807792119673
320.524761721596;35.1005042009955
320.546379673626;35.39646153755
320.567997625657;35.6771442221114
320.589615577688;35.9346676452978
320.611233529719;36.1682687872192
320.632851481749;36.3775364809333
320.65446943378;36.5597393426826
320.676087385811;36.7089189405882
320.697705337841;36.8175682888619
320.719323289872;36.8907342465304
320.740941241903;36.9410310396398
320.762559193933;36.9772127982643
320.784177145964;37.0054955661338
320.805795097995;37.0371558387387
320.827413050026;37.0786944051252
320.849031002056;37.1260961700848
320.870648954087;37.1762450711497
320.892266906118;37.2304729338648
320.913884858148;37.2930021714173
320.935502810179;37.3671254332774
320.95712076221;37.4455898385164
320.97873871424;37.5214882773193
321.000356666271;37.5896592252163
321.021974618302;37.647054893773
321.043592570333;37.6928208154487
321.065210522363;37.7241561660255
321.086828474394;37.7432414088216
321.108446426425;37.7618152982915
321.130064378455;37.7889886984206
321.151682330486;37.8238574346778
321.173300282517;37.8611329256974
321.194918234547;37.8929137957066
321.216536186578;37.912653597361
321.238154138609;37.9318361545347
321.25977209064;37.9508413599313
321.28139004267;37.9467300338944
321.303007994701;37.918461342773
321.324625946732;37.8711594851103
321.346243898762;37.7997552626483
321.367861850793;37.7036331331616
321.389479802824;37.5824199756661
321.411097754854;37.4354671410871
321.432715706885;37.2657538764984
321.454333658916;37.0674026952187
321.475951610946;36.8374271269999
321.497569562977;36.5846811853749
321.519187515008;36.3260708073246
321.540805467039;36.0754829490322
321.562423419069;35.8396589264015
321.5840413711;35.6187073792963
321.605659323131;35.4119416312749
321.627277275161;35.2225511805846
321.648895227192;35.062493624485
321.670513179223;34.9366224666601
321.692131131253;34.8425891127348
321.713749083284;34.7823729258596
321.735367035315;34.7537683746098
321.756984987346;34.7502742254861
321.778602939376;34.7691017616727
321.800220891407;34.8051193867211
321.821838843438;34.8566090098884
321.843456795468;34.9105689985259
321.865074747499;34.9630499871024
321.88669269953;35.0199800967075
321.90831065156;35.084536190485
321.929928603591;35.1536271850386
321.951546555622;35.1982951110226
321.973164507653;35.2041185841364
321.994782459683;35.1696734460932
322.016400411714;35.096916935974
322.038018363745;34.9822569966166
322.059636315775;34.8155535146429
322.081254267806;34.5922489541143
322.102872219837;34.3148558021178
322.124490171867;33.9930952583439
322.146108123898;33.6324129693503
322.167726075929;33.2310141850187
322.18934402796;32.8108207519591
322.21096197999;32.3996450450323
322.232579932021;32.0195435501724
322.254197884052;31.6837880245492
322.275815836082;31.4011548591562
322.297433788113;31.169956120106
322.319051740144;30.9935176639272
322.340669692174;30.8727979426625
322.362287644205;30.8114366611906
322.383905596236;30.8215900080131
322.405523548267;30.9069218155928
322.427141500297;31.0597256594975
322.448759452328;31.2720635735496
322.470377404359;31.5290306268849
322.491995356389;31.8173880904938
322.51361330842;32.1320538465541
322.535231260451;32.4677413094252
322.556849212481;32.8168782640507
322.578467164512;33.1796096838285
322.600085116543;33.5549881582636
322.621703068574;33.935088952565
322.643321020604;34.3109209761623
322.664938972635;34.6651227144281
322.686556924666;34.9903267538247
322.708174876696;35.2961206907051
322.729792828727;35.5798329409511
322.751410780758;35.8225514316644
322.773028732788;36.0295294799095
322.794646684819;36.191398197852
322.81626463685;36.3099045433841
322.837882588881;36.3999247926177
322.859500540911;36.4673123378846
322.881118492942;36.503450642528
322.902736444973;36.4988594820764
322.924354397003;36.4500201511208
322.945972349034;36.3664896385029
322.967590301065;36.269620415922
322.989208253095;36.1582488806124
323.010826205126;36.0255609408477
323.032444157157;35.8725057178217
323.054062109188;35.7026012117232
323.075680061218;35.5211656876719
323.097298013249;35.3329099117083
323.11891596528;35.1407477085639
323.14053391731;34.9504441463243
323.162151869341;34.7738345184003
323.183769821372;34.6156508227885
323.205387773402;34.4656053423137
323.227005725433;34.3190419060838
323.248623677464;34.1844459081755
323.270241629494;34.0604418370635
323.291859581525;33.9329061129956
323.313477533556;33.8050442607625
323.335095485587;33.6908307021625
323.356713437617;33.5933986716077
323.378331389648;33.5049740470306
323.399949341679;33.4230147712697
323.421567293709;33.3477257437771
323.44318524574;33.2770880603628
323.464803197771;33.2056484217869
323.486421149801;33.1260948968176
323.508039101832;33.0388469673922
323.529657053863;32.9434410023389
323.551275005894;32.8294245273294
323.572892957924;32.6840986419928
323.594510909955;32.507394028145
323.616128861986;32.3162512803157
323.637746814016;32.1211682594241
323.659364766047;31.920087901954
323.680982718078;31.7116752359349
323.702600670108;31.5041499197015
323.724218622139;31.3124591532045
323.74583657417;31.1480671867844
323.767454526201;31.0235637694077
323.789072478231;30.9451553602359
323.810690430262;30.9084387686874
323.832308382293;30.9121541726632
323.853926334323;30.9733197581216
323.875544286354;31.0971048021981
323.897162238385;31.2645919543032
323.918780190415;31.4640846516508
323.940398142446;31.694875323266
323.962016094477;31.9548575352423
323.983634046508;32.2256534591814
324.005251998538;32.4887811378675
324.026869950569;32.7364548834601
324.0484879026;32.956900414375
324.07010585463;33.1341641910047
324.091723806661;33.2635161572643
324.113341758692;33.3552431275961
324.134959710722;33.4182798297269
324.156577662753;33.4554264611103
324.178195614784;33.4711354449318
324.199813566815;33.4781336560141
324.221431518845;33.4891312263843
324.243049470876;33.5155405489845
324.264667422907;33.5640739062666
324.286285374937;33.6355751009584
324.307903326968;33.7336308662619
324.329521278999;33.861271377856
324.351139231029;34.0159341825736
324.37275718306;34.1935784226977
324.394375135091;34.3913598895433
324.415993087121;34.6071301408218
324.437611039152;34.8425543288215
324.459228991183;35.1016518967654
324.480846943214;35.3674586569513
324.502464895244;35.622199552463
324.524082847275;35.8647743167213
324.545700799306;36.0935359850701
324.567318751336;36.3005214721482
324.588936703367;36.4720720391313
324.610554655398;36.5905958624142
324.632172607428;36.6441118714162
324.653790559459;36.6285118731732
324.67540851149;36.5428409789469
324.697026463521;36.3858329174204
324.718644415551;36.1583233393721
324.740262367582;35.8725891927126
324.761880319613;35.547043982799
324.783498271643;35.1978046632106
