Name;BF_ESR_01_90s_X_gon_180dg_result

Recipe
Accumulations;5;Number of accumulations
RetryCount;0;Number of retries on error
AbortOnError;True;Abort on error
EnableQFactorMeasurement;False;Enable/Disable q-Factor measurement
Bfrom;313;B from
Bto;363;B to
SweepTime;60;Sweep time
Modulation;0.2;Modulation
ModulationFreq;100;Modulation
BHoldEnabled;False;B hold enabled
BHold;0;B hold
MicrowavePower;2;Microwave power
MarkerEnabled;False;
MarkerStartField;0;
MarkerEndField;0;
Mode;;
KineticGFact;0;
KineticTotalTransientTime;0;
KineticTimeResolution;0;
TempFrom;5;
TempUseSlope;False;
TempTo;5;
TempdT;1;
TempSetupTime;0;
GonFrom;0;
GonTo;180;
GonSteps;20;
XRayEnabled;False;
XRayTime;3;
XRayVoltage;40;
XRayCurrent;0.5;
UVEnabled;False;
UVIntensity;0;
UVTime;0;
UVLeadTime;0;
UVWavelength;0;
PowSweepFrom;1;
PowSweepTo;5;
PowSweepSteps;5;
AmpModSweepFrom;0;
AmpModSweepTo;1;
AmpModSweepSteps;10;
ExtTriggerEnabled;False;
ExtTrigLeadTime;0;
ExtTrigOnTime;5;

Meas
BField [mT];MW_Absorption []
313.032230148315;146.876273023817
313.053842659277;146.504866704989
313.075455170239;146.106075739069
313.097067681201;145.685263606753
313.118680192162;145.24496616968
313.140292703124;144.788427994638
313.161905214086;144.324016123051
313.183517725048;143.866554416631
313.20513023601;143.433056233888
313.226742746971;143.027349521446
313.248355257933;142.652687357422
313.269967768895;142.311488452467
313.291580279857;141.996533094931
313.313192790818;141.704217676659
313.33480530178;141.440646236764
313.356417812742;141.210961005119
313.378030323704;141.01068803018
313.399642834665;140.827705031697
313.421255345627;140.646804255699
313.442867856589;140.457442889155
313.464480367551;140.256969462373
313.486092878513;140.042362794903
313.507705389474;139.80745468773
313.529317900436;139.545008798963
313.550930411398;139.2512079551
313.57254292236;138.943884798347
313.594155433321;138.637805611311
313.615767944283;138.32289982544
313.637380455245;138.01355350113
313.658992966207;137.731374167038
313.680605477168;137.478486670409
313.70221798813;137.263469908418
313.723830499092;137.094620853451
313.745443010054;136.979674415522
313.767055521015;136.92528353908
313.788668031977;136.931501678457
313.810280542939;137.003980635533
313.831893053901;137.14068892169
313.853505564863;137.339507075228
313.875118075824;137.559874415761
313.896730586786;137.789313762832
313.918343097748;138.035360456609
313.93995560871;138.302936501321
313.961568119671;138.582140670846
313.983180630633;138.866394853032
314.004793141595;139.152083088473
314.026405652557;139.436394501245
314.048018163518;139.719567809278
314.06963067448;140.014304102445
314.091243185442;140.318822347638
314.112855696404;140.605158122913
314.134468207366;140.861876589555
314.156080718327;141.10146106743
314.177693229289;141.332348934905
314.199305740251;141.544566585844
314.220918251213;141.728192567253
314.242530762174;141.885617411417
314.264143273136;142.02130731476
314.285755784098;142.1355123492
314.30736829506;142.228569715646
314.328980806021;142.310057668536
314.350593316983;142.392517468283
314.372205827945;142.490015419672
314.393818338907;142.61896197204
314.415430849868;142.793108344398
314.43704336083;143.017587910907
314.458655871792;143.294927677863
314.480268382754;143.629130422059
314.501880893716;144.015215060156
314.523493404677;144.434209359889
314.545105915639;144.878718073578
314.566718426601;145.33536338944
314.588330937563;145.7788558555
314.609943448524;146.192607935222
314.631555959486;146.568197503542
314.653168470448;146.901244800751
314.67478098141;147.177515815127
314.696393492371;147.370561560666
314.718006003333;147.483555765094
314.739618514295;147.532806772599
314.761231025257;147.529805259627
314.782843536218;147.488099110107
314.80445604718;147.424918105226
314.826068558142;147.352548630254
314.847681069104;147.271686849714
314.869293580066;147.185394728067
314.890906091027;147.108178064773
314.912518601989;147.046283026936
314.934131112951;147.002616397486
314.955743623913;146.962569809697
314.977356134874;146.90717972937
314.998968645836;146.833503356852
315.020581156798;146.75081385284
315.04219366776;146.65334104409
315.063806178721;146.533524137051
315.085418689683;146.384678032722
315.107031200645;146.199283016997
315.128643711607;145.99113089486
315.150256222568;145.78206683984
315.17186873353;145.574509763202
315.193481244492;145.35428939729
315.215093755454;145.10970779785
315.236706266416;144.851635878771
315.258318777377;144.603901454629
315.279931288339;144.377484697819
315.301543799301;144.173591369822
315.323156310263;143.989814154975
315.344768821224;143.825790426998
315.366381332186;143.685789858759
315.387993843148;143.575369708377
315.40960635411;143.49044841776
315.431218865071;143.420542911945
315.452831376033;143.35738901804
315.474443886995;143.295215244307
315.496056397957;143.227126023484
315.517668908919;143.142656480739
315.53928141988;143.039022632188
315.560893930842;142.919329307706
315.582506441804;142.783703861454
315.604118952766;142.622854529972
315.625731463727;142.419870963836
315.647343974689;142.171119959674
315.668956485651;141.886273633842
315.690568996613;141.568254798406
315.712181507574;141.222288807398
315.733794018536;140.868839954293
315.755406529498;140.521329233315
315.77701904046;140.181116542862
315.798631551421;139.852144003745
315.820244062383;139.535096990905
315.841856573345;139.235380799486
315.863469084307;138.967276501897
315.885081595269;138.739383063491
315.90669410623;138.543657183724
315.928306617192;138.383784912526
315.949919128154;138.257751371179
315.971531639116;138.15748469788
315.993144150077;138.073806192739
316.014756661039;138.004329857968
316.036369172001;137.951049629568
316.057981682963;137.912090370527
316.079594193924;137.876144547115
316.101206704886;137.831634997439
316.122819215848;137.778601069382
316.14443172681;137.718900304103
316.166044237772;137.645025862336
316.187656748733;137.551995718555
316.209269259695;137.449874779084
316.230881770657;137.345885244419
316.252494281619;137.240860115474
316.27410679258;137.139393454861
316.295719303542;137.043453759848
316.317331814504;136.948121458116
316.338944325466;136.85759789837
316.360556836427;136.78703774322
316.382169347389;136.750307696788
316.403781858351;136.749659532713
316.425394369313;136.782280255741
316.447006880275;136.849657357726
316.468619391236;136.951796850641
316.490231902198;137.086819279363
316.51184441316;137.260246612097
316.533456924122;137.476548603148
316.555069435083;137.722098716016
316.576681946045;137.979996613375
316.598294457007;138.22985733056
316.619906967969;138.453758709375
316.64151947893;138.640682861775
316.663131989892;138.787761425466
316.684744500854;138.883717804889
316.706357011816;138.912665378558
316.727969522777;138.8694815426
316.749582033739;138.762199539146
316.771194544701;138.608238289539
316.792807055663;138.417063668113
316.814419566625;138.207276757646
316.836032077586;137.991387387965
316.857644588548;137.773909745439
316.87925709951;137.564590923761
316.900869610472;137.376971841749
316.922482121433;137.200469741168
316.944094632395;137.029011892709
316.965707143357;136.868611695211
316.987319654319;136.721100499062
317.00893216528;136.563386806
317.030544676242;136.374509481892
317.052157187204;136.148491572624
317.073769698166;135.886602285541
317.095382209127;135.600139349914
317.116994720089;135.288331407448
317.138607231051;134.941566546088
317.160219742013;134.552859262826
317.181832252975;134.131317594271
317.203444763936;133.718370610004
317.225057274898;133.333981196364
317.24666978586;132.971355567116
317.268282296822;132.629145788184
317.289894807783;132.309575490844
317.311507318745;132.009658363969
317.333119829707;131.731852039515
317.354732340669;131.480734034112
317.37634485163;131.248553435933
317.397957362592;131.039028696587
317.419569873554;130.851439037874
317.441182384516;130.672988407375
317.462794895477;130.490659790826
317.484407406439;130.296937254937
317.506019917401;130.084904057326
317.527632428363;129.848257687307
317.549244939325;129.601383691266
317.570857450286;129.367523349105
317.592469961248;129.132403728983
317.61408247221;128.879227736303
317.635694983172;128.60768922004
317.657307494133;128.317406752545
317.678920005095;128.007656899746
317.700532516057;127.680902384907
317.722145027019;127.337973955618
317.74375753798;126.97379292289
317.765370048942;126.580538357851
317.786982559904;126.15485189711
317.808595070866;125.697800148121
317.830207581827;125.214578591203
317.851820092789;124.724539948685
317.873432603751;124.239913934864
317.895045114713;123.757154988437
317.916657625675;123.281548589638
317.938270136636;122.83628249016
317.959882647598;122.441859726126
317.98149515856;122.102049941653
318.003107669522;121.80888376173
318.024720180483;121.555020578872
318.046332691445;121.334431198758
318.067945202407;121.159573786718
318.089557713369;121.034609662363
318.11117022433;120.944115188498
318.132782735292;120.873777793966
318.154395246254;120.828175944149
318.176007757216;120.820806009758
318.197620268178;120.848452845052
318.219232779139;120.898176676529
318.240845290101;120.959048448828
318.262457801063;121.028491873989
318.284070312025;121.106970793925
318.305682822986;121.18946071208
318.327295333948;121.260612981922
318.34890784491;121.305246129251
318.370520355872;121.315827746065
318.392132866833;121.286897611985
318.413745377795;121.214900380826
318.435357888757;121.101457877522
318.456970399719;120.94404999437
318.47858291068;120.73571761268
318.500195421642;120.481386747704
318.521807932604;120.196337690232
318.543420443566;119.893152917929
318.565032954528;119.581248512925
318.586645465489;119.260333730596
318.608257976451;118.923864023963
318.629870487413;118.569959860331
318.651482998375;118.194442138553
318.673095509336;117.788576777016
318.694708020298;117.369906685636
318.71632053126;116.981500320507
318.737933042222;116.626672228727
318.759545553183;116.291370396172
318.781158064145;115.97234165877
318.802770575107;115.681604635868
318.824383086069;115.431978066266
318.845995597031;115.221376014665
318.867608107992;115.036234993253
318.889220618954;114.854561140899
318.910833129916;114.661247083698
318.932445640878;114.462744973789
318.954058151839;114.251142872096
318.975670662801;113.999762805888
318.997283173763;113.691695296253
319.018895684725;113.325367075842
319.040508195686;112.900563100185
319.062120706648;112.422796598634
319.08373321761;111.897670306014
319.105345728572;111.323574353396
319.126958239534;110.707094656348
319.148570750495;110.065787093864
319.170183261457;109.412059253473
319.191795772419;108.757425793895
319.213408283381;108.113342826897
319.235020794342;107.48221688869
319.256633305304;106.861054468793
319.278245816266;106.254444316174
319.299858327228;105.663432827494
319.321470838189;105.088262628095
319.343083349151;104.536998119058
319.364695860113;104.015689372035
319.386308371075;103.527389416927
319.407920882036;103.067731359235
319.429533392998;102.620305100261
319.45114590396;102.170091136774
319.472758414922;101.719516586279
319.494370925884;101.287444679259
319.515983436845;100.881227225993
319.537595947807;100.493979672413
319.559208458769;100.112667328185
319.580820969731;99.713830187919
319.602433480692;99.3026479022449
319.624045991654;98.8872800017931
319.645658502616;98.4729401953276
319.667271013578;98.080472723531
319.688883524539;97.7366963811165
319.710496035501;97.442807960258
319.732108546463;97.1857680314031
319.753721057425;96.9635524636202
319.775333568386;96.7712556442324
319.796946079348;96.6064198951369
319.81855859031;96.4676574638586
319.840171101272;96.354252310563
319.861783612234;96.2600631733904
319.883396123195;96.1799061001305
319.905008634157;96.1119681969887
319.926621145119;96.0499641208982
319.948233656081;95.991355247783
319.969846167042;95.945211898369
319.991458678004;95.9302573691642
320.013071188966;95.952512063872
320.034683699928;96.0045471212894
320.056296210889;96.0896780363736
320.077908721851;96.2189803072463
320.099521232813;96.4001045474736
320.121133743775;96.6280728775205
320.142746254736;96.8907175654754
320.164358765698;97.1843328585307
320.18597127666;97.5200433047043
320.207583787622;97.901690780547
320.229196298584;98.2968333478085
320.250808809545;98.6715962503973
320.272421320507;99.0205545286387
320.294033831469;99.3446786642572
320.315646342431;99.6408818583979
320.337258853392;99.8939294897229
320.358871364354;100.096239749637
320.380483875316;100.253772496883
320.402096386278;100.368526692978
320.423708897239;100.43591695613
320.445321408201;100.463612290712
320.466933919163;100.467136863718
320.488546430125;100.445311891908
320.510158941087;100.396742821712
320.531771452048;100.337037950557
320.55338396301;100.278961766185
320.574996473972;100.222674259958
320.596608984934;100.164450506546
320.618221495895;100.105924405443
320.639834006857;100.05592666197
320.661446517819;100.014750740881
320.683059028781;99.9774110013516
320.704671539742;99.9428934173876
320.726284050704;99.9055633951976
320.747896561666;99.8528010958203
320.769509072628;99.7706284285586
320.791121583589;99.6471250065893
320.812734094551;99.4748544287405
320.834346605513;99.2575854284302
320.855959116475;98.9900329067875
320.877571627437;98.6680861540017
320.899184138398;98.2902359692888
320.92079664936;97.8680991348912
320.942409160322;97.4101838458991
320.964021671284;96.9126898577367
320.985634182245;96.3732969748754
321.007246693207;95.8114885411167
321.028859204169;95.241273417682
321.050471715131;94.657166624027
321.072084226092;94.055666243232
321.093696737054;93.4463617959105
321.115309248016;92.8553182512294
321.136921758978;92.3014182930702
321.158534269939;91.7722898108283
321.180146780901;91.2532036207101
321.201759291863;90.7561946865893
321.223371802825;90.2996717541516
321.244984313787;89.8787029850857
321.266596824748;89.4768107732927
321.28820933571;89.0945594665167
321.309821846672;88.7400663579152
321.331434357634;88.4125813043594
321.353046868595;88.1068904735577
321.374659379557;87.8223299963558
321.396271890519;87.560727334069
321.417884401481;87.3165188971711
321.439496912442;87.0905622617861
321.461109423404;86.8952170370536
321.482721934366;86.7336445518825
321.504334445328;86.5920784327517
321.52594695629;86.4562489820389
321.547559467251;86.3200264903016
321.569171978213;86.1915748114613
321.590784489175;86.0814441129984
321.612397000137;85.9925976773377
321.634009511098;85.9216702830897
321.65562202206;85.8607711604205
321.677234533022;85.8075203641711
321.698847043984;85.7704904716476
321.720459554945;85.7586653597386
321.742072065907;85.7713111422139
321.763684576869;85.8056197109677
321.785297087831;85.8608555516284
321.806909598793;85.9368125207231
321.828522109754;86.0316933505941
321.850134620716;86.143481146567
321.871747131678;86.2704914114803
321.89335964264;86.4097871345589
321.914972153601;86.5616598431706
321.936584664563;86.7238613184419
321.958197175525;86.8932660613321
321.979809686487;87.0673779891518
322.001422197448;87.2429099972738
322.02303470841;87.4208931649329
322.044647219372;87.6036046857967
322.066259730334;87.7870756759874
322.087872241295;87.9683649586157
322.109484752257;88.1429291222878
322.131097263219;88.3003358037788
322.152709774181;88.4281609271009
322.174322285143;88.5235770420879
322.195934796104;88.5869088013351
322.217547307066;88.6116290821666
322.239159818028;88.5900361350259
322.26077232899;88.5214092758669
322.282384839951;88.4059783474663
322.303997350913;88.2403427977085
322.325609861875;88.0196905030262
322.347222372837;87.7499815051014
322.368834883798;87.4493516548365
322.39044739476;87.1219154678651
322.412059905722;86.7616335889924
322.433672416684;86.3736670305009
322.455284927645;85.9805209490941
322.476897438607;85.5853048449144
322.498509949569;85.1779024826799
322.520122460531;84.7618103166103
322.541734971493;84.3267143615982
322.563347482454;83.8571760703545
322.584959993416;83.3571316720523
322.606572504378;82.8452284583733
322.62818501534;82.3274253722058
322.649797526301;81.7861855471903
322.671410037263;81.20143268252
322.693022548225;80.5682560733425
322.714635059187;79.9134610639316
322.736247570148;79.2704478701966
322.75786008111;78.6258463416145
322.779472592072;77.9856906876166
322.801085103034;77.3742133362371
322.822697613996;76.8188285225956
322.844310124957;76.2934104477382
322.865922635919;75.7792528386697
322.887535146881;75.279102258816
322.909147657843;74.7910230829125
322.930760168804;74.3160983730281
322.952372679766;73.8714903082534
322.973985190728;73.4547225626057
322.99559770169;73.0550682446973
323.017210212651;72.6603931313141
323.038822723613;72.260629969594
323.060435234575;71.8539342743932
323.082047745537;71.4352144493905
323.103660256498;71.0021099219098
323.12527276746;70.5645869974209
323.146885278422;70.1304541526466
323.168497789384;69.6797887395797
323.190110300346;69.2419082957366
323.211722811307;68.8647087841872
323.233335322269;68.5419400231547
323.254947833231;68.2616204579422
323.276560344193;68.0213906689475
323.298172855154;67.8418539131835
323.319785366116;67.7278998525358
323.341397877078;67.6725561774231
323.36301038804;67.6760047098776
323.384622899001;67.7291234157882
323.406235409963;67.8170859180527
323.427847920925;67.9283715619557
323.449460431887;68.0502813997037
323.471072942848;68.1577320127962
323.49268545381;68.2413560212029
323.514297964772;68.3043737588711
323.535910475734;68.3409530077533
323.557522986696;68.3482102049112
323.579135497657;68.3295523243453
323.600748008619;68.2965631687617
323.622360519581;68.2619574917526
323.643973030543;68.2303585296296
323.665585541504;68.1976727373396
323.687198052466;68.1765673708566
323.708810563428;68.1780530475754
323.73042307439;68.2141498085341
323.752035585351;68.2982726512212
323.773648096313;68.4306914432764
323.795260607275;68.5988473857788
323.816873118237;68.8072410055224
323.838485629198;69.0648132401487
323.86009814016;69.353805310205
323.881710651122;69.6558308310849
323.903323162084;69.9509638748672
323.924935673046;70.2319391281336
323.946548184007;70.5001213556322
323.968160694969;70.7498321965174
323.989773205931;70.9694555462409
324.011385716893;71.1453496143113
324.032998227854;71.2616290239399
324.054610738816;71.3115206275489
324.076223249778;71.3012570692565
324.09783576074;71.2248750938483
324.119448271701;71.0795974415472
324.141060782663;70.8556108310278
324.162673293625;70.5518548734256
324.184285804587;70.1681315233885
324.205898315549;69.7149519858828
324.22751082651;69.2073345086411
324.249123337472;68.6475676587427
324.270735848434;68.0390846915417
324.292348359396;67.3983258736147
324.313960870357;66.7503188052841
324.335573381319;66.120852519919
324.357185892281;65.5022242718339
324.378798403243;64.8676619253134
324.400410914204;64.2133630125711
324.422023425166;63.5681187952706
324.443635936128;62.9709178420207
324.46524844709;62.4381412225189
324.486860958052;61.9454591209664
324.508473469013;61.4601938561266
324.530085979975;60.9516556459305
324.551698490937;60.4185736661661
324.573311001899;59.8687839013586
324.59492351286;59.2960157293156
324.616536023822;58.6953751553355
324.638148534784;58.0667231830505
324.659761045746;57.4145325957616
324.681373556707;56.7583777885292
324.702986067669;56.1172403334792
324.724598578631;55.4798472053658
324.746211089593;54.8354015045048
324.767823600554;54.1857050356537
324.789436111516;53.5463263163353
