Name;BF_ESR_01_3602s_Y_gon_160dg_result

Recipe
Accumulations;5;Number of accumulations
RetryCount;0;Number of retries on error
AbortOnError;True;Abort on error
EnableQFactorMeasurement;False;Enable/Disable q-Factor measurement
Bfrom;313;B from
Bto;363;B to
SweepTime;60;Sweep time
Modulation;0.2;Modulation
ModulationFreq;100;Modulation
BHoldEnabled;False;B hold enabled
BHold;0;B hold
MicrowavePower;2;Microwave power
MarkerEnabled;False;
MarkerStartField;0;
MarkerEndField;0;
Mode;;
KineticGFact;0;
KineticTotalTransientTime;0;
KineticTimeResolution;0;
TempFrom;5;
TempUseSlope;False;
TempTo;5;
TempdT;1;
TempSetupTime;0;
GonFrom;0;
GonTo;180;
GonSteps;20;
XRayEnabled;False;
XRayTime;3;
XRayVoltage;40;
XRayCurrent;0.5;
UVEnabled;False;
UVIntensity;0;
UVTime;0;
UVLeadTime;0;
UVWavelength;0;
PowSweepFrom;1;
PowSweepTo;5;
PowSweepSteps;5;
AmpModSweepFrom;0;
AmpModSweepTo;1;
AmpModSweepSteps;10;
ExtTriggerEnabled;False;
ExtTrigLeadTime;0;
ExtTrigOnTime;5;

Meas
BField [mT];MW_Absorption []
313.018276519775;71.5201502629371
313.039881867319;70.9586502450833
313.061487214863;70.3339710273935
313.083092562407;69.6219590370304
313.104697909951;68.8366422271248
313.126303257495;68.0260526355851
313.147908605039;67.2137967355684
313.169513952583;66.4064834087618
313.191119300127;65.6161727081579
313.21272464767;64.8408299678942
313.234329995214;64.0988994308201
313.255935342758;63.4348799695646
313.277540690302;62.8836992899755
313.299146037846;62.4412811994651
313.32075138539;62.084931866476
313.342356732934;61.8167756696369
313.363962080478;61.6501402092132
313.385567428022;61.581007851443
313.407172775565;61.5937634073219
313.428778123109;61.6718802389684
313.450383470653;61.8039428548875
313.471988818197;61.9843825735579
313.493594165741;62.1977491070885
313.515199513285;62.4192658056586
313.536804860829;62.6419511381138
313.558410208373;62.8714382724439
313.580015555917;63.0979347274472
313.60162090346;63.2880785257881
313.623226251004;63.4283232498643
313.644831598548;63.5244952806966
313.666436946092;63.5810310699512
313.688042293636;63.5910992524819
313.70964764118;63.5401331214969
313.731252988724;63.4319970242968
313.752858336268;63.275507079964
313.774463683812;63.0793359479437
313.796069031355;62.8623184465412
313.817674378899;62.6414141881818
313.839279726443;62.4212951104329
313.860885073987;62.2055846851163
313.882490421531;62.016428428596
313.904095769075;61.8769972412772
313.925701116619;61.7900160818722
313.947306464163;61.7486727238872
313.968911811707;61.7464919841644
313.99051715925;61.7903547318211
314.012122506794;61.8748070021049
314.033727854338;61.9709942169012
314.055333201882;62.0529707588398
314.076938549426;62.1130000865638
314.09854389697;62.1420377880923
314.120149244514;62.1297831503872
314.141754592058;62.0672968405168
314.163359939602;61.9503833613739
314.184965287145;61.7774071021317
314.206570634689;61.5507514743943
314.228175982233;61.2809553480936
314.249781329777;60.9746572906769
314.271386677321;60.6379645922175
314.292992024865;60.2835031438571
314.314597372409;59.9224791233399
314.336202719953;59.5665694437914
314.357808067497;59.2277009806771
314.37941341504;58.904902502443
314.401018762584;58.5971344296815
314.422624110128;58.3118680090284
314.444229457672;58.051555078466
314.465834805216;57.8218140031159
314.48744015276;57.6290895271051
314.509045500304;57.4673131755423
314.530650847848;57.3235015379145
314.552256195392;57.1899319920046
314.573861542936;57.0706534101773
314.595466890479;56.9751012511179
314.617072238023;56.9040673294244
314.638677585567;56.8495615291096
314.660282933111;56.8115472065913
314.681888280655;56.7789265933417
314.703493628199;56.7560173755329
314.725098975743;56.7473912387368
314.746704323287;56.753930972219
314.76830967083;56.7717402014338
314.789915018374;56.7928904414446
314.811520365918;56.8088678331199
314.833125713462;56.8228930199041
314.854731061006;56.8362454570856
314.87633640855;56.8434941460792
314.897941756094;56.8373308704192
314.919547103638;56.8151145603676
314.941152451182;56.782287578653
314.962757798726;56.7401287378363
314.984363146269;56.6898145901427
315.005968493813;56.6313327440101
315.027573841357;56.5630033336057
315.049179188901;56.4843763663308
315.070784536445;56.3987502065789
315.092389883989;56.3134764766623
315.113995231533;56.2339456459632
315.135600579077;56.1631833829253
315.157205926621;56.0994924103131
315.178811274164;56.0445208948624
315.200416621708;56.0013424737511
315.222021969252;55.9732192634842
315.243627316796;55.9618253585438
315.26523266434;55.9627440866582
315.286838011884;55.9614547840869
315.308443359428;55.9423249059222
315.330048706972;55.9152886723219
315.351654054516;55.8751442492538
315.373259402059;55.8080761942594
315.394864749603;55.703307008972
315.416470097147;55.5634843631531
315.438075444691;55.3957182131413
315.459680792235;55.2090719371334
315.481286139779;55.008817230131
315.502891487323;54.7993305530909
315.524496834867;54.5863141636579
315.546102182411;54.3745379374178
315.567707529954;54.1605300727593
315.589312877498;53.9484540657711
315.610918225042;53.7713362303376
315.632523572586;53.6365758935533
315.65412892013;53.519502961302
315.675734267674;53.404392937066
315.697339615218;53.3052329261972
315.718944962762;53.2532838909012
315.740550310306;53.2535901175367
315.762155657849;53.3043177336586
315.783761005393;53.3922195427954
315.805366352937;53.4887253239008
315.826971700481;53.5845074451921
315.848577048025;53.6747553445433
315.870182395569;53.7589585299231
315.891787743113;53.8342116622858
315.913393090657;53.8962370573114
315.934998438201;53.9312693360047
315.956603785745;53.9262917728029
315.978209133288;53.878586063458
315.999814480832;53.7881958403385
316.021419828376;53.6611921737596
316.04302517592;53.5053657735889
316.064630523464;53.3287597858434
316.086235871008;53.131623999049
316.107841218552;52.9208453929145
316.129446566096;52.7220104263255
316.151051913639;52.5497758486935
316.172657261183;52.4124537399463
316.194262608727;52.3175868773015
316.215867956271;52.2755928146593
316.237473303815;52.2986354617736
316.259078651359;52.3871981971839
316.280683998903;52.5349371198421
316.302289346447;52.7378699877579
316.323894693991;52.9876140161064
316.345500041535;53.2702607390841
316.367105389078;53.5636884542872
316.388710736622;53.8443220770209
316.410316084166;54.1010759502744
316.43192143171;54.3284800774985
316.453526779254;54.5156658786921
316.475132126798;54.6419442863178
316.496737474342;54.6979369148916
316.518342821886;54.691864635528
316.53994816943;54.6312363632812
316.561553516973;54.5196503240205
316.583158864517;54.3675486484217
316.604764212061;54.1902080830964
316.626369559605;54.0007325584285
316.647974907149;53.8060592891709
316.669580254693;53.6038602992922
316.691185602237;53.3918839297058
316.712790949781;53.1866425308776
316.734396297325;53.0105320545286
316.756001644868;52.8686784333769
316.777606992412;52.7560162057133
316.799212339956;52.6713947248833
316.8208176875;52.6209667843762
316.842423035044;52.6066494163728
316.864028382588;52.6232912315572
316.885633730132;52.6594385516578
316.907239077676;52.7057471554085
316.92884442522;52.7574344214668
316.950449772763;52.7959722185621
316.972055120307;52.8104913683771
316.993660467851;52.8101622511188
317.015265815395;52.7864547063914
317.036871162939;52.7039811113116
317.058476510483;52.5624863153177
317.080081858027;52.3700427932785
317.101687205571;52.1317369766364
317.123292553115;51.8643066535569
317.144897900658;51.5765728676266
317.166503248202;51.2823272125333
317.188108595746;51.0005374944043
317.20971394329;50.733557361923
317.231319290834;50.4752219353373
317.252924638378;50.2371022516518
317.274529985922;50.0438399315645
317.296135333466;49.9017502022351
317.31774068101;49.8064467748801
317.339346028553;49.7554160384788
317.360951376097;49.7521241268675
317.382556723641;49.7967364839482
317.404162071185;49.8803279007753
317.425767418729;49.9915367967477
317.447372766273;50.1318313734809
317.468978113817;50.2966562494778
317.490583461361;50.4665736606552
317.512188808905;50.6296522867537
317.533794156448;50.7751446192239
317.555399503992;50.8999864008722
317.577004851536;51.0139866009319
317.59861019908;51.1299902955769
317.620215546624;51.2489285520141
317.641820894168;51.3641514513657
317.663426241712;51.4831648391921
317.685031589256;51.6193966546644
317.7066369368;51.7744914968848
317.728242284343;51.9350509949778
317.749847631887;52.0977510388417
317.771452979431;52.2634937557955
317.793058326975;52.4279507194191
317.814663674519;52.5835660558645
317.836269022063;52.721482557586
317.857874369607;52.8396391935366
317.879479717151;52.9438659412545
317.901085064695;53.0283599942515
317.922690412239;53.0822979717241
317.944295759782;53.1061505113417
317.965901107326;53.112700920097
317.98750645487;53.1255681672589
318.009111802414;53.1534568345882
318.030717149958;53.1852657294696
318.052322497502;53.212176901825
318.073927845046;53.2314772890637
318.09553319259;53.2511117911091
318.117138540134;53.2790758201395
318.138743887677;53.3179415045034
318.160349235221;53.3767445554278
318.181954582765;53.4738447402284
318.203559930309;53.614197379738
318.225165277853;53.7896890544215
318.246770625397;53.985005500346
318.268375972941;54.189410350146
318.289981320485;54.409213767153
318.311586668029;54.6541370978321
318.333192015572;54.9182393855035
318.354797363116;55.1888231589999
318.37640271066;55.458600964936
318.398008058204;55.72469923562
318.419613405748;55.9904292699486
318.441218753292;56.2493081407559
318.462824100836;56.4772799627931
318.48442944838;56.659345364066
318.506034795924;56.7980287760874
318.527640143467;56.8973489894757
318.549245491011;56.9457785907839
318.570850838555;56.927227270277
318.592456186099;56.8396084785885
318.614061533643;56.6764804755219
318.635666881187;56.4337453058012
318.657272228731;56.1224598154851
318.678877576275;55.7596587876717
318.700482923819;55.3658855018997
318.722088271362;54.9602463725207
318.743693618906;54.5414625663379
318.76529896645;54.1050995330751
318.786904313994;53.6617372741965
318.808509661538;53.23778495914
318.830115009082;52.854591183141
318.851720356626;52.5245475409333
318.87332570417;52.2477640641056
318.894931051714;52.0121162887488
318.916536399258;51.8062100204269
318.938141746801;51.6260384624176
318.959747094345;51.4745126974631
318.981352441889;51.3452656661512
319.002957789433;51.2189721233975
319.024563136977;51.0732306924915
319.046168484521;50.8995568505331
319.067773832065;50.6994798607279
319.089379179609;50.4732380505898
319.110984527152;50.2367383868086
319.132589874696;50.0116268358245
319.15419522224;49.7937743373738
319.175800569784;49.5729354085472
319.197405917328;49.3554753104208
319.219011264872;49.1539428658525
319.240616612416;48.9768381846878
319.26222195996;48.8428408690542
319.283827307504;48.7606751337414
319.305432655047;48.7157634720887
319.327038002591;48.6953969083084
319.348643350135;48.6958233710279
319.370248697679;48.713860134889
319.391854045223;48.7495055834343
319.413459392767;48.8042786517965
319.435064740311;48.8845018201405
319.456670087855;48.9910662144617
319.478275435399;49.1184678532973
319.499880782943;49.2558313134136
319.521486130486;49.3991073687568
319.54309147803;49.553236312724
319.564696825574;49.7148300511163
319.586302173118;49.8737225819415
319.607907520662;50.0220960503578
319.629512868206;50.1602248524454
319.65111821575;50.2795798003746
319.672723563294;50.3686870982691
319.694328910838;50.4243958651608
319.715934258381;50.4333005888171
319.737539605925;50.3895459401089
319.759144953469;50.3031796432848
319.780750301013;50.176853718279
319.802355648557;50.0053627470495
319.823960996101;49.7875003113386
319.845566343645;49.5214483162247
319.867171691189;49.2067764810197
319.888777038733;48.8659018234675
319.910382386276;48.520930413093
319.93198773382;48.180027844693
319.953593081364;47.840375848607
319.975198428908;47.5030812670413
319.996803776452;47.1806397959884
320.018409123996;46.8833603951397
320.04001447154;46.6182031597752
320.061619819084;46.3979395561453
320.083225166628;46.2193207590904
320.104830514171;46.07824780132
320.126435861715;45.9706378929439
320.148041209259;45.8836265181978
320.169646556803;45.8053075843708
320.191251904347;45.7305950480997
320.212857251891;45.6534338587834
320.234462599435;45.5631387716226
320.256067946979;45.4547052327769
320.277673294523;45.3249154279297
320.299278642066;45.1650417932062
320.32088398961;44.9693775195424
320.342489337154;44.7401149806327
320.364094684698;44.4766479953907
320.385700032242;44.1790535667181
320.407305379786;43.8636350810303
320.42891072733;43.5313887139639
320.450516074874;43.1934042583568
320.472121422418;42.8814187322055
320.493726769961;42.6158009253828
320.515332117505;42.4014495399242
320.536937465049;42.2346478988549
320.558542812593;42.1082026436523
320.580148160137;42.0228889368616
320.601753507681;41.9896107747764
320.623358855225;42.0143168448516
320.644964202769;42.0962444442862
320.666569550313;42.2192774551511
320.688174897856;42.36031714306
320.7097802454;42.5097656711981
320.731385592944;42.6659396244969
320.752990940488;42.8281672804914
320.774596288032;42.9917140943381
320.796201635576;43.1382578388972
320.81780698312;43.2689525114989
320.839412330664;43.3932693961631
320.861017678208;43.5127477799041
320.882623025752;43.6276225247104
320.904228373295;43.7368934994666
320.925833720839;43.8351876489345
320.947439068383;43.9267475566022
320.969044415927;44.0227933554828
320.990649763471;44.1342984362405
321.012255111015;44.2699372178634
321.033860458559;44.4258284324542
321.055465806103;44.5957303906381
321.077071153647;44.7876759556369
321.09867650119;45.0035346165243
321.120281848734;45.2263318439001
321.141887196278;45.4522970761748
321.163492543822;45.6945021125295
321.185097891366;45.9497267440416
321.20670323891;46.213457355133
321.228308586454;46.4750596433116
321.249913933998;46.7074271665257
321.271519281542;46.9034636915357
321.293124629085;47.0755221132596
321.314729976629;47.2295844709188
321.336335324173;47.3634894388096
321.357940671717;47.4624308437714
321.379546019261;47.5033038700131
321.401151366805;47.4855842486688
321.422756714349;47.4308099629523
321.444362061893;47.3540150480505
321.465967409437;47.2579723506324
321.48757275698;47.1378621649939
321.509178104524;46.9880967761672
321.530783452068;46.8077621814788
321.552388799612;46.6024993858868
321.573994147156;46.3851525974726
321.5955994947;46.1664182568492
321.617204842244;45.950316305368
321.638810189788;45.7391761994266
321.660415537332;45.5322786276599
321.682020884875;45.326736156381
321.703626232419;45.1300843486811
321.725231579963;44.9586238397242
321.746836927507;44.8206837459982
321.768442275051;44.7159853406752
321.790047622595;44.643138658497
321.811652970139;44.6020224244842
321.833258317683;44.5840058495674
321.854863665227;44.5684095040578
321.87646901277;44.5392710553585
321.898074360314;44.4856067852751
321.919679707858;44.3897925783406
321.941285055402;44.2361990144211
321.962890402946;44.0273442115857
321.98449575049;43.766948416423
322.006101098034;43.4416274899042
322.027706445578;43.0325185766791
322.049311793122;42.5491486213177
322.070917140665;42.0174860078468
322.092522488209;41.4499493731374
322.114127835753;40.8651672657976
322.135733183297;40.2775951377179
322.157338530841;39.6921875100912
322.178943878385;39.1171390464014
322.200549225929;38.5707272625863
322.222154573473;38.0774068359855
322.243759921017;37.6546092737454
322.26536526856;37.3089528502794
322.286970616104;37.0476653645075
322.308575963648;36.8719319212814
322.330181311192;36.7625891930839
322.351786658736;36.7056433015939
322.37339200628;36.7017606934904
322.394997353824;36.7386522809711
322.416602701368;36.7913359707961
322.438208048912;36.8378588635046
322.459813396456;36.8642457947278
322.481418743999;36.8691604105391
322.503024091543;36.8455866952626
322.524629439087;36.781258624286
322.546234786631;36.678043817543
322.567840134175;36.5486475508288
322.589445481719;36.4088645965203
322.611050829263;36.2887614001873
322.632656176807;36.2131791778388
322.65426152435;36.1723009864683
322.675866871894;36.1459891016398
322.697472219438;36.134187798174
322.719077566982;36.144852560105
322.740682914526;36.1743222765388
322.76228826207;36.2025965220577
322.783893609614;36.2215500251899
322.805498957158;36.2323337752132
322.827104304702;36.2224456371233
322.848709652246;36.1846827208874
322.870314999789;36.1195975904323
322.891920347333;36.0327190176203
322.913525694877;35.9268424927465
322.935131042421;35.8039793815538
322.956736389965;35.6734585061537
322.978341737509;35.5370379416195
322.999947085053;35.3906955687632
323.021552432597;35.2433820003303
323.043157780141;35.1086288273708
323.064763127684;34.9919117062311
323.086368475228;34.886201524936
323.107973822772;34.8076079547352
323.129579170316;34.7648522229794
323.15118451786;34.7506263990359
323.172789865404;34.7702033022625
323.194395212948;34.8224011569838
323.216000560492;34.8967476299161
323.237605908036;34.9870512028719
323.259211255579;35.0948842434996
323.280816603123;35.2238753205557
323.302421950667;35.3634843837264
323.324027298211;35.5062718815048
323.345632645755;35.6479886921193
323.367237993299;35.7744432179674
323.388843340843;35.8781849789694
323.410448688387;35.9457095796588
323.432054035931;35.9661797701922
323.453659383474;35.936715820025
323.475264731018;35.8644143237831
323.496870078562;35.7541826674377
323.518475426106;35.6102784361929
323.54008077365;35.4447228533848
323.561686121194;35.271611523275
323.583291468738;35.1012509367664
323.604896816282;34.9394170977385
323.626502163826;34.7822554449273
323.648107511369;34.6388436268684
323.669712858913;34.5281589513017
323.691318206457;34.4488502563573
323.712923554001;34.3928852546437
323.734528901545;34.3561896750629
323.756134249089;34.3365780220468
323.777739596633;34.3305517173765
323.799344944177;34.3314078787443
323.820950291721;34.3289047275154
323.842555639265;34.3159386938791
323.864160986808;34.3007768667309
323.885766334352;34.292658489602
323.907371681896;34.2908179058214
323.92897702944;34.2923956590102
323.950582376984;34.2997117818658
323.972187724528;34.3152701455124
323.993793072072;34.348047412185
324.015398419616;34.4045362361909
324.037003767159;34.4855239596605
324.058609114703;34.5735625632063
324.080214462247;34.6457479445419
324.101819809791;34.6971028119655
324.123425157335;34.7264431809573
324.145030504879;34.7351018201221
324.166635852423;34.7276884280085
324.188241199967;34.7022016482553
324.209846547511;34.6456000696549
324.231451895055;34.5590122093608
324.253057242598;34.4467985211557
324.274662590142;34.3136698290359
324.296267937686;34.1658125447496
324.31787328523;34.017795620492
324.339478632774;33.8771678851545
324.361083980318;33.7426912146583
324.382689327862;33.626835470268
324.404294675406;33.5352576919404
324.42590002295;33.463505889907
324.447505370493;33.4111116067121
324.469110718037;33.3793432232078
324.490716065581;33.3674545203042
324.512321413125;33.3742618527675
324.533926760669;33.397604645154
324.555532108213;33.4366806903574
324.577137455757;33.4947127695579
324.598742803301;33.5722396175098
324.620348150845;33.6590150870753
324.641953498388;33.7463125631031
324.663558845932;33.8321954249172
324.685164193476;33.9208876257579
324.70676954102;34.0107844603973
324.728374888564;34.0993092421833
324.749980236108;34.1768194085974
