Name;BF_ESR_01_900s_Y_gon_60dg_result

Recipe
Accumulations;5;Number of accumulations
RetryCount;0;Number of retries on error
AbortOnError;True;Abort on error
EnableQFactorMeasurement;False;Enable/Disable q-Factor measurement
Bfrom;313;B from
Bto;363;B to
SweepTime;60;Sweep time
Modulation;0.2;Modulation
ModulationFreq;100;Modulation
BHoldEnabled;False;B hold enabled
BHold;0;B hold
MicrowavePower;2;Microwave power
MarkerEnabled;False;
MarkerStartField;0;
MarkerEndField;0;
Mode;;
KineticGFact;0;
KineticTotalTransientTime;0;
KineticTimeResolution;0;
TempFrom;5;
TempUseSlope;False;
TempTo;5;
TempdT;1;
TempSetupTime;0;
GonFrom;0;
GonTo;180;
GonSteps;20;
XRayEnabled;False;
XRayTime;3;
XRayVoltage;40;
XRayCurrent;0.5;
UVEnabled;False;
UVIntensity;0;
UVTime;0;
UVLeadTime;0;
UVWavelength;0;
PowSweepFrom;1;
PowSweepTo;5;
PowSweepSteps;5;
AmpModSweepFrom;0;
AmpModSweepTo;1;
AmpModSweepSteps;10;
ExtTriggerEnabled;False;
ExtTrigLeadTime;0;
ExtTrigOnTime;5;

Meas
BField [mT];MW_Absorption []
313.014501876831;57.7992338396506
313.036117735978;57.476082669917
313.057733595125;56.9821996657838
313.079349454271;56.4330060137133
313.100965313418;55.8465029443287
313.122581172565;55.2200630893672
313.144197031712;54.5525011298141
313.165812890859;53.8657131269061
313.187428750006;53.1898720872012
313.209044609152;52.5507616385399
313.230660468299;51.9725986948188
313.252276327446;51.4626079233341
313.273892186593;51.0182978511836
313.29550804574;50.6379881651554
313.317123904886;50.3192316687445
313.338739764033;50.06613159099
313.36035562318;49.8851159631135
313.381971482327;49.7626036877832
313.403587341474;49.6844041168105
313.42520320062;49.6462279978087
313.446819059767;49.6526317531894
313.468434918914;49.7011339756546
313.490050778061;49.7734733883622
313.511666637208;49.8650174783567
313.533282496355;49.9721843421987
313.554898355501;50.0802577331764
313.576514214648;50.1788477969765
313.598130073795;50.2611311956789
313.619745932942;50.3274931920919
313.641361792089;50.3860289522139
313.662977651235;50.4422564287565
313.684593510382;50.4965903898999
313.706209369529;50.5548710004675
313.727825228676;50.6219665559935
313.749441087823;50.6983339095086
313.771056946969;50.7859791048013
313.792672806116;50.8905748884367
313.814288665263;51.0147626158461
313.83590452441;51.149754376669
313.857520383557;51.2915002758404
313.879136242704;51.4368324157527
313.90075210185;51.5828352238572
313.922367960997;51.7211142323889
313.943983820144;51.8360245893106
313.965599679291;51.911361725927
313.987215538438;51.9517519130822
314.008831397584;51.9695809406692
314.030447256731;51.9714474873973
314.052063115878;51.9550774880851
314.073678975025;51.9200928246094
314.095294834172;51.8802950525478
314.116910693318;51.8545744436604
314.138526552465;51.8415538249591
314.160142411612;51.8258934105308
314.181758270759;51.8166908602109
314.203374129906;51.8336957972551
314.224989989053;51.8869922885563
314.246605848199;51.9781739239888
314.268221707346;52.1071373189271
314.289837566493;52.2623608963
314.31145342564;52.4313219814274
314.333069284787;52.6168476273578
314.354685143933;52.8262071395718
314.37630100308;53.0593976576126
314.397916862227;53.305864390758
314.419532721374;53.5542193402281
314.441148580521;53.7971060002849
314.462764439667;54.0364832961806
314.484380298814;54.2732237560809
314.505996157961;54.5028068571077
314.527612017108;54.719451740509
314.549227876255;54.919110212066
314.570843735401;55.0968971435787
314.592459594548;55.2476195971365
314.614075453695;55.365698966421
314.635691312842;55.4421407288445
314.657307171989;55.4639434799664
314.678923031136;55.4308797522193
314.700538890282;55.3517580447198
314.722154749429;55.22875553979
314.743770608576;55.0598918442115
314.765386467723;54.843635608948
314.78700232687;54.5803270247008
314.808618186016;54.2714992449938
314.830234045163;53.9264781610943
314.85184990431;53.5658459331773
314.873465763457;53.2022609991181
314.895081622604;52.8336780936777
314.91669748175;52.4600967869684
314.938313340897;52.0874969941847
314.959929200044;51.726042404132
314.981545059191;51.391292383838
315.003160918338;51.0949292528439
315.024776777485;50.8394058379531
315.046392636631;50.6243606525936
315.068008495778;50.4468205261435
315.089624354925;50.3024946530003
315.111240214072;50.1907518937743
315.132856073219;50.1144081724176
315.154471932365;50.0726327059921
315.176087791512;50.0594678937147
315.197703650659;50.0714174862504
315.219319509806;50.1082868297145
315.240935368953;50.1667052015185
315.262551228099;50.2411737903905
315.284167087246;50.3203487166611
315.305782946393;50.400234703934
315.32739880554;50.483856357246
315.349014664687;50.5770923535512
315.370630523833;50.6750582712659
315.39224638298;50.7732132552799
315.413862242127;50.8710967517911
315.435478101274;50.9688576456425
315.457093960421;51.0774552898947
315.478709819568;51.1924868780815
315.500325678714;51.3121527770509
315.521941537861;51.4416745956171
315.543557397008;51.5763679868456
315.565173256155;51.6931664295227
315.586789115302;51.7768703629691
315.608404974448;51.8382558240194
315.630020833595;51.8912764730714
315.651636692742;51.9267986518691
315.673252551889;51.9332848902726
315.694868411036;51.9095161933083
315.716484270182;51.8646433704305
315.738100129329;51.8179550593562
315.759715988476;51.7743391113702
315.781331847623;51.7229793514715
315.80294770677;51.6651886920119
315.824563565917;51.6111521592596
315.846179425063;51.5737383242396
315.86779528421;51.568644736507
315.889411143357;51.6092927907946
315.911027002504;51.6975545007848
315.932642861651;51.8187363280505
315.954258720797;51.9525845620706
315.975874579944;52.0961331326435
315.997490439091;52.2529513546477
316.019106298238;52.4115040620333
316.040722157385;52.5605136507806
316.062338016531;52.7055974275046
316.083953875678;52.8542804313287
316.105569734825;52.9939754695109
316.127185593972;53.0971967105878
316.148801453119;53.1630061251159
316.170417312266;53.2071893411214
316.192033171412;53.2390619760278
316.213649030559;53.253348218253
316.235264889706;53.2445862437007
316.256880748853;53.2205270806866
316.278496608;53.1858107043368
316.300112467146;53.1275345678921
316.321728326293;53.0326486919843
316.34334418544;52.9151616312275
316.364960044587;52.7854718526412
316.386575903734;52.6522791025954
316.40819176288;52.522454128346
316.429807622027;52.4015690342452
316.451423481174;52.2900317191272
316.473039340321;52.1804610194692
316.494655199468;52.0644880896821
316.516271058615;51.9454340754129
316.537886917761;51.8293110992984
316.559502776908;51.7288967995671
316.581118636055;51.6484745097798
316.602734495202;51.5816028518865
316.624350354349;51.5254447852546
316.645966213495;51.4851821118152
316.667582072642;51.4578086663201
316.689197931789;51.4309538891042
316.710813790936;51.3973416214716
316.732429650083;51.3663377230036
316.754045509229;51.3412007000493
316.775661368376;51.3062556399153
316.797277227523;51.2499672734081
316.81889308667;51.1667808590214
316.840508945817;51.0466065415232
316.862124804964;50.8874613885186
316.88374066411;50.6910737038752
316.905356523257;50.468697902281
316.926972382404;50.2289394019665
316.948588241551;49.9686964135358
316.970204100698;49.6825985861908
316.991819959844;49.3826932215336
317.013435818991;49.0819748522138
317.035051678138;48.7854541375514
317.056667537285;48.5092830478686
317.078283396432;48.272101916958
317.099899255578;48.0776311540762
317.121515114725;47.9273651510037
317.143130973872;47.8297093688179
317.164746833019;47.7903676656994
317.186362692166;47.8064835023661
317.207978551312;47.8737755133448
317.229594410459;47.9903103795446
317.251210269606;48.1567622948063
317.272826128753;48.3681759105533
317.2944419879;48.6089286984275
317.316057847047;48.8645243805785
317.337673706193;49.1264675980427
317.35928956534;49.3836122312061
317.380905424487;49.6284466079287
317.402521283634;49.8524505672773
317.424137142781;50.0432862659445
317.445753001927;50.1977845254227
317.467368861074;50.3138577851664
317.488984720221;50.3848096180075
317.510600579368;50.4096700431829
317.532216438515;50.3953388934739
317.553832297661;50.3460311855375
317.575448156808;50.2712508623218
317.597064015955;50.184350915896
317.618679875102;50.0838047450218
317.640295734249;49.9550012846644
317.661911593396;49.7993813979373
317.683527452542;49.6319929331746
317.705143311689;49.4600787071983
317.726759170836;49.2792924551074
317.748375029983;49.0812588188185
317.76999088913;48.8634975926253
317.791606748276;48.6394229166258
317.813222607423;48.430256503777
317.83483846657;48.2435266471733
317.856454325717;48.0734704790551
317.878070184864;47.9104154695096
317.89968604401;47.756410966453
317.921301903157;47.6088435068594
317.942917762304;47.4639235209914
317.964533621451;47.3214799094268
317.986149480598;47.1732924560461
318.007765339744;47.0046280937663
318.029381198891;46.8130757160107
318.050997058038;46.6040461389205
318.072612917185;46.3811962367226
318.094228776332;46.1489728014267
318.115844635479;45.9166897435096
318.137460494625;45.6957035616126
318.159076353772;45.4870355043105
318.180692212919;45.298431097179
318.202308072066;45.1379381516915
318.223923931213;45.0112187109661
318.245539790359;44.9225586632305
318.267155649506;44.885111562194
318.288771508653;44.8991314282532
318.3103873678;44.9529571901358
318.332003226947;45.0441227430656
318.353619086093;45.1744697092086
318.37523494524;45.3294978327164
318.396850804387;45.5038492203598
318.418466663534;45.694382914917
318.440082522681;45.8782968193673
318.461698381828;46.0423808231988
318.483314240974;46.1931353426068
318.504930100121;46.3177385734167
318.526545959268;46.4000362015468
318.548161818415;46.4362152999883
318.569777677562;46.4223560213085
318.591393536708;46.3494496883306
318.613009395855;46.2263392366136
318.634625255002;46.0679025204753
318.656241114149;45.871929901268
318.677856973296;45.6216920561121
318.699472832442;45.3312786559538
318.721088691589;45.0218303258677
318.742704550736;44.6999055611752
318.764320409883;44.3695541308136
318.78593626903;44.0438381491633
318.807552128177;43.728257278676
318.829167987323;43.4248908203441
318.85078384647;43.1533136641948
318.872399705617;42.9301031243234
318.894015564764;42.7521804889932
318.915631423911;42.6213914120045
318.937247283057;42.555991804205
318.958863142204;42.5600914200003
318.980479001351;42.6195135547069
319.002094860498;42.7299581755978
319.023710719645;42.8902291101647
319.045326578791;43.0891746648064
319.066942437938;43.3210271956417
319.088558297085;43.5863560523561
319.110174156232;43.8907799758432
319.131790015379;44.2302283582391
319.153405874526;44.5837930336903
319.175021733672;44.9335106905291
319.196637592819;45.2754352006884
319.218253451966;45.6068958775779
319.239869311113;45.9168658655075
319.26148517026;46.1984423354285
319.283101029406;46.4487125521542
319.304716888553;46.6597867605829
319.3263327477;46.8225208509409
319.347948606847;46.9365162680553
319.369564465994;47.0117530834596
319.39118032514;47.0552133244993
319.412796184287;47.0728016514382
319.434412043434;47.0696077490863
319.456027902581;47.0523423954148
319.477643761728;47.0288425976319
319.499259620875;47.0032965326302
319.520875480021;46.9757068199824
319.542491339168;46.9464903772276
319.564107198315;46.9222473055194
319.585723057462;46.9089999323386
319.607338916609;46.9083223925218
319.628954775755;46.9150379593395
319.650570634902;46.9226841086327
319.672186494049;46.928928480741
319.693802353196;46.931476569674
319.715418212343;46.929260902911
319.737034071489;46.9263452221618
319.758649930636;46.9279761965298
319.780265789783;46.9378095912884
319.80188164893;46.9611077527252
319.823497508077;47.0020135015873
319.845113367223;47.0635202202558
319.86672922637;47.1477617582112
319.888345085517;47.2602039755981
319.909960944664;47.4073308507384
319.931576803811;47.5842190812223
319.953192662958;47.7798718165189
319.974808522104;47.9919430408885
319.996424381251;48.2282952097988
320.018040240398;48.4924719480625
320.039656099545;48.7691476196092
320.061271958692;49.0475914377235
320.082887817838;49.3159294051891
320.104503676985;49.5641434859541
320.126119536132;49.7839611717742
320.147735395279;49.9699280651958
320.169351254426;50.1265333423954
320.190967113572;50.2513872143729
320.212582972719;50.3236376486186
320.234198831866;50.3354936973368
320.255814691013;50.2945484947116
320.27743055016;50.209357614871
320.299046409307;50.0750841229782
320.320662268453;49.8876214241432
320.3422781276;49.6554403496063
320.363893986747;49.3828713427504
320.385509845894;49.0593399072568
320.407125705041;48.6705698691507
320.428741564187;48.2153611670111
320.450357423334;47.7010977528894
320.471973282481;47.1416916783618
320.493589141628;46.5622088389198
320.515205000775;45.9818663680832
320.536820859921;45.4036861403293
320.558436719068;44.8323238591558
320.580052578215;44.2757066404409
320.601668437362;43.7291944378718
320.623284296509;43.2053307042665
320.644900155655;42.7479293139499
320.666516014802;42.3805143423146
320.688131873949;42.0793517590695
320.709747733096;41.8292365758734
320.731363592243;41.6626679805694
320.75297945139;41.5778775951292
320.774595310536;41.5458089909741
320.796211169683;41.5562279813278
320.81782702883;41.617146260299
320.839442887977;41.7425333029855
320.861058747124;41.9268047055457
320.88267460627;42.157083713888
320.904290465417;42.4156530271458
320.925906324564;42.6817488980684
320.947522183711;42.9481799298865
320.969138042858;43.2155240263788
320.990753902004;43.4820408184718
321.012369761151;43.74152421686
321.033985620298;44.0017262468795
321.055601479445;44.2706199159685
321.077217338592;44.5225744208475
321.098833197739;44.7397197622687
321.120449056885;44.9341715842967
321.142064916032;45.113952250602
321.163680775179;45.2748300869572
321.185296634326;45.4138979636459
321.206912493473;45.5342035467307
321.228528352619;45.6423721302486
321.250144211766;45.7444800766311
321.271760070913;45.8362580456313
321.29337593006;45.9113972619085
321.314991789207;45.9754885969695
321.336607648353;46.0320502763987
321.3582235075;46.0729583005214
321.379839366647;46.0937385742933
321.401455225794;46.0922683645417
321.423071084941;46.0654942762792
321.444686944087;46.0050997544815
321.466302803234;45.909200036662
321.487918662381;45.7796995138418
321.509534521528;45.6157197320723
321.531150380675;45.4195318170226
321.552766239822;45.2055799959
321.574382098968;44.9874158983057
321.595997958115;44.772318798925
321.617613817262;44.5671702009379
321.639229676409;44.3842956649605
321.660845535556;44.2366731273933
321.682461394702;44.1349033775712
321.704077253849;44.0746155514347
321.725693112996;44.0494446441172
321.747308972143;44.048328427512
321.76892483129;44.0572627958524
321.790540690437;44.0708275498737
321.812156549583;44.0889630156983
321.83377240873;44.1118254616237
321.855388267877;44.1229939062568
321.877004127024;44.1181564935095
321.898619986171;44.1046363602319
321.920235845317;44.0864843251476
321.941851704464;44.0584895749324
321.963467563611;44.0145767261604
321.985083422758;43.9511470920129
322.006699281905;43.8713023973478
322.028315141051;43.779273181851
322.049931000198;43.6721142356883
322.071546859345;43.536221136104
322.093162718492;43.370260825457
322.114778577639;43.1764093021595
322.136394436786;42.9488825461205
322.158010295932;42.6838346376479
322.179626155079;42.3844198729861
322.201242014226;42.0491362734729
322.222857873373;41.6743278513581
322.24447373252;41.2705689803847
322.266089591666;40.8494633128718
322.287705450813;40.4121845086273
322.30932130996;39.9798235849787
322.330937169107;39.5848595626564
322.352553028254;39.2221109921804
322.3741688874;38.8801936996156
322.395784746547;38.560523218366
322.417400605694;38.2731707038202
322.439016464841;38.0174737453046
322.460632323988;37.7882992596588
322.482248183134;37.5850682286122
322.503864042281;37.4073373834452
322.525479901428;37.2500818534174
322.547095760575;37.116863753669
322.568711619722;37.009532672852
322.590327478869;36.9194216083537
322.611943338015;36.8403902078451
322.633559197162;36.7691228689443
322.655175056309;36.7121850114602
322.676790915456;36.6729541439002
322.698406774603;36.652507335933
322.720022633749;36.6478273275618
322.741638492896;36.6591079563475
322.763254352043;36.6883262461574
322.78487021119;36.726608571024
322.806486070337;36.7692604495174
322.828101929483;36.8166546132944
322.84971778863;36.8659606354962
322.871333647777;36.9105976563918
322.892949506924;36.9352968193097
322.914565366071;36.942643253474
322.936181225218;36.9513667625597
322.957797084364;36.9715330454528
322.979412943511;37.0034811942896
323.001028802658;37.0483589293992
323.022644661805;37.1052026996431
323.044260520952;37.1768660774875
323.065876380098;37.275759778734
323.087492239245;37.403983101922
323.109108098392;37.5505491113735
323.130723957539;37.7073780645894
323.152339816686;37.8635264938508
323.173955675832;38.0117247803805
323.195571534979;38.1471697186983
323.217187394126;38.2702412000551
323.238803253273;38.3840457040617
323.26041911242;38.4831028964729
323.282034971566;38.556182861638
323.303650830713;38.6043666852699
323.32526668986;38.6393432040006
323.346882549007;38.6734988357047
323.368498408154;38.7132863415179
323.390114267301;38.7592609279426
323.411730126447;38.8158257527174
323.433345985594;38.8879107743943
323.454961844741;38.9807484733299
323.476577703888;39.0939887029681
323.498193563035;39.2224223776692
323.519809422181;39.3623312693848
323.541425281328;39.5161206759203
323.563041140475;39.6838489231865
323.584656999622;39.8565516310924
323.606272858769;40.024604749751
323.627888717915;40.1918035217773
323.649504577062;40.3610637001507
323.671120436209;40.5187998807163
323.692736295356;40.6509551768354
323.714352154503;40.7603004265571
323.73596801365;40.8556128015008
323.757583872796;40.935549322793
323.779199731943;40.9870187686637
323.80081559109;40.9993058873502
323.822431450237;40.9721254569223
323.844047309384;40.9081228637226
323.86566316853;40.8075313707244
323.887279027677;40.6660340867951
323.908894886824;40.4764114550824
323.930510745971;40.2317822260955
323.952126605118;39.9414363141787
323.973742464264;39.6263377934693
323.995358323411;39.2971638244786
324.016974182558;38.9536695108345
324.038590041705;38.5917985376169
324.060205900852;38.2088476930405
324.081821759998;37.8076431205499
324.103437619145;37.3914331700163
324.125053478292;36.9589274775064
324.146669337439;36.5065568232095
324.168285196586;36.0413326000302
324.189901055733;35.5794452159726
324.211516914879;35.1142914345731
324.233132774026;34.6340910500423
324.254748633173;34.1521554423941
324.27636449232;33.7030888958748
324.297980351467;33.2959160543662
324.319596210613;32.9293463145502
324.34121206976;32.6084612637559
324.362827928907;32.3444108255839
324.384443788054;32.1453022886092
324.406059647201;32.0169198027041
324.427675506348;31.9576803661264
324.449291365494;31.9657098256874
324.470907224641;32.0298756566803
324.492523083788;32.1308405220946
324.514138942935;32.2554933361526
324.535754802082;32.3946541633929
324.557370661228;32.5306141477595
324.578986520375;32.6369998240856
324.600602379522;32.7076893763476
324.622218238669;32.7497390077667
324.643834097816;32.7657879847073
324.665449956962;32.7538268640793
324.687065816109;32.7211752668884
324.708681675256;32.6831355639303
324.730297534403;32.6543687478884
324.75191339355;32.6408163874813
324.773529252697;32.6389416757151
