Name;BF_ESR_01_14400s_Z_gon_120dg_result

Recipe
Accumulations;5;Number of accumulations
RetryCount;0;Number of retries on error
AbortOnError;True;Abort on error
EnableQFactorMeasurement;False;Enable/Disable q-Factor measurement
Bfrom;313;B from
Bto;363;B to
SweepTime;60;Sweep time
Modulation;0.2;Modulation
ModulationFreq;100;Modulation
BHoldEnabled;False;B hold enabled
BHold;0;B hold
MicrowavePower;2;Microwave power
MarkerEnabled;False;
MarkerStartField;0;
MarkerEndField;0;
Mode;;
KineticGFact;0;
KineticTotalTransientTime;0;
KineticTimeResolution;0;
TempFrom;5;
TempUseSlope;False;
TempTo;5;
TempdT;1;
TempSetupTime;0;
GonFrom;0;
GonTo;180;
GonSteps;20;
XRayEnabled;False;
XRayTime;3;
XRayVoltage;40;
XRayCurrent;0.5;
UVEnabled;False;
UVIntensity;0;
UVTime;0;
UVLeadTime;0;
UVWavelength;0;
PowSweepFrom;1;
PowSweepTo;5;
PowSweepSteps;5;
AmpModSweepFrom;0;
AmpModSweepTo;1;
AmpModSweepSteps;10;
ExtTriggerEnabled;False;
ExtTrigLeadTime;0;
ExtTrigOnTime;5;

Meas
BField [mT];MW_Absorption []
313.02623878479;134.913233092838
313.047858899401;134.754508855518
313.069479014013;134.594766835608
313.091099128624;134.430630763779
313.112719243235;134.25912780035
313.134339357847;134.084158689883
313.155959472458;133.915860906152
313.177579587069;133.755034050707
313.199199701681;133.584826685259
313.220819816292;133.389078261951
313.242439930903;133.175080504682
313.264060045515;132.949448027137
313.285680160126;132.712386103208
313.307300274737;132.464040111305
313.328920389349;132.203009451426
313.35054050396;131.929204560101
313.372160618572;131.651401869962
313.393780733183;131.385700980198
313.415400847794;131.127899544968
313.437020962406;130.878362476359
313.458641077017;130.642917161276
313.480261191628;130.420170315655
313.50188130624;130.207793736077
313.523501420851;130.005718030828
313.545121535462;129.816993196079
313.566741650074;129.645486858274
313.588361764685;129.490069707428
313.609981879296;129.353388472007
313.631601993908;129.235732745986
313.653222108519;129.137801223749
313.67484222313;129.058889330048
313.696462337742;128.987309070577
313.718082452353;128.909098441927
313.739702566964;128.82005410093
313.761322681576;128.737237484505
313.782942796187;128.659005923197
313.804562910798;128.568735313478
313.82618302541;128.454583304627
313.847803140021;128.308779810699
313.869423254632;128.125644576208
313.891043369244;127.913840054218
313.912663483855;127.682658659683
313.934283598466;127.4302864737
313.955903713078;127.152058700461
313.977523827689;126.851356029481
313.9991439423;126.540774492798
314.020764056912;126.236264614706
314.042384171523;125.951889608451
314.064004286134;125.693391737318
314.085624400746;125.457966612989
314.107244515357;125.249501777902
314.128864629968;125.067297919781
314.15048474458;124.903569396789
314.172104859191;124.754713673419
314.193724973802;124.618713822059
314.215345088414;124.49595489379
314.236965203025;124.38284502541
314.258585317636;124.269307969567
314.280205432248;124.144702336976
314.301825546859;123.999496832773
314.32344566147;123.833395089298
314.345065776082;123.657506202897
314.366685890693;123.473611071772
314.388306005305;123.275256083633
314.409926119916;123.06601287644
314.431546234527;122.862359009221
314.453166349139;122.672718245948
314.47478646375;122.504772438719
314.496406578361;122.371436515374
314.518026692973;122.289550198737
314.539646807584;122.262157821968
314.561266922195;122.280264377204
314.582887036807;122.338419003449
314.604507151418;122.442143097788
314.626127266029;122.59872026756
314.647747380641;122.805616235586
314.669367495252;123.040486799912
314.690987609863;123.28079415612
314.712607724475;123.510117177988
314.734227839086;123.705000049088
314.755847953697;123.857692324868
314.777468068309;123.959548339075
314.79908818292;124.008717953514
314.820708297531;124.014702747263
314.842328412143;123.9827608562
314.863948526754;123.909544144844
314.885568641365;123.794338904432
314.907188755977;123.647093003305
314.928808870588;123.480341753655
314.950428985199;123.301244013508
314.972049099811;123.103629674148
314.993669214422;122.883886000903
315.015289329033;122.63522130345
315.036909443645;122.353066653879
315.058529558256;122.029768783176
315.080149672867;121.662364945381
315.101769787479;121.266463188558
315.12338990209;120.84889180092
315.145010016701;120.401819395807
315.166630131313;119.922506957251
315.188250245924;119.420426907526
315.209870360535;118.912315878615
315.231490475147;118.405119854514
315.253110589758;117.894152169486
315.27473070437;117.394643794621
315.296350818981;116.929169766065
315.317970933592;116.502890629318
315.339591048204;116.106691145639
315.361211162815;115.737716166016
315.382831277426;115.395151797944
315.404451392038;115.071138825415
315.426071506649;114.757425077329
315.44769162126;114.449911251738
315.469311735872;114.149771397565
315.490931850483;113.866446667858
315.512551965094;113.596352023713
315.534172079706;113.332112536919
315.555792194317;113.069592929381
315.577412308928;112.800799012884
315.59903242354;112.524691134496
315.620652538151;112.24586323102
315.642272652762;111.96526201658
315.663892767374;111.66758255479
315.685512881985;111.337660886593
315.707132996596;110.979033388277
315.728753111208;110.62293035226
315.750373225819;110.273334062062
315.77199334043;109.916451580435
315.793613455042;109.548177382692
315.815233569653;109.196179103719
315.836853684264;108.878453523506
315.858473798876;108.583459870498
315.880093913487;108.299076227421
315.901714028098;108.038531729462
315.92333414271;107.808438324617
315.944954257321;107.606509753618
315.966574371932;107.430621137898
315.988194486544;107.282235665459
316.009814601155;107.145445693426
316.031434715766;107.009238602228
316.053054830378;106.863780258347
316.074674944989;106.695388135151
316.0962950596;106.510830124034
316.117915174212;106.318742346354
316.139535288823;106.128721610253
316.161155403434;105.928906365932
316.182775518046;105.699365762936
316.204395632657;105.460635722195
316.226015747268;105.239312645763
316.24763586188;105.052379588155
316.269255976491;104.912329987258
316.290876091103;104.820370195046
316.312496205714;104.765110062284
316.334116320325;104.750142468726
316.355736434937;104.782441493616
316.377356549548;104.858875320099
316.398976664159;104.976331513992
316.420596778771;105.128708756634
316.442216893382;105.304905912174
316.463837007993;105.488904467022
316.485457122605;105.66180603994
316.507077237216;105.822980781297
316.528697351827;105.965286547948
316.550317466439;106.073415148486
316.57193758105;106.150121012939
316.593557695661;106.198203439788
316.615177810273;106.218493999466
316.636797924884;106.21088552071
316.658418039495;106.165566328518
316.680038154107;106.082889390838
316.701658268718;105.976513775077
316.723278383329;105.856756226003
316.744898497941;105.728929614251
316.766518612552;105.59771769059
316.788138727163;105.46512167236
316.809758841775;105.329039130714
316.831378956386;105.190252992242
316.852999070997;105.053664565097
316.874619185609;104.941456105902
316.89623930022;104.854521311271
316.917859414831;104.777343384082
316.939479529443;104.701144543721
316.961099644054;104.621168153272
316.982719758665;104.532137116474
317.004339873277;104.430949638155
317.025959987888;104.324988516003
317.047580102499;104.224263199246
317.069200217111;104.131925560452
317.090820331722;104.047885950299
317.112440446333;103.977936195738
317.134060560945;103.917398299378
317.155680675556;103.856850909628
317.177300790167;103.798838007064
317.198920904779;103.745571109913
317.22054101939;103.688664381012
317.242161134001;103.622641001131
317.263781248613;103.539287270327
317.285401363224;103.424894812054
317.307021477836;103.265932050913
317.328641592447;103.072857999389
317.350261707058;102.868691904546
317.37188182167;102.65336370034
317.393501936281;102.419633800815
317.415122050892;102.170248337959
317.436742165504;101.908933989243
317.458362280115;101.637725714778
317.479982394726;101.351094387683
317.501602509338;101.044767798138
317.523222623949;100.730229394153
317.54484273856;100.429378495672
317.566462853172;100.151658662363
317.588082967783;99.8867188463214
317.609703082394;99.6246995002386
317.631323197006;99.3599010108986
317.652943311617;99.0952673376496
317.674563426228;98.8345147821617
317.69618354084;98.5888124086704
317.717803655451;98.3640040504653
317.739423770062;98.1571297778662
317.761043884674;97.9603913597794
317.782663999285;97.7749060611939
317.804284113896;97.6112293747453
317.825904228508;97.4752895239219
317.847524343119;97.369772032708
317.86914445773;97.3013944583694
317.890764572342;97.2700741634659
317.912384686953;97.2708310296085
317.934004801564;97.3048036964154
317.955624916176;97.3715125083268
317.977245030787;97.4553936764513
317.998865145398;97.5480973758096
318.02048526001;97.6531861539041
318.042105374621;97.7748987017247
318.063725489232;97.913580324362
318.085345603844;98.0641723067845
318.106965718455;98.218346930524
318.128585833067;98.3694985782864
318.150205947678;98.5131096508497
318.171826062289;98.6493810965991
318.193446176901;98.782503033642
318.215066291512;98.9089669361511
318.236686406123;99.0236921937407
318.258306520735;99.1228521225212
318.279926635346;99.2040249414565
318.301546749957;99.2663239773516
318.323166864569;99.3044250686015
318.34478697918;99.3130357556947
318.366407093791;99.2938819292617
318.388027208403;99.2458088161547
318.409647323014;99.1639781437968
318.431267437625;99.0555393221406
318.452887552237;98.9418702502605
318.474507666848;98.8413618495713
318.496127781459;98.7559969519498
318.517747896071;98.6799916167548
318.539368010682;98.616885570298
318.560988125293;98.5859899836735
318.582608239905;98.5977575350594
318.604228354516;98.6420394539521
318.625848469127;98.7014815672956
318.647468583739;98.7639606676606
318.66908869835;98.8175747191803
318.690708812961;98.8547777974326
318.712328927573;98.8684812951603
318.733949042184;98.8475674518171
318.755569156795;98.7864940895542
318.777189271407;98.6909746211805
318.798809386018;98.5650398952836
318.820429500629;98.4078532074271
318.842049615241;98.2154837681569
318.863669729852;97.9811945611816
318.885289844463;97.7062706779653
318.906909959075;97.4178840751115
318.928530073686;97.1314813904514
318.950150188297;96.8367805710995
318.971770302909;96.5423431215965
318.99339041752;96.2628602036262
319.015010532131;95.9951558506195
319.036630646743;95.7312113745895
319.058250761354;95.4775506799291
319.079870875965;95.2428918322568
319.101490990577;95.0297423043114
319.123111105188;94.8353936351396
319.1447312198;94.6517986458782
319.166351334411;94.4781907141193
319.187971449022;94.31162350764
319.209591563634;94.1457113893875
319.231211678245;93.9694543560433
319.252831792856;93.772314418199
319.274451907468;93.546687523146
319.296072022079;93.3009485660492
319.31769213669;93.0341971573541
319.339312251302;92.7446636175111
319.360932365913;92.4371962503915
319.382552480524;92.1088608768987
319.404172595136;91.7623000336435
319.425792709747;91.4238755682033
319.447412824358;91.1042693551734
319.46903293897;90.7891023957474
319.490653053581;90.4758910266077
319.512273168192;90.1790162527504
319.533893282804;89.9125126848964
319.555513397415;89.6638311915958
319.577133512026;89.4252500157183
319.598753626638;89.2004623757135
319.620373741249;88.9959141975267
319.64199385586;88.8121324550543
319.663613970472;88.647666345629
319.685234085083;88.5026156441611
319.706854199694;88.3776601364048
319.728474314306;88.2738088843894
319.750094428917;88.1817411293162
319.771714543528;88.0898818941599
319.79333465814;87.9952294500553
319.814954772751;87.892985043891
319.836574887362;87.7780283315737
319.858195001974;87.65022748165
319.879815116585;87.5010552884338
319.901435231196;87.3255687225827
319.923055345808;87.1271003589389
319.944675460419;86.9051588538788
319.96629557503;86.64784462817
319.987915689642;86.3476558841832
320.009535804253;86.0167420644476
320.031155918864;85.672442593071
320.052776033476;85.3110176728869
320.074396148087;84.9228463617951
320.096016262698;84.5206596072741
320.11763637731;84.1241132921322
320.139256491921;83.7290418401252
320.160876606533;83.3409111492392
320.182496721144;82.972012924424
320.204116835755;82.6257480091282
320.225736950367;82.3086237309519
320.247357064978;82.0337240193994
320.268977179589;81.7981014156648
320.290597294201;81.599046382768
320.312217408812;81.4497333888597
320.333837523423;81.365507384176
320.355457638035;81.3488296286957
320.377077752646;81.3974414580805
320.398697867257;81.509350249347
320.420317981869;81.6768315795315
320.44193809648;81.8888265327416
320.463558211091;82.1382909078596
320.485178325703;82.4091019996295
320.506798440314;82.6839745113599
320.528418554925;82.9582037274375
320.550038669537;83.2264315002107
320.571658784148;83.4771092999928
320.593278898759;83.6859845080484
320.614899013371;83.839033697042
320.636519127982;83.939118160964
320.658139242593;83.9817566121735
320.679759357205;83.9590286162359
320.701379471816;83.8646219664113
320.722999586427;83.6998511807798
320.744619701039;83.4722901808845
320.76623981565;83.190793411333
320.787859930261;82.8658249265757
320.809480044873;82.5189378610452
320.831100159484;82.1692270874048
320.852720274095;81.8188981309458
320.874340388707;81.4632267499497
320.895960503318;81.0979829826479
320.917580617929;80.7240426315494
320.939200732541;80.348789719287
320.960820847152;79.9827335365078
320.982440961763;79.6221607387929
321.004061076375;79.2537886329083
321.025681190986;78.8855021623531
321.047301305598;78.536524238596
321.068921420209;78.2062605216945
321.09054153482;77.876594837377
321.112161649432;77.5300110224705
321.133781764043;77.1731698367769
321.155401878654;76.8236743625687
321.177021993266;76.4829516246816
321.198642107877;76.1429029451348
321.220262222488;75.8013164010697
321.2418823371;75.4589408377748
321.263502451711;75.1106432241699
321.285122566322;74.7460348513513
321.306742680934;74.3536064054162
321.328362795545;73.9378525647593
321.349982910156;73.5186460582042
321.371603024768;73.1016005478237
321.393223139379;72.6793431330212
321.41484325399;72.2423251546845
321.436463368602;71.80261490991
321.458083483213;71.378736669213
321.479703597824;70.9668510162077
321.501323712436;70.5792207277028
321.522943827047;70.2311334795574
321.544563941658;69.9180501613559
321.56618405627;69.6370123571571
321.587804170881;69.39084305292
321.609424285492;69.1790217949736
321.631044400104;68.9945380573296
321.652664514715;68.8326723014322
321.674284629326;68.688839347224
321.695904743938;68.5603835472929
321.717524858549;68.4477742147898
321.73914497316;68.3556527308017
321.760765087772;68.2868350746318
321.782385202383;68.2298461881701
321.804005316994;68.1714266934002
321.825625431606;68.112367750458
321.847245546217;68.0616247669131
321.868865660828;68.0242043535989
321.89048577544;67.9933175769001
321.912105890051;67.9598321551182
321.933726004662;67.91661364535
321.955346119274;67.8613036616512
321.976966233885;67.7942517184273
321.998586348496;67.7155372272327
322.020206463108;67.6186919386117
322.041826577719;67.5036881264272
322.063446692331;67.3732142150389
322.085066806942;67.2212252870587
322.106686921553;67.0448959801209
322.128307036165;66.8472154851332
322.149927150776;66.6386458783362
322.171547265387;66.432141656473
322.193167379999;66.2253663642488
322.21478749461;66.0017435847302
322.236407609221;65.7534812068428
322.258027723833;65.5012022583658
322.279647838444;65.2673337624238
322.301267953055;65.0550486721846
322.322888067667;64.8570684900093
322.344508182278;64.6663149642346
322.366128296889;64.4734063925219
322.387748411501;64.2903527192748
322.409368526112;64.1375542426149
322.430988640723;64.0292169500691
322.452608755335;63.9576977654007
322.474228869946;63.8993650701663
322.495848984557;63.8430476985598
322.517469099169;63.7845447447966
322.53908921378;63.7271779304777
322.560709328391;63.6663909964428
322.582329443003;63.5902343743848
322.603949557614;63.4906250717455
322.625569672225;63.3660837446686
322.647189786837;63.222147672476
322.668809901448;63.0573289648852
322.690430016059;62.8671871200675
322.712050130671;62.6546696144205
322.733670245282;62.43920855123
322.755290359893;62.2253498161066
322.776910474505;62.0099041461719
322.798530589116;61.7854976741835
322.820150703727;61.5447355297394
322.841770818339;61.288817751443
322.86339093295;61.0203328294062
322.885011047561;60.7394712815288
322.906631162173;60.4412508897219
322.928251276784;60.1140154876432
322.949871391396;59.7406249336954
322.971491506007;59.3490831182095
322.993111620618;58.9463861037375
323.014731735229;58.5234322068499
323.036351849841;58.074231183751
323.057971964452;57.6069546263301
323.079592079064;57.1398016788174
323.101212193675;56.6980480579858
323.122832308286;56.3020514206441
323.144452422898;55.9527500487058
323.166072537509;55.6477601882975
323.18769265212;55.3840121683754
323.209312766732;55.1615326824049
323.230932881343;54.9826809142328
323.252552995954;54.8475925174154
323.274173110566;54.7533865310134
323.295793225177;54.6911812041265
323.317413339788;54.6571757186795
323.3390334544;54.6417692842317
323.360653569011;54.632317104001
323.382273683622;54.621169656362
323.403893798234;54.59446822954
323.425513912845;54.5408553229729
323.447134027456;54.4570044453817
323.468754142068;54.3434965873783
323.490374256679;54.19673607047
323.51199437129;54.0173316000563
323.533614485902;53.8190754963334
323.555234600513;53.6181684134349
323.576854715124;53.415531203269
323.598474829736;53.2099332671166
323.620094944347;53.0042870942025
323.641715058958;52.8035736761902
323.66333517357;52.6074526381637
323.684955288181;52.4159294285735
323.706575402792;52.2402911220209
323.728195517404;52.0949689315829
323.749815632015;51.9859278730458
323.771435746626;51.9135396831547
323.793055861238;51.8882509015811
323.814675975849;51.9184681900323
323.83629609046;52.0078078995972
323.857916205072;52.1490163546375
323.879536319683;52.3363848800959
323.901156434294;52.5689809242439
323.922776548906;52.839216600589
323.944396663517;53.1362858907338
323.966016778129;53.4545781114052
323.98763689274;53.7831530271494
324.009257007351;54.1056382409874
324.030877121963;54.4081895235228
324.052497236574;54.6900412802045
324.074117351185;54.9504680388299
324.095737465797;55.1659807363664
324.117357580408;55.3236073781452
324.138977695019;55.4193562572701
324.160597809631;55.4498377503112
324.182217924242;55.4117523803574
324.203838038853;55.3093900208169
324.225458153465;55.1513018544658
324.247078268076;54.9367532624333
324.268698382687;54.6798870853744
324.290318497299;54.386281373721
324.31193861191;54.0606452767408
324.333558726521;53.7032392903845
324.355178841133;53.3138114678737
324.376798955744;52.8962218184847
324.398419070355;52.4521933110827
324.420039184967;51.9757672959712
324.441659299578;51.463422050617
324.463279414189;50.9084299068477
324.484899528801;50.3031320646448
324.506519643412;49.6617592696638
324.528139758023;49.0008022343989
324.549759872635;48.3290483922533
324.571379987246;47.6412510002495
324.593000101857;46.9285222605607
324.614620216469;46.204338493811
324.63624033108;45.5008197493919
324.657860445691;44.8413563261026
324.679480560303;44.2255829713436
324.701100674914;43.641008455127
324.722720789525;43.0846430568441
324.744340904137;42.5819398133124
324.765961018748;42.1392350692873
324.787581133359;41.7368425964502
