Name;BF_ESR_01_3602s_Y_gon_60dg_result

Recipe
Accumulations;5;Number of accumulations
RetryCount;0;Number of retries on error
AbortOnError;True;Abort on error
EnableQFactorMeasurement;False;Enable/Disable q-Factor measurement
Bfrom;313;B from
Bto;363;B to
SweepTime;60;Sweep time
Modulation;0.2;Modulation
ModulationFreq;100;Modulation
BHoldEnabled;False;B hold enabled
BHold;0;B hold
MicrowavePower;2;Microwave power
MarkerEnabled;False;
MarkerStartField;0;
MarkerEndField;0;
Mode;;
KineticGFact;0;
KineticTotalTransientTime;0;
KineticTimeResolution;0;
TempFrom;5;
TempUseSlope;False;
TempTo;5;
TempdT;1;
TempSetupTime;0;
GonFrom;0;
GonTo;180;
GonSteps;20;
XRayEnabled;False;
XRayTime;3;
XRayVoltage;40;
XRayCurrent;0.5;
UVEnabled;False;
UVIntensity;0;
UVTime;0;
UVLeadTime;0;
UVWavelength;0;
PowSweepFrom;1;
PowSweepTo;5;
PowSweepSteps;5;
AmpModSweepFrom;0;
AmpModSweepTo;1;
AmpModSweepSteps;10;
ExtTriggerEnabled;False;
ExtTrigLeadTime;0;
ExtTrigOnTime;5;

Meas
BField [mT];MW_Absorption []
313.025163803101;63.7660599158135
313.046771215881;63.5226357304486
313.068378628661;63.2008785358591
313.089986041442;62.8320719527778
313.111593454222;62.3941759058013
313.133200867003;61.8657048001288
313.154808279783;61.2432188317998
313.176415692564;60.5034120047677
313.198023105344;59.643728507392
313.219630518125;58.7240884334638
313.241237930905;57.7886866101917
313.262845343685;56.8520504557623
313.284452756466;55.9308225164528
313.306060169246;55.0635739560647
313.327667582027;54.2945546251254
313.349274994807;53.631530729462
313.370882407588;53.0662205541874
313.392489820368;52.6004416229505
313.414097233149;52.2433767725321
313.435704645929;52.0228827550672
313.457312058709;51.9467642569716
313.47891947149;51.9811064442413
313.50052688427;52.0998817326395
313.522134297051;52.2924295164094
313.543741709831;52.5560201588592
313.565349122612;52.886277352564
313.586956535392;53.2622808896824
313.608563948173;53.6577627025179
313.630171360953;54.0569179715734
313.651778773733;54.4536936832665
313.673386186514;54.8175654764315
313.694993599294;55.1450788703323
313.716601012075;55.4492976093164
313.738208424855;55.7379738483567
313.759815837636;56.011022117786
313.781423250416;56.2578152946291
313.803030663197;56.4758369670892
313.824638075977;56.6547142786811
313.846245488757;56.7891469528007
313.867852901538;56.8901821688692
313.889460314318;56.963633537287
313.911067727099;56.9999968521817
313.932675139879;56.9844446702365
313.95428255266;56.9087377389214
313.97588996544;56.7770902211552
313.997497378221;56.594191491702
314.019104791001;56.3625565366455
314.040712203781;56.0798789917788
314.062319616562;55.7629234575275
314.083927029342;55.43042339037
314.105534442123;55.0950736835789
314.127141854903;54.762338800894
314.148749267684;54.4434915505548
314.170356680464;54.1616122774253
314.191964093245;53.9291917777497
314.213571506025;53.7519651341848
314.235178918805;53.6422048487778
314.256786331586;53.606811442836
314.278393744366;53.6399479038739
314.300001157147;53.7394760729111
314.321608569927;53.9065655807163
314.343215982708;54.1302895288254
314.364823395488;54.3891656661429
314.386430808269;54.6719527925629
314.408038221049;54.9693892902902
314.429645633829;55.2718660249784
314.45125304661;55.5614904955516
314.47286045939;55.8117384603592
314.494467872171;56.0024226045667
314.516075284951;56.1390424516532
314.537682697732;56.2380138810297
314.559290110512;56.3072010452373
314.580897523293;56.3465901412718
314.602504936073;56.3546184602007
314.624112348853;56.330436116974
314.645719761634;56.2777718101551
314.667327174414;56.2062331304581
314.688934587195;56.1182181277413
314.710541999975;56.0159515339798
314.732149412756;55.8957620318804
314.753756825536;55.7557780609457
314.775364238317;55.6008978175025
314.796971651097;55.4451938606703
314.818579063878;55.3075197232575
314.840186476658;55.1928554194824
314.861793889438;55.1012279503708
314.883401302219;55.0334514307222
314.905008714999;54.9930328767711
314.92661612778;54.9865843304158
314.94822354056;55.0147736163569
314.969830953341;55.0710475099702
314.991438366121;55.1584119827109
315.013045778901;55.276001197976
315.034653191682;55.4146737442465
315.056260604462;55.563412888195
315.077868017243;55.7211064005385
315.099475430023;55.89153880707
315.121082842804;56.0730334761767
315.142690255584;56.253382286561
315.164297668365;56.4238890740246
315.185905081145;56.5805431945168
315.207512493925;56.7227260163898
315.229119906706;56.8503580217518
315.250727319486;56.9558362855504
315.272334732267;57.022723593153
315.293942145047;57.0475496978524
315.315549557828;57.0319657146733
315.337156970608;56.9685901064094
315.358764383389;56.8442973701566
315.380371796169;56.6558883739883
315.40197920895;56.4212571076667
315.42358662173;56.1588341490493
315.44519403451;55.871272788534
315.466801447291;55.5545427544607
315.488408860071;55.2264444459734
315.510016272852;54.9143461687655
315.531623685632;54.6276530741544
315.553231098413;54.3768617207749
315.574838511193;54.175426677873
315.596445923973;54.0181385034602
315.618053336754;53.8964378182445
315.639660749534;53.8075868179609
315.661268162315;53.7547646477142
315.682875575095;53.7414043601823
315.704482987876;53.7588643194142
315.726090400656;53.7929138643696
315.747697813437;53.8371893003209
315.769305226217;53.883506662878
315.790912638998;53.9274959517156
315.812520051778;53.9677280853664
315.834127464558;54.0028942852169
315.855734877339;54.0281672712388
315.877342290119;54.0399965433745
315.8989497029;54.0416259395571
315.92055711568;54.033136197147
315.942164528461;54.0139193305411
315.963771941241;53.9842394320197
315.985379354022;53.9437233008617
316.006986766802;53.8911353082662
316.028594179582;53.8245310169145
316.050201592363;53.7477624212148
316.071809005143;53.6679443825773
316.093416417924;53.588967711985
316.115023830704;53.5180284634421
316.136631243485;53.4636669091667
316.158238656265;53.4286023064037
316.179846069046;53.4150264984556
316.201453481826;53.4224653896367
316.223060894606;53.4452798009183
316.244668307387;53.4790842209319
316.266275720167;53.5207614701286
316.287883132948;53.5637074704055
316.309490545728;53.5990442954589
316.331097958509;53.6202699135346
316.352705371289;53.6184364704349
316.37431278407;53.5867214201756
316.39592019685;53.5261844077282
316.41752760963;53.4385668002668
316.439135022411;53.324152568026
316.460742435191;53.1861581597337
316.482349847972;53.0174951574151
316.503957260752;52.8088604853394
316.525564673533;52.5574042037738
316.547172086313;52.2659260592707
316.568779499094;51.9561806317167
316.590386911874;51.6639986690962
316.611994324654;51.3943350610645
316.633601737435;51.1308593576041
316.655209150215;50.8693718224501
316.676816562996;50.6176281193462
316.698423975776;50.3857334904441
316.720031388557;50.1714014240044
316.741638801337;49.9682659209038
316.763246214118;49.7799848860809
316.784853626898;49.6109330213088
316.806461039678;49.4599101123686
316.828068452459;49.3257550110787
316.849675865239;49.2101708286024
316.87128327802;49.1163355432316
316.8928906908;49.047837401276
316.914498103581;49.005366529077
316.936105516361;48.9827995872366
316.957712929142;48.977534490222
316.979320341922;48.9871461147425
317.000927754702;49.0015055466244
317.022535167483;49.0140062942056
317.044142580263;49.0234484626647
317.065749993044;49.011727177098
317.087357405824;48.9624724982659
317.108964818605;48.874712404511
317.130572231385;48.7537903964707
317.152179644166;48.6027975701828
317.173787056946;48.4301769141464
317.195394469726;48.2521269349611
317.217001882507;48.0812280652025
317.238609295287;47.9290313413067
317.260216708068;47.8088006803706
317.281824120848;47.7218760413961
317.303431533629;47.6750830330817
317.325038946409;47.6876491441827
317.34664635919;47.7690539160776
317.36825377197;47.8919585832796
317.38986118475;48.0313063179275
317.411468597531;48.1844176061305
317.433076010311;48.3484917147665
317.454683423092;48.5108854245744
317.476290835872;48.6657057717667
317.497898248653;48.8156735418957
317.519505661433;48.9555987254245
317.541113074214;49.0758764330239
317.562720486994;49.1671235967861
317.584327899774;49.2311528040782
317.605935312555;49.289806708648
317.627542725335;49.3530591736265
317.649150138116;49.4163302129111
317.670757550896;49.4732499856523
317.692364963677;49.5202357198063
317.713972376457;49.5577071483217
317.735579789238;49.5857379775216
317.757187202018;49.6103921344964
317.778794614798;49.6347976258047
317.800402027579;49.6517273431445
317.822009440359;49.6511575688447
317.84361685314;49.6351207478618
317.86522426592;49.6191019355885
317.886831678701;49.6271144792133
317.908439091481;49.6619154468555
317.930046504262;49.7191773169181
317.951653917042;49.8012242260941
317.973261329822;49.9112921775526
317.994868742603;50.0549161271052
318.016476155383;50.2284938488781
318.038083568164;50.4136273675764
318.059690980944;50.5978812293806
318.081298393725;50.7786010064373
318.102905806505;50.9508331479825
318.124513219286;51.1033684307586
318.146120632066;51.2256727152513
318.167728044846;51.3161068051794
318.189335457627;51.3761318059847
318.210942870407;51.4036860331406
318.232550283188;51.3963606800166
318.254157695968;51.3637331126866
318.275765108749;51.3221625055589
318.297372521529;51.2749644513872
318.31897993431;51.2203282676597
318.34058734709;51.1587995701694
318.36219475987;51.0944616363899
318.383802172651;51.0324048150084
318.405409585431;50.9711906074582
318.427016998212;50.9076827341675
318.448624410992;50.8411612098207
318.470231823773;50.7679385239576
318.491839236553;50.6842162150122
318.513446649334;50.5955867979981
318.535054062114;50.5028305893783
318.556661474894;50.4020970447765
318.578268887675;50.2924799401738
318.599876300455;50.1783545139578
318.621483713236;50.0592051960645
318.643091126016;49.9368558600558
318.664698538797;49.8181471553041
318.686305951577;49.7051879221192
318.707913364358;49.5968763217132
318.729520777138;49.4927355355774
318.751128189918;49.3965944228525
318.772735602699;49.312700241234
318.794343015479;49.2364350194245
318.81595042826;49.1592778677687
318.83755784104;49.0766546889945
318.859165253821;48.9917052630843
318.880772666601;48.9100538191605
318.902380079382;48.834911076951
318.923987492162;48.7661474704676
318.945594904942;48.70421681404
318.967202317723;48.6545588156958
318.988809730503;48.6355881412033
319.010417143284;48.6605554865034
319.032024556064;48.7313584426034
319.053631968845;48.8487347437592
319.075239381625;49.013237273974
319.096846794406;49.2169927959007
319.118454207186;49.4504108803803
319.140061619966;49.7070312038718
319.161669032747;49.979781950965
319.183276445527;50.2533568146482
319.204883858308;50.4872845254352
319.226491271088;50.6522030991151
319.248098683869;50.7322133807361
319.269706096649;50.7235884680941
319.29131350943;50.6283636372278
319.31292092221;50.4480125537518
319.33452833499;50.1882301612448
319.356135747771;49.843755466451
319.377743160551;49.4444531627762
319.399350573332;49.012125571861
319.420957986112;48.5834716445565
319.442565398893;48.1889155479976
319.464172811673;47.8656805575926
319.485780224454;47.6349495336724
319.507387637234;47.4977444567415
319.528995050014;47.4407555903476
319.550602462795;47.4557427659211
319.572209875575;47.5214617745307
319.593817288356;47.6232375901512
319.615424701136;47.7603021808885
319.637032113917;47.9328355631835
319.658639526697;48.1407917464444
319.680246939478;48.367664550047
319.701854352258;48.5913242153945
319.723461765039;48.7998789415558
319.745069177819;48.9900375254899
319.766676590599;49.1850861898491
319.78828400338;49.4008173139217
319.80989141616;49.6072834478041
319.831498828941;49.7711900700122
319.853106241721;49.9001677240115
319.874713654502;50.002423221788
319.896321067282;50.0761658588696
319.917928480062;50.1160645032655
319.939535892843;50.1190715283276
319.961143305623;50.0917503543675
319.982750718404;50.0409287685122
320.004358131184;49.973180047846
320.025965543965;49.8924189734016
320.047572956745;49.8002668615252
320.069180369526;49.7012334728061
320.090787782306;49.6079280271183
320.112395195086;49.5281701627216
320.134002607867;49.4578422892698
320.155610020647;49.3924423748969
320.177217433428;49.3326683119413
320.198824846208;49.2792784690619
320.220432258989;49.2371431615849
320.242039671769;49.2098358962534
320.26364708455;49.196462351991
320.28525449733;49.1989415580187
320.306861910111;49.2189425122179
320.328469322891;49.2554917638485
320.350076735671;49.2979178997871
320.371684148452;49.3375723500411
320.393291561232;49.3696190136651
320.414898974013;49.3862115631913
320.436506386793;49.3743436419341
320.458113799574;49.3220955507826
320.479721212354;49.2311124298989
320.501328625134;49.1055434430437
320.522936037915;48.9427792799776
320.544543450695;48.7343229069173
320.566150863476;48.4739975880774
320.587758276256;48.1563406338676
320.609365689037;47.7806024024222
320.630973101817;47.3644433271608
320.652580514598;46.9536640836279
320.674187927378;46.5684164961441
320.695795340159;46.2051731737728
320.717402752939;45.8650271640946
320.739010165719;45.5561887784582
320.7606175785;45.2921287714755
320.78222499128;45.0776782966844
320.803832404061;44.9123969735013
320.825439816841;44.8009364626357
320.847047229622;44.740357965305
320.868654642402;44.7169349413655
320.890262055183;44.7261010516691
320.911869467963;44.7696198875006
320.933476880743;44.8310386523922
320.955084293524;44.8972577448062
320.976691706304;44.9701037502835
320.998299119085;45.049907163559
321.019906531865;45.1328761062407
321.041513944646;45.2202584175246
321.063121357426;45.3218658767747
321.084728770207;45.4508534765218
321.106336182987;45.6229036341105
321.127943595767;45.84442118204
321.149551008548;46.1144320013254
321.171158421328;46.4347105581868
321.192765834109;46.8125220085055
321.214373246889;47.2490080165031
321.23598065967;47.7268975544113
321.25758807245;48.2287623666279
321.279195485231;48.7512605470832
321.300802898011;49.2856348553005
321.322410310791;49.8080764927225
321.344017723572;50.2997840030202
321.365625136352;50.7408084589275
321.387232549133;51.1115792868971
321.408839961913;51.4075645135389
321.430447374694;51.6272677640924
321.452054787474;51.7667731743831
321.473662200255;51.8188716966916
321.495269613035;51.7880933269
321.516877025815;51.6913571960973
321.538484438596;51.5434157045954
321.560091851376;51.345685237743
321.581699264157;51.0928213582185
321.603306676937;50.7945440814627
321.624914089718;50.4752412345788
321.646521502498;50.1525193352034
321.668128915279;49.8338367065221
321.689736328059;49.5267958467703
321.711343740839;49.2325555383658
321.73295115362;48.958055968107
321.7545585664;48.70894210118
321.776165979181;48.4739923096915
321.797773391961;48.2459014310621
321.819380804742;48.0249868687192
321.840988217522;47.8121902045348
321.862595630303;47.6027869779666
321.884203043083;47.3884753521963
321.905810455863;47.1556544180602
321.927417868644;46.9043872205731
321.949025281424;46.6440153012042
321.970632694205;46.3653749038799
321.992240106985;46.0694514119558
322.013847519766;45.7753097068234
322.035454932546;45.487229373715
322.057062345327;45.1860850860099
322.078669758107;44.852433548275
322.100277170887;44.490858276309
322.121884583668;44.1100713915145
322.143491996448;43.7165851333179
322.165099409229;43.3149544402654
322.186706822009;42.9172549538392
322.20831423479;42.5280279293821
322.22992164757;42.1425000609912
322.251529060351;41.763470631709
322.273136473131;41.4081202652055
322.294743885911;41.0910066944502
322.316351298692;40.8155195685056
322.337958711472;40.5849179038432
322.359566124253;40.4086756330115
322.381173537033;40.296623807766
322.402780949814;40.2672994442189
322.424388362594;40.3248590115966
322.445995775375;40.4509839030972
322.467603188155;40.6317039405573
322.489210600935;40.878030455267
322.510818013716;41.1976143075602
322.532425426496;41.5792767371762
322.554032839277;41.9870413843269
322.575640252057;42.404486188241
322.597247664838;42.837853269972
322.618855077618;43.2801732661746
322.640462490399;43.7069243957967
322.662069903179;44.087650901775
322.683677315959;44.4036928726266
322.70528472874;44.6566750228446
322.72689214152;44.8579260370209
322.748499554301;45.0105934839592
322.770106967081;45.1036350977264
322.791714379862;45.1253944122372
322.813321792642;45.0742703796137
322.834929205423;44.9632475595958
322.856536618203;44.8112076501426
322.878144030983;44.6257877082425
322.899751443764;44.4013111594783
322.921358856544;44.1285785482343
322.942966269325;43.8144075549534
322.964573682105;43.4885079442295
322.986181094886;43.1598862157349
323.007788507666;42.8221057421139
323.029395920447;42.4774561046421
323.051003333227;42.1450542887085
323.072610746007;41.8333667401449
323.094218158788;41.5344405302818
323.115825571568;41.2423240856125
323.137432984349;40.9599991166785
323.159040397129;40.703635306739
323.18064780991;40.4935266351593
323.20225522269;40.3406505613572
323.223862635471;40.2585760594445
323.245470048251;40.2486860857769
323.267077461031;40.3011196387668
323.288684873812;40.4158116973809
323.310292286592;40.5959954624311
323.331899699373;40.8364483299724
323.353507112153;41.1319106154975
323.375114524934;41.4679382182826
323.396721937714;41.8240267085866
323.418329350495;42.1922983495023
323.439936763275;42.5696137961356
323.461544176055;42.93712850366
323.483151588836;43.2783513624943
323.504759001616;43.5857521500626
323.526366414397;43.8534071383857
323.547973827177;44.0764810074269
323.569581239958;44.2428047915854
323.591188652738;44.3365934391422
323.612796065519;44.3632720225734
323.634403478299;44.3222817354811
323.656010891079;44.2074502716811
323.67761830386;44.0303437770701
323.69922571664;43.808346542728
323.720833129421;43.554848697625
323.742440542201;43.2838945623331
323.764047954982;43.0022296026054
323.785655367762;42.709971352553
323.807262780543;42.4120281370513
323.828870193323;42.1203085656589
323.850477606103;41.8411942180541
323.872085018884;41.5769721318998
323.893692431664;41.3221790924217
323.915299844445;41.0835679947949
323.936907257225;40.8666185618858
323.958514670006;40.6595686756974
323.980122082786;40.4561241633041
324.001729495567;40.2553988346675
324.023336908347;40.051808395804
324.044944321127;39.84281123286
324.066551733908;39.62959100073
324.088159146688;39.4174544329594
324.109766559469;39.2114447237342
324.131373972249;39.0150435436673
324.15298138503;38.8217450459801
324.17458879781;38.6276845588301
324.196196210591;38.4437697158242
324.217803623371;38.2797889753447
324.239411036151;38.155454558835
324.261018448932;38.0778593186005
324.282625861712;38.0444880252916
324.304233274493;38.0449124697725
324.325840687273;38.0798903128474
324.347448100054;38.1443091750102
324.369055512834;38.2270925916337
324.390662925615;38.320868130804
324.412270338395;38.4226569823704
324.433877751175;38.5336733485666
324.455485163956;38.6415029088249
324.477092576736;38.7264299053957
324.498699989517;38.7730845081845
324.520307402297;38.7706223997964
324.541914815078;38.7151525065817
324.563522227858;38.6103367810541
324.585129640639;38.4332618194882
324.606737053419;38.1753946440468
324.628344466199;37.8650290384743
324.64995187898;37.5129118340054
324.67155929176;37.1018600866876
324.693166704541;36.6511223897548
324.714774117321;36.2063911516963
324.736381530102;35.7839846504266
324.757988942882;35.37431513049
324.779596355663;34.9735362397737
