Name;BF_ESR_01_7202s_y_gon_160dg_result

Recipe
Accumulations;5;Number of accumulations
RetryCount;0;Number of retries on error
AbortOnError;True;Abort on error
EnableQFactorMeasurement;False;Enable/Disable q-Factor measurement
Bfrom;313;B from
Bto;363;B to
SweepTime;60;Sweep time
Modulation;0.2;Modulation
ModulationFreq;100;Modulation
BHoldEnabled;False;B hold enabled
BHold;0;B hold
MicrowavePower;2;Microwave power
MarkerEnabled;False;
MarkerStartField;0;
MarkerEndField;0;
Mode;;
KineticGFact;0;
KineticTotalTransientTime;0;
KineticTimeResolution;0;
TempFrom;5;
TempUseSlope;False;
TempTo;5;
TempdT;1;
TempSetupTime;0;
GonFrom;0;
GonTo;180;
GonSteps;20;
XRayEnabled;False;
XRayTime;3;
XRayVoltage;40;
XRayCurrent;0.5;
UVEnabled;False;
UVIntensity;0;
UVTime;0;
UVLeadTime;0;
UVWavelength;0;
PowSweepFrom;1;
PowSweepTo;5;
PowSweepSteps;5;
AmpModSweepFrom;0;
AmpModSweepTo;1;
AmpModSweepSteps;10;
ExtTriggerEnabled;False;
ExtTrigLeadTime;0;
ExtTrigOnTime;5;

Meas
BField [mT];MW_Absorption []
313.020348739624;71.0205253231864
313.041950085348;70.5237229051419
313.063551431071;69.9262616942699
313.085152776795;69.2391095695109
313.106754122518;68.4825641788573
313.128355468242;67.6984378596638
313.149956813966;66.9256943595112
313.171558159689;66.1582507503342
313.193159505413;65.4080981123303
313.214760851136;64.7040784857429
313.23636219686;64.0582073591494
313.257963542584;63.4665534345008
313.279564888307;62.9313655355532
313.301166234031;62.4622088737257
313.322767579754;62.0654789155716
313.344368925478;61.7435755722849
313.365970271202;61.4935537043546
313.387571616925;61.31101258427
313.409172962649;61.2033781097625
313.430774308372;61.1664835195963
313.452375654096;61.1861820343386
313.47397699982;61.2525671417999
313.495578345543;61.366993398545
313.517179691267;61.5340858256145
313.53878103699;61.7529265637547
313.560382382714;62.0080147699388
313.581983728438;62.2797552280264
313.603585074161;62.5413025051822
313.625186419885;62.7700013771608
313.646787765608;62.963005076798
313.668389111332;63.1265498123292
313.689990457056;63.2623438873232
313.711591802779;63.3595109896428
313.733193148503;63.4046892694001
313.754794494226;63.4033713031704
313.77639583995;63.3617853018643
313.797997185674;63.2878447039247
313.819598531397;63.2009271501789
313.841199877121;63.1158093859243
313.862801222845;63.0377877108477
313.884402568568;62.9703017300498
313.906003914292;62.9189187992056
313.927605260015;62.8880907568585
313.949206605739;62.8771656311656
313.970807951463;62.8836542624611
313.992409297186;62.9105789384686
314.01401064291;62.9561291025982
314.035611988633;63.0157688178676
314.057213334357;63.0923259890944
314.07881468008;63.1842620913563
314.100416025804;63.2794286186306
314.122017371528;63.3653507011164
314.143618717251;63.4314614755734
314.165220062975;63.4685564443147
314.186821408699;63.4695048414085
314.208422754422;63.4228886710107
314.230024100146;63.3203813012376
314.251625445869;63.1616127506011
314.273226791593;62.9495549186111
314.294828137317;62.681767741669
314.31642948304;62.3683558932823
314.338030828764;62.029566124156
314.359632174487;61.6894076086545
314.381233520211;61.3663616686189
314.402834865935;61.0747618155529
314.424436211658;60.8270634152838
314.446037557382;60.6297976917378
314.467638903105;60.4849777985575
314.489240248829;60.3893782728929
314.510841594553;60.3390276991592
314.532442940276;60.3341066694384
314.554044286;60.3764752796886
314.575645631723;60.4515588778101
314.597246977447;60.5383078386202
314.618848323171;60.6199046926061
314.640449668894;60.6843818738968
314.662051014618;60.7294268309182
314.683652360341;60.7490602862699
314.705253706065;60.7260996969991
314.726855051789;60.6537018052092
314.748456397512;60.5348860724719
314.770057743236;60.3706020189777
314.791659088959;60.1593604975388
314.813260434683;59.8928174749786
314.834861780407;59.5662337744945
314.85646312613;59.1901708744037
314.878064471854;58.7900306868772
314.899665817577;58.3686164269316
314.921267163301;57.9179342764513
314.942868509025;57.4491347606657
314.964469854748;56.983120706072
314.986071200472;56.5261717992547
315.007672546195;56.0849548042965
315.029273891919;55.6907762152189
315.050875237643;55.3489957690538
315.072476583366;55.0484877733356
315.09407792909;54.7886586012144
315.115679274813;54.5822033919282
315.137280620537;54.4363221359398
315.158881966261;54.3475212122529
315.180483311984;54.3132889992214
315.202084657708;54.337170975786
315.223686003431;54.4105907992403
315.245287349155;54.5218996976379
315.266888694879;54.6728364233486
315.288490040602;54.8544985724717
315.310091386326;55.0507637382433
315.331692732049;55.2542378298526
315.353294077773;55.4629913297106
315.374895423497;55.6680391423902
315.39649676922;55.8617235471715
315.418098114944;56.0430146597902
315.439699460667;56.1983396379222
315.461300806391;56.3078301543402
315.482902152115;56.358370906586
315.504503497838;56.3280771063303
315.526104843562;56.235495110116
315.547706189285;56.1050628999445
315.569307535009;55.9339327236626
315.590908880733;55.7176657023111
315.612510226456;55.449075210829
315.63411157218;55.1311335160133
315.655712917903;54.7828995281406
315.677314263627;54.4234016392994
315.698915609351;54.0660092239399
315.720516955074;53.7279761762249
315.742118300798;53.4107149463298
315.763719646521;53.1083551925391
315.785320992245;52.8175569078954
315.806922337969;52.5491109303125
315.828523683692;52.3097778648562
315.850125029416;52.0886933936354
315.871726375139;51.8614723341415
315.893327720863;51.6238298061503
315.914929066587;51.3892239722306
315.93653041231;51.1653777398103
315.958131758034;50.9421403597685
315.979733103758;50.705755346869
316.001334449481;50.4516593219327
316.022935795205;50.1857704661514
316.044537140928;49.9165530780259
316.066138486652;49.6466062415039
316.087739832376;49.3899091002199
316.109341178099;49.1659500470479
316.130942523823;48.9810183546282
316.152543869546;48.8279259264247
316.17414521527;48.6934560855737
316.195746560993;48.5736245486342
316.217347906717;48.4941169871346
316.238949252441;48.4674454424862
316.260550598164;48.4731880159599
316.282151943888;48.4885104869134
316.303753289612;48.5025146836901
316.325354635335;48.5130515805278
316.346955981059;48.5250053105753
316.368557326782;48.5331509586899
316.390158672506;48.5264848834632
316.41176001823;48.5052999321558
316.433361363953;48.4696794043421
316.454962709677;48.4165243497998
316.4765640554;48.3465148576441
316.498165401124;48.2686493007218
316.519766746848;48.194979914599
316.541368092571;48.1280359126505
316.562969438295;48.0624978610557
316.584570784018;48.0044122936605
316.606172129742;47.9733634206406
316.627773475466;47.9744867196673
316.649374821189;47.9951925351041
316.670976166913;48.019272873915
316.692577512636;48.0447545623214
316.71417885836;48.0765627343424
316.735780204084;48.1181725510163
316.757381549807;48.1642863586326
316.778982895531;48.201733564487
316.800584241254;48.2246450375956
316.822185586978;48.2475679843653
316.843786932702;48.2706256991522
316.865388278425;48.2767841493334
316.886989624149;48.262255738598
316.908590969872;48.2477671993093
316.930192315596;48.2524626321039
316.95179366132;48.2764930908411
316.973395007043;48.3183602785403
316.994996352767;48.3636033648542
317.01659769849;48.4096435027998
317.038199044214;48.4659594317291
317.059800389938;48.5354994497061
317.081401735661;48.6018705560448
317.103003081385;48.6501364200073
317.124604427108;48.6852554254535
317.146205772832;48.7004407517722
317.167807118556;48.6818135572889
317.189408464279;48.618066700441
317.211009810003;48.5020808234332
317.232611155726;48.3349224305946
317.25421250145;48.1387346495384
317.275813847174;47.9296077426347
317.297415192897;47.7130780847929
317.319016538621;47.4867495669982
317.340617884344;47.2714619433951
317.362219230068;47.0897352065016
317.383820575792;46.9481209131876
317.405421921515;46.8582238836475
317.427023267239;46.8469624961922
317.448624612962;46.9234659413954
317.470225958686;47.0692459635412
317.49182730441;47.2750545557799
317.513428650133;47.5309486976539
317.535029995857;47.8057801380948
317.55663134158;48.0725672474414
317.578232687304;48.3170161779273
317.599834033028;48.521351136405
317.621435378751;48.6628378182688
317.643036724475;48.7276640636158
317.664638070198;48.7181546748839
317.686239415922;48.6427087263415
317.707840761646;48.506006164546
317.729442107369;48.3123312521382
317.751043453093;48.0886736139529
317.772644798816;47.8713219984275
317.79424614454;47.6715043686636
317.815847490264;47.4910212900511
317.837448835987;47.3408147086792
317.859050181711;47.2377792633688
317.880651527434;47.1930308794142
317.902252873158;47.2036284763402
317.923854218882;47.2635190479258
317.945455564605;47.3643571517633
317.967056910329;47.487497145958
317.988658256052;47.6195333154286
318.010259601776;47.7559999358377
318.0318609475;47.8952504625007
318.053462293223;48.0307738850664
318.075063638947;48.1485036978966
318.096664984671;48.2294509695561
318.118266330394;48.2646587247774
318.139867676118;48.2552068236138
318.161469021841;48.2047681159015
318.183070367565;48.1240314376508
318.204671713288;48.0195667829513
318.226273059012;47.8905659904552
318.247874404736;47.7418756303204
318.269475750459;47.5938930084274
318.291077096183;47.4592400991025
318.312678441906;47.3359678341319
318.33427978763;47.2208465112642
318.355881133354;47.1126159003308
318.377482479077;47.0109159651285
318.399083824801;46.9145096477623
318.420685170525;46.8280952200875
318.442286516248;46.7645833761348
318.463887861972;46.7299102839092
318.485489207695;46.7220403056047
318.507090553419;46.7300828977069
318.528691899143;46.7470267583675
318.550293244866;46.770988617839
318.57189459059;46.7988959496073
318.593495936313;46.8286147520818
318.615097282037;46.8591215815291
318.636698627761;46.8885475378252
318.658299973484;46.9079007440131
318.679901319208;46.9059314655515
318.701502664931;46.8827516514371
318.723104010655;46.8477119573676
318.744705356379;46.8106146047744
318.766306702102;46.7724481433195
318.787908047826;46.743267226254
318.809509393549;46.730439457209
318.831110739273;46.7297200230532
318.852712084997;46.7349556264036
318.87431343072;46.7468146518342
318.895914776444;46.7629630474694
318.917516122167;46.7771964218451
318.939117467891;46.7811469142582
318.960718813615;46.7680484572763
318.982320159338;46.736824698932
319.003921505062;46.6842692306228
319.025522850785;46.606410056598
319.047124196509;46.5142807664022
319.068725542233;46.4302668092378
319.090326887956;46.3611098411783
319.11192823368;46.3032525458342
319.133529579403;46.2608173723505
319.155130925127;46.2404133623771
319.176732270851;46.250290400084
319.198333616574;46.2943234732178
319.219934962298;46.3712462858472
319.241536308021;46.4770415398662
319.263137653745;46.607617017046
319.284738999469;46.7449910277871
319.306340345192;46.8731186408879
319.327941690916;46.9813428739355
319.349543036639;47.0563502954637
319.371144382363;47.0870108476057
319.392745728087;47.0653289398473
319.41434707381;46.9845626428548
319.435948419534;46.8371292358933
319.457549765257;46.61758660458
319.479151110981;46.3258858527472
319.500752456705;45.9634378205255
319.522353802428;45.5411899670558
319.543955148152;45.0810433778176
319.565556493875;44.6014185681639
319.587157839599;44.1199264357691
319.608759185323;43.6541837611723
319.630360531046;43.2196910656963
319.65196187677;42.8228860298271
319.673563222493;42.4679562169897
319.695164568217;42.1686547677793
319.716765913941;41.9432187706753
319.738367259664;41.801486532937
319.759968605388;41.736010448773
319.781569951111;41.7425533422363
319.803171296835;41.8241045352961
319.824772642559;41.9818368733142
319.846373988282;42.2074621132503
319.867975334006;42.4765559252176
319.889576679729;42.767854415366
319.911178025453;43.0731575700986
319.932779371177;43.387871003391
319.9543807169;43.7006794014433
319.975982062624;43.9950125322442
319.997583408347;44.2573646998991
320.019184754071;44.4787862421722
320.040786099795;44.663583890779
320.062387445518;44.8151799538968
320.083988791242;44.9278469316835
320.105590136965;44.9926947755008
320.127191482689;45.0035510320727
320.148792828413;44.9682556299984
320.170394174136;44.8973910032849
320.19199551986;44.7944793365287
320.213596865584;44.6620507551719
320.235198211307;44.504818089156
320.256799557031;44.3298650230861
320.278400902754;44.141987135264
320.300002248478;43.9556513658498
320.321603594201;43.7949379241784
320.343204939925;43.668264870135
320.364806285649;43.567670288182
320.386407631372;43.4840079927352
320.408008977096;43.4142936908229
320.429610322819;43.3641146187299
320.451211668543;43.3354641382808
320.472813014267;43.3300828240689
320.49441435999;43.351642118779
320.516015705714;43.3991801662086
320.537617051438;43.4628451683386
320.559218397161;43.5397331045061
320.580819742885;43.6367227314817
320.602421088608;43.7522931504703
320.624022434332;43.8783966031695
320.645623780056;44.007080424971
320.667225125779;44.1375918588072
320.688826471503;44.270141941586
320.710427817226;44.4011116315871
320.73202916295;44.5281355462485
320.753630508674;44.6478118177318
320.775231854397;44.7530184986734
320.796833200121;44.8391112761233
320.818434545844;44.894856001131
320.840035891568;44.9217948924538
320.861637237292;44.9398565687769
320.883238583015;44.9585954621706
320.904839928739;44.9672502804757
320.926441274462;44.9642252615234
320.948042620186;44.971847692618
320.96964396591;45.0051906361239
320.991245311633;45.0582293286274
321.012846657357;45.1422941995319
321.03444800308;45.2714713578493
321.056049348804;45.4430863640108
321.077650694528;45.6372976303298
321.099252040251;45.848864829777
321.120853385975;46.0775793211166
321.142454731698;46.3149447609692
321.164056077422;46.5487472663347
321.185657423146;46.7678217284996
321.207258768869;46.964487031812
321.228860114593;47.1310708219364
321.250461460316;47.2525616036861
321.27206280604;47.3168093669703
321.293664151764;47.3193594681746
321.315265497487;47.2515797913046
321.336866843211;47.1035621911365
321.358468188934;46.8825176033551
321.380069534658;46.6078580857778
321.401670880382;46.2865395631288
321.423272226105;45.9184994921308
321.444873571829;45.5086288483155
321.466474917552;45.0621560047315
321.488076263276;44.5795696891036
321.509677609;44.0644605172916
321.531278954723;43.5395954992564
321.552880300447;43.0310731599905
321.57448164617;42.5659179558393
321.596082991894;42.1535449882922
321.617684337618;41.7957631294297
321.639285683341;41.4867668040403
321.660887029065;41.231907022263
321.682488374788;41.0441904067462
321.704089720512;40.9154396581537
321.725691066236;40.842387491953
321.747292411959;40.8149792956841
321.768893757683;40.8212547077044
321.790495103406;40.8493835791417
321.81209644913;40.8930760365431
321.833697794854;40.9465890909072
321.855299140577;40.9977933165885
321.876900486301;41.0398665607247
321.898501832024;41.072383791303
321.920103177748;41.0969820608711
321.941704523472;41.1129100754441
321.963305869195;41.1155372368584
321.984907214919;41.0994993368183
322.006508560642;41.0597978031495
322.028109906366;40.9886256400964
322.04971125209;40.87623310688
322.071312597813;40.7183942627638
322.092913943537;40.513128557142
322.11451528926;40.2630177885796
322.136116634984;39.9748168302796
322.157717980708;39.6548593886958
322.179319326431;39.3027650305795
322.200920672155;38.9270527784918
322.222522017878;38.5575912762747
322.244123363602;38.2063591077933
322.265724709326;37.872515859691
322.287326055049;37.5632601147402
322.308927400773;37.30221666399
322.330528746497;37.1062306201283
322.35213009222;36.9762465095042
322.373731437944;36.9097759067309
322.395332783667;36.9044445075566
322.416934129391;36.9507478094989
322.438535475114;37.0359857450767
322.460136820838;37.1501845374498
322.481738166562;37.2883019399228
322.503339512285;37.4449821082183
322.524940858009;37.6080596911788
322.546542203732;37.7622563277714
322.568143549456;37.8999115963415
322.58974489518;38.0153086032061
322.611346240903;38.1083883206655
322.632947586627;38.1787156600401
322.654548932351;38.2181775471054
322.676150278074;38.218600018659
322.697751623798;38.1768359032998
322.719352969521;38.0976272919856
322.740954315245;37.9864315150354
322.762555660969;37.839830411858
322.784157006692;37.6583903443876
322.805758352416;37.4658928612225
322.827359698139;37.2774044383352
322.848961043863;37.0909170877107
322.870562389587;36.9095586099475
322.89216373531;36.7468654248368
322.913765081034;36.6152599553602
322.935366426757;36.5239188091361
322.956967772481;36.4853001570484
322.978569118205;36.5102912258093
323.000170463928;36.6074487189239
323.021771809652;36.7805172812983
323.043373155375;37.0254451840117
323.064974501099;37.3393620039284
323.086575846823;37.7145628180424
323.108177192546;38.1262656480807
323.12977853827;38.5557256775915
323.151379883993;38.9957789069356
323.172981229717;39.4141877362161
323.194582575441;39.78786130044
323.216183921164;40.1155184104484
323.237785266888;40.4018649587432
323.259386612611;40.6391328605127
323.280987958335;40.8030262165958
323.302589304059;40.8872134543674
323.324190649782;40.9060223270516
323.345791995506;40.8767372892101
323.367393341229;40.8127453052272
323.388994686953;40.7208626018607
323.410596032677;40.6038189347919
323.4321973784;40.475540554729
323.453798724124;40.3527252853381
323.475400069847;40.243296341078
323.497001415571;40.145049117137
323.518602761295;40.0635535059329
323.540204107018;40.0037732581261
323.561805452742;39.9597506432272
323.583406798465;39.9231707662507
323.605008144189;39.8877420750475
323.626609489913;39.8500347173777
323.648210835636;39.8049020273424
323.66981218136;39.7458689992341
323.691413527083;39.6679552824855
323.713014872807;39.5640380452091
323.734616218531;39.4286970030593
323.756217564254;39.2553336568967
323.777818909978;39.0470947160465
323.799420255701;38.8202010802445
323.821021601425;38.5834108841157
323.842622947149;38.340350023549
323.864224292872;38.0944995881563
323.885825638596;37.8489491277527
323.907426984319;37.6141230113642
323.929028330043;37.3923569058127
323.950629675767;37.1692492698964
323.97223102149;36.9317118389856
323.993832367214;36.6735354504617
324.015433712937;36.3975638603935
324.037035058661;36.1102999302927
324.058636404385;35.8103072778691
324.080237750108;35.4976118927143
324.101839095832;35.1717985081811
324.123440441555;34.8456623314754
324.145041787279;34.5302158481813
324.166643133003;34.2353973390228
324.188244478726;33.9702997357357
324.20984582445;33.7476733882662
324.231447170173;33.5883268979091
324.253048515897;33.4932461671247
324.274649861621;33.4600556569715
324.296251207344;33.4876861493219
324.317852553068;33.5660494792066
324.339453898791;33.6898445129831
324.361055244515;33.8548206834392
324.382656590239;34.0591006870664
324.404257935962;34.2936508675849
324.425859281686;34.5550608146541
324.447460627409;34.8379502372583
324.469061973133;35.1390759045621
324.490663318857;35.4487711733068
324.51226466458;35.7569749203733
324.533866010304;36.0734311666896
324.555467356027;36.4125043167325
324.577068701751;36.7686882207251
324.598670047475;37.1267435525025
324.620271393198;37.4820303828365
324.641872738922;37.8274350640894
324.663474084645;38.1462925023031
324.685075430369;38.4311010765556
324.706676776093;38.6755490326272
324.728278121816;38.8823677883986
324.74987946754;39.0581260794655
324.771480813264;39.2014441036438
