Name;BF_ESR_01_3600s_X_gon_120dg_result

Recipe
Accumulations;5;Number of accumulations
RetryCount;0;Number of retries on error
AbortOnError;True;Abort on error
EnableQFactorMeasurement;False;Enable/Disable q-Factor measurement
Bfrom;313;B from
Bto;363;B to
SweepTime;60;Sweep time
Modulation;0.2;Modulation
ModulationFreq;100;Modulation
BHoldEnabled;False;B hold enabled
BHold;0;B hold
MicrowavePower;2;Microwave power
MarkerEnabled;False;
MarkerStartField;0;
MarkerEndField;0;
Mode;;
KineticGFact;0;
KineticTotalTransientTime;0;
KineticTimeResolution;0;
TempFrom;5;
TempUseSlope;False;
TempTo;5;
TempdT;1;
TempSetupTime;0;
GonFrom;0;
GonTo;180;
GonSteps;20;
XRayEnabled;False;
XRayTime;3;
XRayVoltage;40;
XRayCurrent;0.5;
UVEnabled;False;
UVIntensity;0;
UVTime;0;
UVLeadTime;0;
UVWavelength;0;
PowSweepFrom;1;
PowSweepTo;5;
PowSweepSteps;5;
AmpModSweepFrom;0;
AmpModSweepTo;1;
AmpModSweepSteps;10;
ExtTriggerEnabled;False;
ExtTrigLeadTime;0;
ExtTrigOnTime;5;

Meas
BField [mT];MW_Absorption []
313.020366516113;286.476915987743
313.041969868635;285.336624260245
313.063573221156;283.705870483266
313.085176573678;282.102543586217
313.106779926199;280.522045218651
313.128383278721;278.984266839164
313.149986631242;277.498104941643
313.171589983764;276.023295331242
313.193193336286;274.541304582287
313.214796688807;273.03736087007
313.236400041329;271.512107816401
313.25800339385;270.009582065214
313.279606746372;268.52026516939
313.301210098893;266.992417753344
313.322813451415;265.421586937238
313.344416803936;263.814523567448
313.366020156458;262.1698550412
313.387623508979;260.470105203378
313.409226861501;258.660990763242
313.430830214023;256.710272418894
313.452433566544;254.718322248178
313.474036919066;252.775341699424
313.495640271587;250.856866295247
313.517243624109;248.901890183655
313.53884697663;246.902471119551
313.560450329152;244.893553943316
313.582053681673;242.867190335351
313.603657034195;240.80461866895
313.625260386716;238.695786763699
313.646863739238;236.569737285166
313.66846709176;234.47899559035
313.690070444281;232.428909436784
313.711673796803;230.399062011388
313.733277149324;228.388791132308
313.754880501846;226.380634647861
313.776483854367;224.322416973846
313.798087206889;222.205882572197
313.81969055941;220.091706304906
313.841293911932;218.012349666008
313.862897264453;215.886425033819
313.884500616975;213.651392335785
313.906103969496;211.349208926636
313.927707322018;209.05711134372
313.94931067454;206.776385854945
313.970914027061;204.443561985684
313.992517379583;202.088730238435
314.014120732104;199.666246886959
314.035724084626;197.091209238168
314.057327437147;194.362653462794
314.078930789669;191.60552895611
314.10053414219;188.950213244903
314.122137494712;186.410708577663
314.143740847233;183.893841483977
314.165344199755;181.3381720137
314.186947552276;178.746565741151
314.208550904798;176.120283113272
314.23015425732;173.454083357635
314.251757609841;170.791972848881
314.273360962363;168.168498953049
314.294964314884;165.544031829367
314.316567667406;162.826745548795
314.338171019927;159.936126797831
314.359774372449;156.867965773367
314.38137772497;153.80053934383
314.402981077492;150.845967968664
314.424584430013;147.974213987898
314.446187782535;145.155959587305
314.467791135056;142.330400469903
314.489394487578;139.432816638858
314.5109978401;136.474378567055
314.532601192621;133.498177426883
314.554204545143;130.481338371671
314.575807897664;127.473202196663
314.597411250186;124.543846686318
314.619014602707;121.67985475916
314.640617955229;118.80923222295
314.66222130775;115.852713476846
314.683824660272;112.880695588653
314.705428012793;110.062998199793
314.727031365315;107.385329687059
314.748634717837;104.695749644819
314.770238070358;101.936958010511
314.79184142288;99.1938742365717
314.813444775401;96.5289956121497
314.835048127923;93.9071080938252
314.856651480444;91.3028838401873
314.878254832966;88.6978844296511
314.899858185487;86.1335399684955
314.921461538009;83.7041004634182
314.94306489053;81.4140866715849
314.964668243052;79.2350694339292
314.986271595574;77.1695196643227
315.007874948095;75.2101619044915
315.029478300617;73.3410972461082
315.051081653138;71.5736105286513
315.07268500566;69.9167795984907
315.094288358181;68.3215824194784
315.115891710703;66.7505798233699
315.137495063224;65.2449035283765
315.159098415746;63.8585481931783
315.180701768267;62.5729542396373
315.202305120789;61.3361503586382
315.22390847331;60.1092463189069
315.245511825832;58.8759297397774
315.267115178353;57.6154140903685
315.288718530875;56.3634268608832
315.310321883397;55.1651937131184
315.331925235918;53.9874765712716
315.35352858844;52.7965177790144
315.375131940961;51.5990972400323
315.396735293483;50.4285252695067
315.418338646004;49.2785313925718
315.439941998526;48.1516991290289
315.461545351047;47.0476783146059
315.483148703569;45.968288197647
315.50475205609;44.9320615765372
315.526355408612;43.9369502940815
315.547958761134;42.9688696764515
315.569562113655;42.0173369364249
315.591165466177;41.0853187746665
315.612768818698;40.1670388678438
315.63437217122;39.2346434667787
315.655975523741;38.281975916511
315.677578876263;37.2988618066717
315.699182228784;36.2483483513977
315.720785581306;35.1347804897028
315.742388933827;34.0258377476678
315.763992286349;32.9395766023885
315.785595638871;31.8090640426036
315.807198991392;30.6172237918407
315.828802343914;29.3983500050591
315.850405696435;28.1587287560154
315.872009048957;26.890079594147
315.893612401478;25.5854460630724
315.915215754;24.241718503171
315.936819106521;22.8538522586932
315.958422459043;21.4221248286205
315.980025811564;19.9758206060133
316.001629164086;18.5770612168896
316.023232516607;17.2366236898887
316.044835869129;15.9082741903705
316.066439221651;14.5505207965576
316.088042574172;13.1708108998631
316.109645926694;11.8369316055657
316.131249279215;10.5837422312838
316.152852631737;9.3569296888117
316.174455984258;8.11616418611828
316.19605933678;6.84962701960012
316.217662689301;5.54920528737676
316.239266041823;4.18234790355098
316.260869394344;2.707292456012
316.282472746866;1.14372392514565
316.304076099387;-0.437854186437221
316.325679451909;-1.9945223191188
316.347282804431;-3.55093042554336
316.368886156952;-5.13453849454771
316.390489509474;-6.70852668812989
316.412092861995;-8.23190859623742
316.433696214517;-9.71237538573666
316.455299567038;-11.1610974168334
316.47690291956;-12.5703169288733
316.498506272081;-13.9567022752482
316.520109624603;-15.3394368541831
316.541712977124;-16.711834932009
316.563316329646;-18.0632049799793
316.584919682168;-19.378953979875
316.606523034689;-20.6438138991155
316.628126387211;-21.8572757027214
316.649729739732;-23.0471505476974
316.671333092254;-24.2230037798214
316.692936444775;-25.3268547754425
316.714539797297;-26.3347071370388
316.736143149818;-27.2846687007839
316.75774650234;-28.1852470824702
316.779349854861;-29.0113806584182
316.800953207383;-29.7685705989118
316.822556559904;-30.4568792102205
316.844159912426;-31.0439063275458
316.865763264948;-31.5238231766681
316.887366617469;-31.927905197669
316.908969969991;-32.2933270273318
316.930573322512;-32.6425729436879
316.952176675034;-32.9934993720069
316.973780027555;-33.3567961616299
316.995383380077;-33.7339746878289
317.016986732598;-34.1224677834543
317.03859008512;-34.5267528052866
317.060193437641;-34.9498004617853
317.081796790163;-35.3904535713506
317.103400142685;-35.8421086039663
317.125003495206;-36.2947019162464
317.146606847728;-36.7458012035136
317.168210200249;-37.1856834658507
317.189813552771;-37.6042680515624
317.211416905292;-37.9927408045911
317.233020257814;-38.3414374695313
317.254623610335;-38.6426096648806
317.276226962857;-38.8964875148072
317.297830315378;-39.102910842723
317.3194336679;-39.2512678582339
317.341037020421;-39.3303438985791
317.362640372943;-39.3372190588568
317.384243725465;-39.2767369633656
317.405847077986;-39.1525786894831
317.427450430508;-38.9542335082779
317.449053783029;-38.672673447133
317.470657135551;-38.3154399825905
317.492260488072;-37.8943528191464
317.513863840594;-37.4098828418236
317.535467193115;-36.8511873054194
317.557070545637;-36.2181152073171
317.578673898158;-35.5400056878001
317.60027725068;-34.8446874890624
317.621880603201;-34.1212252439021
317.643483955723;-33.3595748537199
317.665087308245;-32.5818557771803
317.686690660766;-31.8027014624127
317.708294013288;-31.0100259593352
317.729897365809;-30.2019874749303
317.751500718331;-29.3784647582588
317.773104070852;-28.5380530379162
317.794707423374;-27.6771658358651
317.816310775895;-26.7860165580403
317.837914128417;-25.8678326575782
317.859517480938;-24.942682053645
317.88112083346;-24.028709453002
317.902724185982;-23.1171776845235
317.924327538503;-22.1641333495074
317.945930891025;-21.1435839131349
317.967534243546;-20.0840473924017
317.989137596068;-18.9924926495625
318.010740948589;-17.8270229180916
318.032344301111;-16.5754071233312
318.053947653632;-15.2857869581071
318.075551006154;-14.0032142169686
318.097154358675;-12.733758310883
318.118757711197;-11.4717347393548
318.140361063718;-10.2170951420104
318.16196441624;-8.94064120360332
318.183567768762;-7.6452782660985
318.205171121283;-6.38425498971372
318.226774473805;-5.14832282071615
318.248377826326;-3.8906092045558
318.269981178848;-2.57165585038149
318.291584531369;-1.21570726742806
318.313187883891;0.11768525497763
318.334791236412;1.40144684757365
318.356394588934;2.65002111464116
318.377997941455;3.88741162831519
318.399601293977;5.1370559804385
318.421204646499;6.4095955475417
318.44280799902;7.71561365164433
318.464411351542;9.00674072620382
318.486014704063;10.245322524668
318.507618056585;11.4609579546127
318.529221409106;12.7113771434662
318.550824761628;13.9766620066372
318.572428114149;15.2250792317377
318.594031466671;16.4431644476673
318.615634819192;17.6477637855876
318.637238171714;18.8919721822687
318.658841524235;20.2398334898792
318.680444876757;21.6845139637718
318.702048229279;23.1372598208203
318.7236515818;24.5502059675154
318.745254934322;25.9622363149654
318.766858286843;27.4088023970334
318.788461639365;28.8470978607881
318.810064991886;30.2040049851878
318.831668344408;31.4659431070929
318.853271696929;32.6686692095581
318.874875049451;33.8425303227305
318.896478401972;34.9832683974653
318.918081754494;36.0456300420551
318.939685107015;37.0271044755658
318.961288459537;37.9499860410917
318.982891812059;38.7991651958181
319.00449516458;39.6052684169335
319.026098517102;40.3825393392235
319.047701869623;41.139898962196
319.069305222145;41.8966281331349
319.090908574666;42.6600971935934
319.112511927188;43.4270982508061
319.134115279709;44.2087718677829
319.155718632231;45.0319142684804
319.177321984752;45.896688678882
319.198925337274;46.7797152306787
319.220528689796;47.6788064105153
319.242132042317;48.5861071235785
319.263735394839;49.4729166047156
319.28533874736;50.3392147058438
319.306942099882;51.2022336038213
319.328545452403;52.0591915952382
319.350148804925;52.8713248414148
319.371752157446;53.579613222635
319.393355509968;54.1916835528439
319.414958862489;54.7333979229151
319.436562215011;55.2149307421789
319.458165567532;55.6139987621385
319.479768920054;55.9260307321251
319.501372272576;56.1663986296077
319.522975625097;56.3484501836377
319.544578977619;56.486864398415
319.56618233014;56.5914883421408
319.587785682662;56.6708310528307
319.609389035183;56.735794735659
319.630992387705;56.7912142179844
319.652595740226;56.8377126846918
319.674199092748;56.8720465237539
319.695802445269;56.8881148969732
319.717405797791;56.8904965253572
319.739009150312;56.8864772930251
319.760612502834;56.8704966502781
319.782215855356;56.8341391595657
319.803819207877;56.7803330988187
319.825422560399;56.7212393246347
319.84702591292;56.6613497956371
319.868629265442;56.595029237677
319.890232617963;56.5159004195471
319.911835970485;56.4236887687459
319.933439323006;56.3182036137299
319.955042675528;56.2064533905886
319.976646028049;56.0887679729291
319.998249380571;55.9654657016188
320.019852733093;55.8457025533512
320.041456085614;55.7432792857098
320.063059438136;55.6685583931573
320.084662790657;55.6277354142432
320.106266143179;55.6309789418428
320.1278694957;55.6957735986195
320.149472848222;55.8323778392072
320.171076200743;56.0425331608137
320.192679553265;56.3431945338978
320.214282905786;56.7588544285121
320.235886258308;57.2716601051232
320.257489610829;57.8530445941065
320.279092963351;58.5021467771265
320.300696315873;59.2211253824916
320.322299668394;59.9978379030972
320.343903020916;60.8124328969416
320.365506373437;61.6364706183055
320.387109725959;62.4392844865965
320.40871307848;63.2002352992869
320.430316431002;63.9110889188705
320.451919783523;64.5575919595701
320.473523136045;65.1240030783381
320.495126488566;65.6087887297394
320.516729841088;66.0043845681853
320.53833319361;66.2904771740443
320.559936546131;66.4662179701083
320.581539898653;66.5441989316092
320.603143251174;66.5321147094868
320.624746603696;66.4511284223122
320.646349956217;66.3328857048006
320.667953308739;66.1937205063577
320.68955666126;66.0432605217496
320.711160013782;65.8935864770484
320.732763366303;65.76949270542
320.754366718825;65.6937465661944
320.775970071346;65.6706736128914
320.797573423868;65.7000608696069
320.81917677639;65.7939371020599
320.840780128911;65.9437184164903
320.862383481433;66.15219397875
320.883986833954;66.4160879461934
320.905590186476;66.6997884661552
320.927193538997;66.9729476606408
320.948796891519;67.218571613473
320.97040024404;67.4198685901085
320.992003596562;67.5652000284217
321.013606949083;67.6498928108668
321.035210301605;67.6667377268221
321.056813654126;67.6053857703453
321.078417006648;67.4649714481721
321.10002035917;67.2451601960612
321.121623711691;66.9566121725466
321.143227064213;66.6010673673372
321.164830416734;66.1860874959417
321.186433769256;65.7305067826736
321.208037121777;65.2457133331245
321.229640474299;64.7568847905682
321.25124382682;64.2920376025004
321.272847179342;63.8655716344936
321.294450531863;63.4778822849021
321.316053884385;63.1307913899307
321.337657236907;62.831821168722
321.359260589428;62.5892529006335
321.38086394195;62.4105458510593
321.402467294471;62.3009004573299
321.424070646993;62.255266922546
321.445673999514;62.2603881101439
321.467277352036;62.3176265536549
321.488880704557;62.4252823174942
321.510484057079;62.5765344789615
321.5320874096;62.7635818090407
321.553690762122;62.9760907112131
321.575294114644;63.2082220429571
321.596897467165;63.4621116446352
321.618500819687;63.7336283478721
321.640104172208;64.0171711582937
321.66170752473;64.3182521614477
321.683310877251;64.6460518109615
321.704914229773;65.0142384271933
321.726517582294;65.433734871483
321.748120934816;65.8769960149905
321.769724287337;66.3259732641919
321.791327639859;66.7929798774534
321.81293099238;67.2783996175507
321.834534344902;67.776163267836
321.856137697423;68.2865023345038
321.877741049945;68.7855323199915
321.899344402467;69.2526879672861
321.920947754988;69.691972198636
321.94255110751;70.1153237637411
321.964154460031;70.5024171954218
321.985757812553;70.8347179154126
322.007361165074;71.1239609601602
322.028964517596;71.3817104600469
322.050567870117;71.6164834453869
322.072171222639;71.8339645623032
322.09377457516;72.0440927661934
322.115377927682;72.2451518036482
322.136981280204;72.4278622253884
322.158584632725;72.5967626685156
322.180187985247;72.75281769923
322.201791337768;72.8957701812018
322.22339469029;73.0311675161287
322.244998042811;73.1781987807898
322.266601395333;73.3424015881847
322.288204747854;73.5097635013937
322.309808100376;73.6683996326255
322.331411452897;73.8241391946879
322.353014805419;73.9811282805816
322.37461815794;74.1438817424768
322.396221510462;74.3108786997687
322.417824862984;74.4773949246241
322.439428215505;74.6516577624417
322.461031568027;74.842737808354
322.482634920548;75.0477303971029
322.50423827307;75.2575110902162
322.525841625591;75.4755585407701
322.547444978113;75.7075827310141
322.569048330634;75.9475106461311
322.590651683156;76.1677546047119
322.612255035677;76.3659539347576
322.633858388199;76.5467477388214
322.655461740721;76.7240170549216
322.677065093242;76.9054374283138
322.698668445764;77.0839945145335
322.720271798285;77.2513052614803
322.741875150807;77.4172042765833
322.763478503328;77.5881445759187
322.78508185585;77.7645122757587
322.806685208371;77.94280287496
322.828288560893;78.1233581793407
322.849891913414;78.3100012713872
322.871495265936;78.5024123187236
322.893098618457;78.7008770965192
322.914701970979;78.8966639256693
322.936305323501;79.0853882112026
322.957908676022;79.2786689016487
322.979512028544;79.4865010045752
323.001115381065;79.7128337701068
323.022718733587;79.9582339195462
323.044322086108;80.2308074402825
323.06592543863;80.526952611469
323.087528791151;80.83997104393
323.109132143673;81.1617652709694
323.130735496194;81.4863915368867
323.152338848716;81.8220648906452
323.173942201237;82.1709460452799
323.195545553759;82.5125874369795
323.217148906281;82.8396067516749
323.238752258802;83.1563426605813
323.260355611324;83.4679255895863
323.281958963845;83.7741428669162
323.303562316367;84.060241875758
323.325165668888;84.3184022199273
323.34676902141;84.5531196833777
323.368372373931;84.7660907532113
323.389975726453;84.9528118418658
323.411579078974;85.1071281477251
323.433182431496;85.230347037714
323.454785784018;85.3227533983554
323.476389136539;85.3840894671654
323.497992489061;85.417302136486
323.519595841582;85.4255469627232
323.541199194104;85.4272059941658
323.562802546625;85.4402124264216
323.584405899147;85.4626102807694
323.606009251668;85.4920948497551
323.62761260419;85.5450959756801
323.649215956711;85.6355697414241
323.670819309233;85.7628154466085
323.692422661755;85.9342099438622
323.714026014276;86.1526676075237
323.735629366798;86.4185015807331
323.757232719319;86.7264450366081
323.778836071841;87.0720905975611
323.800439424362;87.4614934464779
323.822042776884;87.8705869571878
323.843646129405;88.2738000303324
323.865249481927;88.6768944324987
323.886852834448;89.0877196951512
323.90845618697;89.4938650310584
323.930059539491;89.8790875848367
323.951662892013;90.2384437963076
323.973266244535;90.5566088052663
323.994869597056;90.8201908084288
324.016472949578;91.0377989281664
324.038076302099;91.2197368577574
324.059679654621;91.3684620177292
324.081283007142;91.4823546917715
324.102886359664;91.5588070658167
324.124489712185;91.6013164813211
324.146093064707;91.6210630578618
324.167696417228;91.6345253588798
324.18929976975;91.6481852425744
324.210903122271;91.6545333813522
324.232506474793;91.6503053310347
324.254109827315;91.6430081224885
324.275713179836;91.6303552557054
324.297316532358;91.6061459688567
324.318919884879;91.5744067276578
324.340523237401;91.5288460486231
324.362126589922;91.4622142748958
324.383729942444;91.3672067739246
324.405333294965;91.2312897844626
324.426936647487;91.0614786199839
324.448540000008;90.8707524147696
324.47014335253;90.6642948446335
324.491746705052;90.4371537508635
324.513350057573;90.1862810326005
324.534953410095;89.9234756636051
324.556556762616;89.6556083919125
324.578160115138;89.3830439508974
324.599763467659;89.1061272983811
324.621366820181;88.8152482939839
324.642970172702;88.5062250219766
324.664573525224;88.1780064935652
324.686176877745;87.820092346083
324.707780230267;87.4212606697565
