Name;BF_ESR_01_1800s_Y_gon_40dg_result

Recipe
Accumulations;5;Number of accumulations
RetryCount;0;Number of retries on error
AbortOnError;True;Abort on error
EnableQFactorMeasurement;False;Enable/Disable q-Factor measurement
Bfrom;313;B from
Bto;363;B to
SweepTime;60;Sweep time
Modulation;0.2;Modulation
ModulationFreq;100;Modulation
BHoldEnabled;False;B hold enabled
BHold;0;B hold
MicrowavePower;2;Microwave power
MarkerEnabled;False;
MarkerStartField;0;
MarkerEndField;0;
Mode;;
KineticGFact;0;
KineticTotalTransientTime;0;
KineticTimeResolution;0;
TempFrom;5;
TempUseSlope;False;
TempTo;5;
TempdT;1;
TempSetupTime;0;
GonFrom;0;
GonTo;180;
GonSteps;20;
XRayEnabled;False;
XRayTime;3;
XRayVoltage;40;
XRayCurrent;0.5;
UVEnabled;False;
UVIntensity;0;
UVTime;0;
UVLeadTime;0;
UVWavelength;0;
PowSweepFrom;1;
PowSweepTo;5;
PowSweepSteps;5;
AmpModSweepFrom;0;
AmpModSweepTo;1;
AmpModSweepSteps;10;
ExtTriggerEnabled;False;
ExtTrigLeadTime;0;
ExtTrigOnTime;5;

Meas
BField [mT];MW_Absorption []
313.003161315918;61.258154222945
313.024767101929;61.1131033176408
313.046372887941;60.8028529902901
313.067978673952;60.440675182749
313.089584459964;60.0297403962212
313.111190245975;59.5700597832705
313.132796031987;59.0498343953802
313.154401817998;58.4571625738469
313.176007604009;57.7879502091441
313.197613390021;57.0593924471684
313.219219176032;56.2926890363317
313.240824962044;55.4967370751136
313.262430748055;54.6852737566058
313.284036534067;53.9033346498782
313.305642320078;53.1966473555708
313.327248106089;52.555531178051
313.348853892101;51.9745526769977
313.370459678112;51.4802552688531
313.392065464124;51.0893225018305
313.413671250135;50.8025780223825
313.435277036147;50.6187689184469
313.456882822158;50.5312212102039
313.478488608169;50.5151287782116
313.500094394181;50.5528289510273
313.521700180192;50.6310826491187
313.543305966204;50.7375658003878
313.564911752215;50.8629505228195
313.586517538227;51.0021575514967
313.608123324238;51.1476408226561
313.629729110249;51.2907285622418
313.651334896261;51.426865279568
313.672940682272;51.5597468668208
313.694546468284;51.6871061148462
313.716152254295;51.8025627991567
313.737758040307;51.9066029051343
313.759363826318;52.0031438517363
313.780969612329;52.0906690618263
313.802575398341;52.1708207736519
313.824181184352;52.2425964148379
313.845786970364;52.2916025301514
313.867392756375;52.3140207389032
313.888998542387;52.3169942006731
313.910604328398;52.3077472953371
313.932210114409;52.2930383787825
313.953815900421;52.2755718966023
313.975421686432;52.2495011507528
313.997027472444;52.2156703157872
314.018633258455;52.173572983858
314.040239044467;52.1246352541381
314.061844830478;52.0771500242911
314.083450616489;52.037885027881
314.105056402501;52.0094147625123
314.126662188512;51.9954994842941
314.148267974524;51.9940522716397
314.169873760535;51.9911263258045
314.191479546547;51.9754222048603
314.213085332558;51.9529772594752
314.234691118569;51.9278967270072
314.256296904581;51.8869987449402
314.277902690592;51.8301244447881
314.299508476604;51.7647047236242
314.321114262615;51.6843846382218
314.342720048627;51.5877761636624
314.364325834638;51.4893471171161
314.385931620649;51.3944869405267
314.407537406661;51.3017079722533
314.429143192672;51.2158807176647
314.450748978684;51.1444152005167
314.472354764695;51.0978779030342
314.493960550707;51.0845069635687
314.515566336718;51.0992109231926
314.537172122729;51.136256005764
314.558777908741;51.196148898936
314.580383694752;51.2814451727727
314.601989480764;51.3892656344776
314.623595266775;51.5138753286779
314.645201052786;51.6467544733932
314.666806838798;51.7751795834843
314.688412624809;51.8965095113762
314.710018410821;52.0128108933623
314.731624196832;52.1240413725559
314.753229982844;52.2238706015648
314.774835768855;52.3063014003253
314.796441554867;52.3675219978028
314.818047340878;52.409138786995
314.839653126889;52.4351007603167
314.861258912901;52.4391329194746
314.882864698912;52.4253906831112
314.904470484924;52.4078237016453
314.926076270935;52.3886187949319
314.947682056947;52.377458408573
314.969287842958;52.390233328022
314.990893628969;52.431439718643
315.012499414981;52.5057142762001
315.034105200992;52.616565129286
315.055710987004;52.7511535856295
315.077316773015;52.897718476204
315.098922559027;53.067045637681
315.120528345038;53.2588767485977
315.142134131049;53.4498540368863
315.163739917061;53.6255108957052
315.185345703072;53.7912831495996
315.206951489084;53.939162726525
315.228557275095;54.0450605255125
315.250163061106;54.0982423863088
315.271768847118;54.1123250350917
315.293374633129;54.0949696445879
315.314980419141;54.0402942501365
315.336586205152;53.9495158871799
315.358191991164;53.8312295019831
315.379797777175;53.6938371771425
315.401403563186;53.5375949406352
315.423009349198;53.3687586286556
315.444615135209;53.2273695806804
315.466220921221;53.12765855782
315.487826707232;53.0587255639097
315.509432493244;53.024007083764
315.531038279255;53.0303674263902
315.552644065267;53.0765936213034
315.574249851278;53.1603262179882
315.595855637289;53.2761260741572
315.617461423301;53.4173678134611
315.639067209312;53.5817443817985
315.660672995324;53.7638482776833
315.682278781335;53.9528192856562
315.703884567347;54.1360254357213
315.725490353358;54.2967091263791
315.747096139369;54.4249369673816
315.768701925381;54.5272879175356
315.790307711392;54.6204189456787
315.811913497404;54.7186252678427
315.833519283415;54.830981737685
315.855125069426;54.9626333748829
315.876730855438;55.1128589600599
315.898336641449;55.2774082829333
315.919942427461;55.4632489794209
315.941548213472;55.6779332587154
315.963153999484;55.9204998131216
315.984759785495;56.1747909831097
316.006365571506;56.4128855772419
316.027971357518;56.6099692295067
316.049577143529;56.7575107267828
316.071182929541;56.8574092334866
316.092788715552;56.9107774539253
316.114394501564;56.9088970895794
316.136000287575;56.8386330679537
316.157606073586;56.6894228044264
316.179211859598;56.4769120890981
316.200817645609;56.2409533911756
316.222423431621;56.0011655418424
316.244029217632;55.7553443890563
316.265635003644;55.5087573236219
316.287240789655;55.2810863595376
316.308846575667;55.0871097088417
316.330452361678;54.9186503485941
316.352058147689;54.7639033367756
316.373663933701;54.6250895018489
316.395269719712;54.5116525687895
316.416875505724;54.4223169609248
316.438481291735;54.3415124436842
316.460087077746;54.2599373444096
316.481692863758;54.1687839217676
316.503298649769;54.0664048156557
316.524904435781;53.9473848468327
316.546510221792;53.8110467961877
316.568116007804;53.6572408864135
316.589721793815;53.4881344258351
316.611327579826;53.3136964334602
316.632933365838;53.15779605084
316.654539151849;53.0410380193832
316.676144937861;52.9670049356829
316.697750723872;52.9355024583842
316.719356509884;52.9475220396877
316.740962295895;53.0020631255083
316.762568081906;53.0986858009096
316.784173867918;53.2299596200254
316.805779653929;53.3762937724356
316.827385439941;53.5202847104696
316.848991225952;53.6553575508743
316.870597011964;53.7711546580716
316.892202797975;53.8517229722039
316.913808583986;53.8854526719657
316.935414369998;53.8711703453859
316.957020156009;53.8112340995455
316.978625942021;53.7141293737621
317.000231728032;53.5879357333031
317.021837514044;53.4369070490945
317.043443300055;53.2638181302062
317.065049086066;53.0741482954601
317.086654872078;52.8751786923308
317.108260658089;52.6774870648658
317.129866444101;52.4927183659623
317.151472230112;52.3243847516567
317.173078016124;52.1735339574091
317.194683802135;52.0417419998733
317.216289588146;51.9247436924795
317.237895374158;51.8097443089226
317.259501160169;51.6884461024742
317.281106946181;51.5668013667608
317.302712732192;51.4491680015508
317.324318518204;51.3394390232292
317.345924304215;51.2405120644903
317.367530090226;51.1588378702746
317.389135876238;51.1044140095077
317.410741662249;51.0806154562025
317.432347448261;51.0882499970606
317.453953234272;51.1270254496994
317.475559020284;51.195504714872
317.497164806295;51.2902088101183
317.518770592306;51.4106491248276
317.540376378318;51.5494305580189
317.561982164329;51.6859694434304
317.583587950341;51.8076121651463
317.605193736352;51.9190110142827
317.626799522364;52.0185389216577
317.648405308375;52.0805105342558
317.670011094387;52.094220546097
317.691616880398;52.0676776995628
317.713222666409;52.0111528864846
317.734828452421;51.9273618784713
317.756434238432;51.8126153253883
317.778040024444;51.6705948360913
317.799645810455;51.517076366232
317.821251596466;51.3429384524044
317.842857382478;51.1472698068445
317.864463168489;50.9543011179774
317.886068954501;50.7702621970229
317.907674740512;50.582828382935
317.929280526524;50.3884861472628
317.950886312535;50.2003260907503
317.972492098546;50.0339597292231
317.994097884558;49.8857565383381
318.015703670569;49.7518968166722
318.037309456581;49.6473740175724
318.058915242592;49.5776373531477
318.080521028604;49.5413495893548
318.102126814615;49.545107621737
318.123732600626;49.5965845799998
318.145338386638;49.6920271391932
318.166944172649;49.8226805528962
318.188549958661;49.9842840927336
318.210155744672;50.1672991128221
318.231761530684;50.3531411723408
318.253367316695;50.531930025637
318.274973102706;50.6977475336402
318.296578888718;50.8437064503562
318.318184674729;50.9640149758833
318.339790460741;51.0303709768403
318.361396246752;51.0384600408067
318.383002032764;50.9900291996819
318.404607818775;50.8803930263849
318.426213604786;50.7351086266412
318.447819390798;50.5740502214086
318.469425176809;50.4088624146395
318.491030962821;50.2471871410512
318.512636748832;50.1031242919061
318.534242534844;49.9996146200772
318.555848320855;49.9453312187658
318.577454106866;49.9379509887351
318.599059892878;49.9820365390972
318.620665678889;50.0831206427341
318.642271464901;50.2370316412077
318.663877250912;50.431337962772
318.685483036924;50.6523584504134
318.707088822935;50.8790316675089
318.728694608946;51.0920263777976
318.750300394958;51.2743748255476
318.771906180969;51.4064440999498
318.793511966981;51.4895745458885
318.815117752992;51.5285291668113
318.836723539004;51.5204025519315
318.858329325015;51.4673803030056
318.879935111026;51.3686655869122
318.901540897038;51.2268822875047
318.923146683049;51.0588856844603
318.944752469061;50.8804459560995
318.966358255072;50.6964220496927
318.987964041084;50.5086447104508
319.009569827095;50.3166261298862
319.031175613106;50.133885802298
319.052781399118;49.977087323779
319.074387185129;49.8529484009958
319.095992971141;49.7541249885803
319.117598757152;49.6665632543323
319.139204543164;49.5797333291711
319.160810329175;49.4906167478188
319.182416115186;49.4034269990131
319.204021901198;49.3250831043685
319.225627687209;49.2615856442501
319.247233473221;49.2171710217207
319.268839259232;49.195550545784
319.290445045244;49.1974805088466
319.312050831255;49.2256494480776
319.333656617266;49.2864548883027
319.355262403278;49.374629776013
319.376868189289;49.4785295617332
319.398473975301;49.5958037529289
319.420079761312;49.7284941024946
319.441685547324;49.8773498655384
319.463291333335;50.0299139486186
319.484897119346;50.1717350536827
319.506502905358;50.3071621164081
319.528108691369;50.4375601986873
319.549714477381;50.56359553251
319.571320263392;50.6738922161908
319.592926049404;50.7695967030862
319.614531835415;50.8595714778018
319.636137621426;50.9484395006629
319.657743407438;51.0372762153105
319.679349193449;51.1135872497241
319.700954979461;51.1631889618493
319.722560765472;51.1891612351965
319.744166551484;51.1958725308061
319.765772337495;51.1790449711983
319.787378123506;51.1337193394305
319.808983909518;51.0716181666415
319.830589695529;51.0050143375997
319.852195481541;50.9327533023669
319.873801267552;50.858833443656
319.895407053564;50.7936723773641
319.917012839575;50.7381986927015
319.938618625586;50.6892669471304
319.960224411598;50.6471705426452
319.981830197609;50.6128731019933
320.003435983621;50.5864625658095
320.025041769632;50.5633879067386
320.046647555644;50.5288254696859
320.068253341655;50.4696724143601
320.089859127666;50.3817699023542
320.111464913678;50.2633361144252
320.133070699689;50.1135211125437
320.154676485701;49.9397136740861
320.176282271712;49.7513526340501
320.197888057724;49.5534547153841
320.219493843735;49.3544606066297
320.241099629746;49.174324017364
320.262705415758;49.0256964996203
320.284311201769;48.9055521477872
320.305916987781;48.8076541515206
320.327522773792;48.7356234904174
320.349128559804;48.6920203482159
320.370734345815;48.6686267254266
320.392340131826;48.647225789065
320.413945917838;48.6053061723459
320.435551703849;48.5253717489006
320.457157489861;48.4099628490387
320.478763275872;48.269109498914
320.500369061884;48.1076724544958
320.521974847895;47.9280249268054
320.543580633906;47.7224320049344
320.565186419918;47.4848639286997
320.586792205929;47.2185987055107
320.608397991941;46.9513676154001
320.630003777952;46.7077991999628
320.651609563964;46.486639291505
320.673215349975;46.2854610081407
320.694821135986;46.10863047839
320.716426921998;45.965330184716
320.738032708009;45.8548067726486
320.759638494021;45.7727000505796
320.781244280032;45.7171836297822
320.802850066044;45.6888430651533
320.824455852055;45.6937847891018
320.846061638066;45.7247183512396
320.867667424078;45.7730631794814
320.889273210089;45.8411640903103
320.910878996101;45.933300504869
320.932484782112;46.0434513403497
320.954090568124;46.1648673698168
320.975696354135;46.3013840679517
320.997302140146;46.4670651915687
321.018907926158;46.6669805898303
321.040513712169;46.8847306104116
321.062119498181;47.1121748307189
321.083725284192;47.3535617019875
321.105331070204;47.6045297670747
321.126936856215;47.8577016231155
321.148542642226;48.1131966538518
321.170148428238;48.3536464238312
321.191754214249;48.5566280903997
321.213360000261;48.7250110500587
321.234965786272;48.8674126227177
321.256571572284;48.9807112104915
321.278177358295;49.0611806968218
321.299783144306;49.1052417251785
321.321388930318;49.1077278945844
321.342994716329;49.0656717044701
321.364600502341;48.9750808878264
321.386206288352;48.8328160812229
321.407812074364;48.6351732748907
321.429417860375;48.3813473989289
321.451023646386;48.0811395973622
321.472629432398;47.7435302589434
321.494235218409;47.3697757976398
321.515841004421;46.9667166133991
321.537446790432;46.5430582945491
321.559052576444;46.1092371645253
321.580658362455;45.6841188792731
321.602264148466;45.2743228434035
321.623869934478;44.8894108988016
321.645475720489;44.5299140543421
321.667081506501;44.2099292537684
321.688687292512;43.9514747073087
321.710293078524;43.742915157794
321.731898864535;43.584683173729
321.753504650546;43.4823240588414
321.775110436558;43.4395266740863
321.796716222569;43.4443555751931
321.818322008581;43.4829502532393
321.839927794592;43.552377716868
321.861533580604;43.6455605601373
321.883139366615;43.7471191093665
321.904745152626;43.845945699171
321.926350938638;43.9373032977448
321.947956724649;44.0148487132874
321.969562510661;44.0676895792698
321.991168296672;44.0789270047852
322.012774082684;44.0343149553502
322.034379868695;43.9292617030234
322.055985654706;43.7710023283038
322.077591440718;43.5601118677759
322.099197226729;43.2954249588462
322.120803012741;42.9827939293414
322.142408798752;42.6336336874647
322.164014584764;42.2577066505661
322.185620370775;41.8557071215003
322.207226156786;41.427302079617
322.228831942798;40.9806960736428
322.250437728809;40.5402494067364
322.272043514821;40.1314985547304
322.293649300832;39.7532642098235
322.315255086844;39.3985538044776
322.336860872855;39.067540377677
322.358466658866;38.767656334155
322.380072444878;38.4993551902916
322.401678230889;38.2503429518185
322.423284016901;38.0177883213447
322.444889802912;37.805129267741
322.466495588924;37.6214051970801
322.488101374935;37.4729744810615
322.509707160946;37.3599171734763
322.531312946958;37.2755751747185
322.552918732969;37.2184987882504
322.574524518981;37.186803001149
322.596130304992;37.1790629529209
322.617736091004;37.1882001668713
322.639341877015;37.2081868183405
322.660947663026;37.2375481134973
322.682553449038;37.27463924251
322.704159235049;37.312942649854
322.725765021061;37.3430942023646
322.747370807072;37.3575788828451
322.768976593084;37.3523065201725
322.790582379095;37.3346113181401
322.812188165106;37.3125826542082
322.833793951118;37.2878042015347
322.855399737129;37.263901535941
322.877005523141;37.2430968987508
322.898611309152;37.2256493494856
322.920217095164;37.2078166373395
322.941822881175;37.1834708957055
322.963428667186;37.1505569155822
322.985034453198;37.1059506867445
323.006640239209;37.0483748398236
323.028246025221;36.9818182224385
323.049851811232;36.9074895674058
323.071457597244;36.8239601207794
323.093063383255;36.7320155876773
323.114669169266;36.6393250136591
323.136274955278;36.557568121028
323.157880741289;36.491934641039
323.179486527301;36.4451391571028
323.201092313312;36.4304838615727
323.222698099324;36.4562714370458
323.244303885335;36.5205325587854
323.265909671346;36.6218220390448
323.287515457358;36.7525856008066
323.309121243369;36.9000461058772
323.330727029381;37.0527824379968
323.352332815392;37.1988784128386
323.373938601404;37.3289389054516
323.395544387415;37.4394094111872
323.417150173426;37.5361652560039
323.438755959438;37.6229935322596
323.460361745449;37.6875306560381
323.481967531461;37.7162209760899
323.503573317472;37.7117543421441
323.525179103484;37.6797206821584
323.546784889495;37.6195166269052
323.568390675506;37.5293729256283
323.589996461518;37.4109707082493
323.611602247529;37.2706710621258
323.633208033541;37.1156663054759
323.654813819552;36.939243546982
323.676419605564;36.7451310358837
323.698025391575;36.5573246544592
323.719631177586;36.385436788325
323.741236963598;36.2294944565406
323.762842749609;36.0887853762319
323.784448535621;35.9659038551579
323.806054321632;35.8640185438479
323.827660107644;35.7813635084692
323.849265893655;35.7166339877693
323.870871679666;35.6628333730342
323.892477465678;35.6143282536862
323.914083251689;35.5732904786584
323.935689037701;35.5479047228104
323.957294823712;35.5342483949284
323.978900609724;35.5207315961427
324.000506395735;35.5029700423909
324.022112181746;35.4911200160384
324.043717967758;35.4963963305547
324.065323753769;35.5164116436879
324.086929539781;35.5430655915265
324.108535325792;35.5816484883998
324.130141111804;35.6430057800696
324.151746897815;35.7279416609886
324.173352683826;35.8295560574973
324.194958469838;35.9376149969514
324.216564255849;36.0481860610215
324.238170041861;36.1666343120682
324.259775827872;36.2992959523638
324.281381613884;36.4470679344158
324.302987399895;36.5992283454689
324.324593185906;36.7432698397167
324.346198971918;36.8738751894271
324.367804757929;36.989029538404
324.389410543941;37.0850784199768
324.411016329952;37.1537250881738
324.432622115964;37.1870076933349
324.454227901975;37.1809646836073
324.475833687986;37.1304028055599
324.497439473998;37.030154920683
324.519045260009;36.894530808109
324.540651046021;36.7350062210913
324.562256832032;36.5482839247991
324.583862618044;36.327976293539
324.605468404055;36.0725751038594
324.627074190066;35.7870255307248
324.648679976078;35.485738084567
324.670285762089;35.1903464177805
324.691891548101;34.9281480406105
324.713497334112;34.7096753706449
