Name;BF_ESR_01_3602s_Z_gon_0dg_result

Recipe
Accumulations;5;Number of accumulations
RetryCount;0;Number of retries on error
AbortOnError;True;Abort on error
EnableQFactorMeasurement;False;Enable/Disable q-Factor measurement
Bfrom;313;B from
Bto;363;B to
SweepTime;60;Sweep time
Modulation;0.2;Modulation
ModulationFreq;100;Modulation
BHoldEnabled;False;B hold enabled
BHold;0;B hold
MicrowavePower;2;Microwave power
MarkerEnabled;False;
MarkerStartField;0;
MarkerEndField;0;
Mode;;
KineticGFact;0;
KineticTotalTransientTime;0;
KineticTimeResolution;0;
TempFrom;5;
TempUseSlope;False;
TempTo;5;
TempdT;1;
TempSetupTime;0;
GonFrom;0;
GonTo;180;
GonSteps;20;
XRayEnabled;False;
XRayTime;3;
XRayVoltage;40;
XRayCurrent;0.5;
UVEnabled;False;
UVIntensity;0;
UVTime;0;
UVLeadTime;0;
UVWavelength;0;
PowSweepFrom;1;
PowSweepTo;5;
PowSweepSteps;5;
AmpModSweepFrom;0;
AmpModSweepTo;1;
AmpModSweepSteps;10;
ExtTriggerEnabled;False;
ExtTrigLeadTime;0;
ExtTrigOnTime;5;

Meas
BField [mT];MW_Absorption []
313.024390487671;54.2146943015946
313.045995237786;54.0486992197158
313.067599987901;53.8753521715036
313.089204738016;53.7106073795384
313.110809488132;53.5864046537837
313.132414238247;53.5087140834859
313.154018988362;53.4653220483162
313.175623738477;53.4474622316741
313.197228488592;53.4542413266917
313.218833238707;53.4863601927153
313.240437988822;53.5427158635653
313.262042738938;53.6290889996
313.283647489053;53.7459197005971
313.305252239168;53.8915746983963
313.326856989283;54.0510074515373
313.348461739398;54.2050243130013
313.370066489513;54.3558245796981
313.391671239628;54.5187514182594
313.413275989744;54.6774940707794
313.434880739859;54.8104541834147
313.456485489974;54.9147693757538
313.478090240089;54.995317816978
313.499694990204;55.0619606386321
313.521299740319;55.111750148073
313.542904490435;55.144998782797
313.56450924055;55.1563826117816
313.586113990665;55.1361738540145
313.60771874078;55.0939493854854
313.629323490895;55.0426590939263
313.65092824101;54.9859329561564
313.672532991125;54.9139834789477
313.694137741241;54.8173585502601
313.715742491356;54.7023135709377
313.737347241471;54.5797553716003
313.758951991586;54.4267736519343
313.780556741701;54.2292885443777
313.802161491816;53.9991515748074
313.823766241932;53.7500411241179
313.845370992047;53.4756207774105
313.866975742162;53.1781947156076
313.888580492277;52.8759789821778
313.910185242392;52.5874738101495
313.931789992507;52.326561297585
313.953394742622;52.0963616980081
313.974999492738;51.8980583624562
313.996604242853;51.738936187492
314.018208992968;51.6260072374222
314.039813743083;51.5580281819245
314.061418493198;51.5275044673407
314.083023243313;51.5276697795312
314.104627993429;51.555625114192
314.126232743544;51.6073273431802
314.147837493659;51.675251929842
314.169442243774;51.7539161537058
314.191046993889;51.8406801974601
314.212651744004;51.9299952310107
314.234256494119;52.0195796854107
314.255861244235;52.1063206423447
314.27746599435;52.1883460037476
314.299070744465;52.262607594324
314.32067549458;52.333050746739
314.342280244695;52.4003710355518
314.36388499481;52.4609619542547
314.385489744926;52.5039330717556
314.407094495041;52.5212853367314
314.428699245156;52.5103612845633
314.450303995271;52.4699693857399
314.471908745386;52.3952517923515
314.493513495501;52.279611718281
314.515118245616;52.1256704589775
314.536722995732;51.9519761205157
314.558327745847;51.7698051741272
314.579932495962;51.5815197836422
314.601537246077;51.3969356822615
314.623141996192;51.226089032459
314.644746746307;51.07601328312
314.666351496423;50.9421316508133
314.687956246538;50.8115966179008
314.709560996653;50.6975178168557
314.731165746768;50.6172421971559
314.752770496883;50.5735638909368
314.774375246998;50.5614889334971
314.795979997113;50.577730712441
314.817584747229;50.6224681051337
314.839189497344;50.6943277050406
314.860794247459;50.785180812301
314.882398997574;50.8913154318434
314.904003747689;51.0091326508389
314.925608497804;51.129560711047
314.94721324792;51.2533232213853
314.968817998035;51.385514536173
314.99042274815;51.5263915762153
315.012027498265;51.6708670510219
315.03363224838;51.8153343570911
315.055236998495;51.9557993901104
315.07684174861;52.0898652532439
315.098446498726;52.2210730719161
315.120051248841;52.3521792648069
315.141655998956;52.4841756734622
315.163260749071;52.6204557492448
315.184865499186;52.7614843488689
315.206470249301;52.9072236511178
315.228074999417;53.0608165095777
315.249679749532;53.2244349473521
315.271284499647;53.395935933431
315.292889249762;53.5733170116887
315.314493999877;53.7549221268646
315.336098749992;53.9402497929018
315.357703500107;54.1365185250619
315.379308250223;54.3445098418298
315.400913000338;54.5440599572603
315.422517750453;54.7285621444921
315.444122500568;54.9004468767868
315.465727250683;55.0542548818513
315.487332000798;55.1811355546937
315.508936750914;55.2849083072863
315.530541501029;55.3593450512463
315.552146251144;55.3913355526519
315.573751001259;55.3728206100325
315.595355751374;55.284710174606
315.616960501489;55.1489787671637
315.638565251604;54.9817210971947
315.66017000172;54.7920555453874
315.681774751835;54.5923369771844
315.70337950195;54.3892534720678
315.724984252065;54.1921882628274
315.74658900218;54.0094516406273
315.768193752295;53.8408087530446
315.789798502411;53.6865817957734
315.811403252526;53.5525629799058
315.833008002641;53.4443755162222
315.854612752756;53.3622888807632
315.876217502871;53.3042543623281
315.897822252986;53.2681250667329
315.919427003101;53.2453049586867
315.941031753217;53.2276152766694
315.962636503332;53.2150356336416
315.984241253447;53.2104603513081
316.005846003562;53.2131834338526
316.027450753677;53.2219262794833
316.049055503792;53.2325191976548
316.070660253908;53.2432643216475
316.092265004023;53.2578305175283
316.113869754138;53.2774678293
316.135474504253;53.2943165510761
316.157079254368;53.303720780747
316.178684004483;53.3066661094825
316.200288754598;53.3053843462907
316.221893504714;53.3057257072496
316.243498254829;53.3145163942763
316.265103004944;53.3373766715442
316.286707755059;53.379355680896
316.308312505174;53.4419361745298
316.329917255289;53.5258139225487
316.351522005405;53.6338093151494
316.37312675552;53.7642860865542
316.394731505635;53.9132719162739
316.41633625575;54.0754864686665
316.437941005865;54.243265402276
316.45954575598;54.4053730193309
316.481150506095;54.5594340087482
316.502755256211;54.7080509985995
316.524360006326;54.8464339133677
316.545964756441;54.962916930226
316.567569506556;55.0497719139965
316.589174256671;55.1127710262192
316.610779006786;55.1554555834127
316.632383756902;55.1751602974162
316.653988507017;55.1730798714932
316.675593257132;55.1508948647187
316.697198007247;55.1119499924055
316.718802757362;55.0581527414199
316.740407507477;54.9927440438501
316.762012257592;54.9197862456341
316.783617007708;54.8409827105552
316.805221757823;54.7541641648593
316.826826507938;54.6652060030782
316.848431258053;54.5781145003664
316.870036008168;54.4915468061646
316.891640758283;54.3975732208321
316.913245508399;54.2821293412028
316.934850258514;54.1541624927958
316.956455008629;54.0476755023329
316.978059758744;53.9636013487665
316.999664508859;53.8931684954123
317.021269258974;53.8256275793505
317.042874009089;53.7610040380312
317.064478759205;53.7014770987606
317.08608350932;53.662373604755
317.107688259435;53.653409590863
317.12929300955;53.6628356216469
317.150897759665;53.6749700783612
317.17250250978;53.6845164643149
317.194107259896;53.695756248166
317.215712010011;53.7171866385768
317.237316760126;53.7517357868869
317.258921510241;53.7946832585069
317.280526260356;53.8394107471788
317.302131010471;53.8894241901071
317.323735760586;53.958962592659
317.345340510702;54.0620437355593
317.366945260817;54.1922879419286
317.388550010932;54.3462380975584
317.410154761047;54.5269347665498
317.431759511162;54.738777262329
317.453364261277;54.9776967938878
317.474969011393;55.2372851763723
317.496573761508;55.5079956910308
317.518178511623;55.7793460823317
317.539783261738;56.0413540070903
317.561388011853;56.2849801736002
317.582992761968;56.504858623393
317.604597512083;56.700410548162
317.626202262199;56.8691126993429
317.647807012314;56.9938557679074
317.669411762429;57.0567716277524
317.691016512544;57.0590449104376
317.712621262659;57.0079086689365
317.734226012774;56.9056561548338
317.75583076289;56.7594871684885
317.777435513005;56.5868723703531
317.79904026312;56.4017161372739
317.820645013235;56.2089968023414
317.84224976335;56.0091805846926
317.863854513465;55.8125731334998
317.88545926358;55.642501847016
317.907064013696;55.515593225891
317.928668763811;55.4336398185134
317.950273513926;55.3936688939019
317.971878264041;55.3900271355603
317.993483014156;55.4244399652927
318.015087764271;55.5039794413145
318.036692514387;55.6271876526254
318.058297264502;55.7843010169324
318.079902014617;55.962063365172
318.101506764732;56.1551680927495
318.123111514847;56.359036538792
318.144716264962;56.5506773725392
318.166321015077;56.7174863632078
318.187925765193;56.8632372346432
318.209530515308;56.9960153955324
318.231135265423;57.1178116627218
318.252740015538;57.2204188732304
318.274344765653;57.2973997423364
318.295949515768;57.3518728021468
318.317554265884;57.3889873621886
318.339159015999;57.4182328152494
318.360763766114;57.4484073741282
318.382368516229;57.4831804960078
318.403973266344;57.5154509601833
318.425578016459;57.5364235075799
318.447182766574;57.5520384401213
318.46878751669;57.5713494097984
318.490392266805;57.5919017478854
318.51199701692;57.6050001532159
318.533601767035;57.6024832951761
318.55520651715;57.5766502332001
318.576811267265;57.5308175891272
318.598416017381;57.4761168050882
318.620020767496;57.4190245842363
318.641625517611;57.3580833685457
318.663230267726;57.2839325773865
318.684835017841;57.1945103192948
318.706439767956;57.1016936880323
318.728044518071;57.0076381190329
318.749649268187;56.9070806381324
318.771254018302;56.7982625106947
318.792858768417;56.6770161274932
318.814463518532;56.5323368268921
318.836068268647;56.3762545912078
318.857673018762;56.2376387472531
318.879277768878;56.1250069332192
318.900882518993;56.0381106332668
318.922487269108;55.9837340743615
318.944092019223;55.9586158177339
318.965696769338;55.9568930639406
318.987301519453;55.9763137323336
319.008906269568;56.0110212172267
319.030511019684;56.0518658105584
319.052115769799;56.0853558680844
319.073720519914;56.1076720695068
319.095325270029;56.1205488493441
319.116930020144;56.1150007223417
319.138534770259;56.0734712786538
319.160139520375;55.9840395870463
319.18174427049;55.8511767599506
319.203349020605;55.6848022062421
319.22495377072;55.4956462328659
319.246558520835;55.2890863837008
319.26816327095;55.0683250274471
319.289768021065;54.8457420485673
319.311372771181;54.6427780015906
319.332977521296;54.4764009349124
319.354582271411;54.3460721633668
319.376187021526;54.2464706540295
319.397791771641;54.1785133322224
319.419396521756;54.1461854590435
319.441001271872;54.1555873978417
319.462606021987;54.2129560440783
319.484210772102;54.3108029901986
319.505815522217;54.4483250192502
319.527420272332;54.6221484752841
319.549025022447;54.816850608338
319.570629772562;55.0231115369419
319.592234522678;55.2522615808825
319.613839272793;55.5087149915735
319.635444022908;55.7799814796013
319.657048773023;56.0473034625666
319.678653523138;56.2944458980435
319.700258273253;56.510032527755
319.721863023369;56.685900252518
319.743467773484;56.8131287557238
319.765072523599;56.8842254130784
319.786677273714;56.8968615977165
319.808282023829;56.8478785958819
319.829886773944;56.7270017480016
319.851491524059;56.5236669033095
319.873096274175;56.2538566462272
319.89470102429;55.9383515699189
319.916305774405;55.5866678634162
319.93791052452;55.2049427692078
319.959515274635;54.8076899347385
319.98112002475;54.4148388561429
320.002724774866;54.0354156399754
320.024329524981;53.6744370928827
320.045934275096;53.3323514023184
320.067539025211;53.0146337248279
320.089143775326;52.7347144386552
320.110748525441;52.5053280739039
320.132353275556;52.3314348682815
320.153958025672;52.2115606983692
320.175562775787;52.1404358096647
320.197167525902;52.1109263781825
320.218772276017;52.1174490824372
320.240377026132;52.1514164652932
320.261981776247;52.199376643584
320.283586526363;52.2502105595677
320.305191276478;52.2973100893743
320.326796026593;52.3323313887714
320.348400776708;52.3416901147224
320.370005526823;52.3158985997794
320.391610276938;52.2481721740659
320.413215027053;52.1293876902852
320.434819777169;51.9564704161788
320.456424527284;51.7393271157089
320.478029277399;51.4866913835207
320.499634027514;51.1954302184036
320.521238777629;50.8567425035926
320.542843527744;50.4829933675886
320.56444827786;50.1056546821293
320.586053027975;49.7388920268048
320.60765777809;49.3818387021909
320.629262528205;49.0364205593494
320.65086727832;48.7068499524109
320.672472028435;48.3954577635923
320.69407677855;48.1053180869736
320.715681528666;47.849066861927
320.737286278781;47.6329239479729
320.758891028896;47.451792081204
320.780495779011;47.298881294736
320.802100529126;47.1869729608725
320.823705279241;47.1180702217899
320.845310029356;47.0828106171181
320.866914779472;47.0732882007475
320.888519529587;47.0769958824009
320.910124279702;47.0857523938795
320.931729029817;47.0931562758831
320.953333779932;47.0972413788625
320.974938530047;47.1022044506141
320.996543280163;47.1117558677152
321.018148030278;47.1196784975508
321.039752780393;47.1218793147695
321.061357530508;47.1330748312143
321.082962280623;47.1610366729604
321.104567030738;47.1884686922639
321.126171780854;47.2110286258049
321.147776530969;47.2465101711275
321.169381281084;47.3094655578193
321.190986031199;47.3976554035061
321.212590781314;47.4941078241002
321.234195531429;47.5945975665578
321.255800281544;47.6990872887895
321.27740503166;47.80017821819
321.299009781775;47.898766364043
321.32061453189;48.002933674147
321.342219282005;48.1069591916175
321.36382403212;48.188361912275
321.385428782235;48.236102339725
321.407033532351;48.2544181007856
321.428638282466;48.2495285096653
321.450243032581;48.2275292912704
321.471847782696;48.1931580300071
321.493452532811;48.1507153123375
321.515057282926;48.1067195850054
321.536662033041;48.0645424172445
321.558266783157;48.0371474310078
321.579871533272;48.0281529065129
321.601476283387;48.0349533003789
321.623081033502;48.0584949137666
321.644685783617;48.1024803318912
321.666290533732;48.1674957447647
321.687895283848;48.2421291142729
321.709500033963;48.3089343483623
321.731104784078;48.3628103552039
321.752709534193;48.4040128038999
321.774314284308;48.4313989814164
321.795919034423;48.437830730644
321.817523784538;48.4211889709862
321.839128534654;48.3815224652764
321.860733284769;48.3129787723197
321.882338034884;48.2124448095576
321.903942784999;48.0925427972648
321.925547535114;47.9702086487817
321.947152285229;47.8663897109413
321.968757035344;47.7781011973641
321.99036178546;47.6978266384565
322.011966535575;47.6275573234997
322.03357128569;47.5745506392005
322.055176035805;47.5383891983039
322.07678078592;47.5124193221852
322.098385536035;47.4912968384211
322.119990286151;47.4642132457413
322.141595036266;47.4196467260982
322.163199786381;47.3600694131415
322.184804536496;47.2917377621751
322.206409286611;47.2143322664005
322.228014036726;47.1212027273756
322.249618786841;47.0220587565975
322.271223536957;46.9296059544943
322.292828287072;46.8421800470129
322.314433037187;46.7645358082385
322.336037787302;46.7226769975265
322.357642537417;46.7364522299501
322.379247287532;46.7864139214575
322.400852037648;46.8634921151122
322.422456787763;46.9801575429151
322.444061537878;47.1399369088766
322.465666287993;47.3192263596205
322.487271038108;47.5050555674612
322.508875788223;47.6987822688036
322.530480538339;47.8893988156259
322.552085288454;48.0581821185958
322.573690038569;48.1912137003519
322.595294788684;48.2921780537834
322.616899538799;48.3647353198996
322.638504288914;48.4079122719987
322.660109039029;48.4236753768668
322.681713789145;48.4136717997277
322.70331853926;48.366941277619
322.724923289375;48.2897086265687
322.74652803949;48.2015185151224
322.768132789605;48.1129281097121
322.78973753972;48.0234431556662
322.811342289835;47.9329281471529
322.832947039951;47.8435133525447
322.854551790066;47.7535819449492
322.876156540181;47.6511034841592
322.897761290296;47.5269160931545
322.919366040411;47.3729957516305
322.940970790526;47.1858794693859
322.962575540642;46.9796421546424
322.984180290757;46.7706293799819
323.005785040872;46.558648162422
323.027389790987;46.339679863719
323.048994541102;46.11885213018
323.070599291217;45.903724439228
323.092204041332;45.6909933383854
323.113808791448;45.4779788977649
323.135413541563;45.2749628211832
323.157018291678;45.0997133193129
323.178623041793;44.9470674294574
323.200227791908;44.8123439292996
323.221832542023;44.6932724622617
323.243437292139;44.585849310222
323.265042042254;44.4871618343351
323.286646792369;44.3940621198846
323.308251542484;44.307380961041
323.329856292599;44.2279553715588
323.351461042714;44.1545209037193
323.373065792829;44.0819823880952
323.394670542945;44.0092790291965
323.41627529306;43.9419144828048
323.437880043175;43.8819381990741
323.45948479329;43.8252191420254
323.481089543405;43.7677979252693
323.50269429352;43.7006324552374
323.524299043636;43.6213166156684
323.545903793751;43.5326777079878
323.567508543866;43.4282252227041
323.589113293981;43.2990765059422
323.610718044096;43.1473636859065
323.632322794211;42.9749639412525
323.653927544327;42.7860925792849
323.675532294442;42.5896146919803
323.697137044557;42.3888852080287
323.718741794672;42.1829689185854
323.740346544787;41.9707794421174
323.761951294902;41.7516790383812
323.783556045017;41.5372201425932
323.805160795133;41.3414425933814
323.826765545248;41.1578570964011
323.848370295363;40.9742909751944
323.869975045478;40.7923718504167
323.891579795593;40.6292112732688
323.913184545708;40.4724657094351
323.934789295823;40.2982132081584
323.956394045939;40.1004208746839
323.977998796054;39.9026186330321
323.999603546169;39.7078476068859
324.021208296284;39.4919255994414
324.042813046399;39.2476284658371
324.064417796514;38.9919581099462
324.08602254663;38.7475991011195
324.107627296745;38.5177767147233
324.12923204686;38.3065630990785
324.150836796975;38.1116382984085
324.17244154709;37.9297895723719
324.194046297205;37.7639174517176
324.21565104732;37.6139225014639
324.237255797436;37.4725470723938
324.258860547551;37.3306460073187
324.280465297666;37.1871270799768
324.302070047781;37.050133300934
324.323674797896;36.9228366553045
324.345279548011;36.7993589367442
324.366884298127;36.6717993810952
324.388489048242;36.5453978615757
324.410093798357;36.4354613150664
324.431698548472;36.3548678376631
324.453303298587;36.3020607444683
324.474908048702;36.2677452084369
324.496512798817;36.2394779155324
324.518117548933;36.2048696059222
324.539722299048;36.157811879412
324.561327049163;36.1067577065872
324.582931799278;36.0592291962871
324.604536549393;36.0125022547197
324.626141299508;35.960862460299
324.647746049624;35.9057958703464
324.669350799739;35.8564780935093
324.690955549854;35.8117936944755
324.712560299969;35.7654639824501
324.734165050084;35.7182365974743
324.755769800199;35.6713901446587
