Name;BF_ESR_01_Natural_Y_gon_0dg_result

Recipe
Accumulations;5;Number of accumulations
RetryCount;0;Number of retries on error
AbortOnError;True;Abort on error
EnableQFactorMeasurement;False;Enable/Disable q-Factor measurement
Bfrom;313;B from
Bto;363;B to
SweepTime;60;Sweep time
Modulation;0.2;Modulation
ModulationFreq;100;Modulation
BHoldEnabled;False;B hold enabled
BHold;0;B hold
MicrowavePower;2;Microwave power
MarkerEnabled;False;
MarkerStartField;0;
MarkerEndField;0;
Mode;;
KineticGFact;0;
KineticTotalTransientTime;0;
KineticTimeResolution;0;
TempFrom;5;
TempUseSlope;False;
TempTo;5;
TempdT;1;
TempSetupTime;0;
GonFrom;0;
GonTo;180;
GonSteps;20;
XRayEnabled;False;
XRayTime;3;
XRayVoltage;40;
XRayCurrent;0.5;
UVEnabled;False;
UVIntensity;0;
UVTime;0;
UVLeadTime;0;
UVWavelength;0;
PowSweepFrom;1;
PowSweepTo;5;
PowSweepSteps;5;
AmpModSweepFrom;0;
AmpModSweepTo;1;
AmpModSweepSteps;10;
ExtTriggerEnabled;False;
ExtTrigLeadTime;0;
ExtTrigOnTime;5;

Meas
BField [mT];MW_Absorption []
313.013070678711;60.5628979125045
313.034683070793;60.0076646056111
313.056295462876;59.4089148849964
313.077907854958;58.7696014668209
313.09952024704;58.084487540722
313.121132639123;57.3284984267774
313.142745031205;56.487899622797
313.164357423287;55.6152484128085
313.18596981537;54.7692250713156
313.207582207452;53.9690704076111
313.229194599534;53.2138108033574
313.250806991617;52.4982033029693
313.272419383699;51.8382730948927
313.294031775781;51.2660745732828
313.315644167864;50.7986104506059
313.337256559946;50.4571663234565
313.358868952029;50.2661777879407
313.380481344111;50.1928365848672
313.402093736193;50.2207330382405
313.423706128276;50.3355888432647
313.445318520358;50.5041947755245
313.46693091244;50.6994616228574
313.488543304523;50.9164965496299
313.510155696605;51.1501092964668
313.531768088687;51.3888168515202
313.55338048077;51.6217205190569
313.574992872852;51.8170817650312
313.596605264934;51.9503672106369
313.618217657017;52.0269856463411
313.639830049099;52.0665988551345
313.661442441181;52.0856599704885
313.683054833264;52.0866679353164
313.704667225346;52.0625597548518
313.726279617428;52.0108964257311
313.747892009511;51.9382492073275
313.769504401593;51.8526899706099
313.791116793675;51.7586830478014
313.812729185758;51.6568304512966
313.83434157784;51.5475606793757
313.855953969922;51.4342438412423
313.877566362005;51.3232448429838
313.899178754087;51.2099314487813
313.92079114617;51.0878261325521
313.942403538252;50.95529217808
313.964015930334;50.8067431574995
313.985628322417;50.6371003019167
314.007240714499;50.4445294677672
314.028853106581;50.2268625730495
314.050465498664;49.9983387011974
314.072077890746;49.7733763362674
314.093690282828;49.5576807113746
314.115302674911;49.3592627168377
314.136915066993;49.182002397479
314.158527459075;49.0282774777167
314.180139851158;48.8987178830496
314.20175224324;48.799578517852
314.223364635322;48.7455553899231
314.244977027405;48.7282563484876
314.266589419487;48.7212093100969
314.288201811569;48.7092554126401
314.309814203652;48.6851307179157
314.331426595734;48.6321432618345
314.353038987816;48.5254038633296
314.374651379899;48.3616876254218
314.396263771981;48.134733765906
314.417876164064;47.8360690193775
314.439488556146;47.4605453436467
314.461100948228;46.9978674248034
314.482713340311;46.4911399232948
314.504325732393;45.9894570902572
314.525938124475;45.5161963166751
314.547550516558;45.0778816911865
314.56916290864;44.6802820504325
314.590775300722;44.3297231238292
314.612387692805;44.0358196124149
314.634000084887;43.8200263316276
314.655612476969;43.6986858625194
314.677224869052;43.6618907186532
314.698837261134;43.7088016740706
314.720449653216;43.8336450219152
314.742062045299;44.0153566231332
314.763674437381;44.2391930533994
314.785286829463;44.4932352747702
314.806899221546;44.760866046507
314.828511613628;45.0262253793027
314.85012400571;45.2793605622304
314.871736397793;45.5114772510018
314.893348789875;45.7171686317805
314.914961181957;45.893134949019
314.93657357404;46.0380847168981
314.958185966122;46.1537777909394
314.979798358204;46.2385281371128
315.001410750287;46.2882563078729
315.023023142369;46.2985801504091
315.044635534452;46.2676553892474
315.066247926534;46.1990848030367
315.087860318616;46.1043669662777
315.109472710699;45.9940803542176
315.131085102781;45.8756343109819
315.152697494863;45.7566721480044
315.174309886946;45.6506571582813
315.195922279028;45.5682176954884
315.21753467111;45.5111823874907
315.239147063193;45.494733414019
315.260759455275;45.5408190825273
315.282371847357;45.6401679502815
315.30398423944;45.7735128419805
315.325596631522;45.9291524820779
315.347209023604;46.0985169745087
315.368821415687;46.2792028158753
315.390433807769;46.4739718419189
315.412046199851;46.6652786219688
315.433658591934;46.8401036052983
315.455270984016;46.9831056815857
315.476883376098;47.080892185789
315.498495768181;47.1251848942699
315.520108160263;47.1272212608376
315.541720552346;47.093844860022
315.563332944428;47.0303388499602
315.58494533651;46.942222410313
315.606557728593;46.8433424827319
315.628170120675;46.746904689017
315.649782512757;46.6584876590186
315.67139490484;46.5861256245216
315.693007296922;46.5367975687576
315.714619689004;46.5121285656429
315.736232081087;46.5099734764013
315.757844473169;46.5232526209804
315.779456865251;46.5514596562483
315.801069257334;46.6014473936487
315.822681649416;46.67671208764
315.844294041498;46.7675631752071
315.865906433581;46.8563060844855
315.887518825663;46.9366474714334
315.909131217745;47.0090908560275
315.930743609828;47.0711554603412
315.95235600191;47.1120454387796
315.973968393992;47.1283165613517
315.995580786075;47.1256043230865
316.017193178157;47.1070910873161
316.038805570239;47.0737627451879
316.060417962322;47.0273771445985
316.082030354404;46.9717621280739
316.103642746486;46.9145976883812
316.125255138569;46.8602079759092
316.146867530651;46.8109699202245
316.168479922734;46.7752056266714
316.190092314816;46.7496441951576
316.211704706898;46.717912264703
316.233317098981;46.6752708531843
316.254929491063;46.6255528337815
316.276541883145;46.5671474918843
316.298154275228;46.4943300457491
316.31976666731;46.4055662829415
316.341379059392;46.3018953285819
316.362991451475;46.1807359302751
316.384603843557;46.0403516545063
316.406216235639;45.880991078357
316.427828627722;45.7042434391973
316.449441019804;45.5203855949057
316.471053411886;45.3474131947948
316.492665803969;45.1839419267212
316.514278196051;45.0286847849671
316.535890588133;44.8881242756284
316.557502980216;44.7775377906121
316.579115372298;44.6962383765897
316.60072776438;44.625883144703
316.622340156463;44.5480601465407
316.643952548545;44.4699041300206
316.665564940628;44.4027153795691
316.68717733271;44.3332435184638
316.708789724792;44.2454823747106
316.730402116875;44.1304886244349
316.752014508957;43.979118169901
316.773626901039;43.7941196928816
316.795239293122;43.6019060953126
316.816851685204;43.4199084791345
316.838464077286;43.2486969231065
316.860076469369;43.0803953523943
316.881688861451;42.9166635560232
316.903301253533;42.7732919748094
316.924913645616;42.6632743468555
316.946526037698;42.5793241804777
316.96813842978;42.5172534573954
316.989750821863;42.4728357059708
317.011363213945;42.4389709508084
317.032975606027;42.4211375631584
317.05458799811;42.4258346888905
317.076200390192;42.4511621423956
317.097812782274;42.4925607895855
317.119425174357;42.5520754220356
317.141037566439;42.6356947354227
317.162649958521;42.7409383159121
317.184262350604;42.8600666185418
317.205874742686;42.9863910205185
317.227487134768;43.1154795795021
317.249099526851;43.2475810179125
317.270711918933;43.3853261156654
317.292324311016;43.5347330189899
317.313936703098;43.6972927569916
317.33554909518;43.8725447222146
317.357161487263;44.0590885391665
317.378773879345;44.2469715949462
317.400386271427;44.4370622213742
317.42199866351;44.6403353670682
317.443611055592;44.8541757027583
317.465223447674;45.06641660764
317.486835839757;45.2665744238738
317.508448231839;45.4454330210555
317.530060623921;45.5959104770485
317.551673016004;45.7123502911821
317.573285408086;45.7859321391639
317.594897800168;45.8132343638473
317.616510192251;45.795201938965
317.638122584333;45.732570990996
317.659734976415;45.6273184939135
317.681347368498;45.4899292410744
317.70295976058;45.3379648234608
317.724572152662;45.1827651403096
317.746184544745;45.0304199041154
317.767796936827;44.886990945749
317.78940932891;44.7656095928653
317.811021720992;44.6780017662755
317.832634113074;44.628582268439
317.854246505157;44.6132969013242
317.875858897239;44.6179062872908
317.897471289321;44.6168140400791
317.919083681404;44.5807099082586
317.940696073486;44.4972988091777
317.962308465568;44.3618192031274
317.983920857651;44.1669367036966
318.005533249733;43.9041593530074
318.027145641815;43.5842432729909
318.048758033898;43.2105773055815
318.07037042598;42.7809260569946
318.091982818062;42.3293174498197
318.113595210145;41.8936049693136
318.135207602227;41.481686597723
318.156819994309;41.0963153826544
318.178432386392;40.7508961799211
318.200044778474;40.4660745423538
318.221657170556;40.2590167382087
318.243269562639;40.1342828119772
318.264881954721;40.0894050800312
318.286494346803;40.1204658961159
318.308106738886;40.2181864152525
318.329719130968;40.3783619719984
318.35133152305;40.6031748409491
318.372943915133;40.89086132544
318.394556307215;41.2187675952347
318.416168699298;41.5314921696772
318.43778109138;41.8198574311189
318.459393483462;42.0926058423741
318.481005875545;42.3444662059866
318.502618267627;42.5642290498947
318.524230659709;42.7627288325003
318.545843051792;42.9457106105499
318.567455443874;43.1058254583302
318.589067835956;43.2278282047179
318.610680228039;43.3159720475223
318.632292620121;43.3749204934206
318.653905012203;43.4020774070558
318.675517404286;43.3979294769267
318.697129796368;43.3606838858064
318.71874218845;43.2881492976214
318.740354580533;43.1805765687342
318.761966972615;43.0347517498402
318.783579364697;42.8513874477458
318.80519175678;42.6301045428509
318.826804148862;42.3715064385081
318.848416540944;42.0855854119573
318.870028933027;41.7854943858091
318.891641325109;41.4814641778014
318.913253717192;41.1868303235703
318.934866109274;40.9083905033243
318.956478501356;40.6504003358235
318.978090893439;40.418543756653
318.999703285521;40.2246378996272
319.021315677603;40.075826053315
319.042928069686;39.9614254800906
319.064540461768;39.8788262161128
319.08615285385;39.8310369178753
319.107765245933;39.8160229600799
319.129377638015;39.8247160596567
319.150990030097;39.8544074665967
319.17260242218;39.9056264315461
319.194214814262;39.9697922651551
319.215827206344;40.0373463199338
319.237439598427;40.1077069970762
319.259051990509;40.1849685230395
319.280664382591;40.2701335258451
319.302276774674;40.352460591166
319.323889166756;40.4223802243616
319.345501558838;40.4793714684883
319.367113950921;40.5302548349292
319.388726343003;40.578244783152
319.410338735085;40.615173568886
319.431951127168;40.6306342253394
319.45356351925;40.6281480793426
319.475175911332;40.608798121411
319.496788303415;40.5689736147583
319.518400695497;40.5074054064929
319.54001308758;40.4234192584541
319.561625479662;40.3153219833939
319.583237871744;40.183207514742
319.604850263827;40.0337892808866
319.626462655909;39.8788487590279
319.648075047991;39.7284617895227
319.669687440074;39.5887037483009
319.691299832156;39.4666612804997
319.712912224238;39.3729090030939
319.734524616321;39.3108737896151
319.756137008403;39.284675501115
319.777749400485;39.299675700261
319.799361792568;39.3525334892326
319.82097418465;39.440112489689
319.842586576732;39.5634130767886
319.864198968815;39.7237576877433
319.885811360897;39.9168109779257
319.907423752979;40.1328021915841
319.929036145062;40.3564586672379
319.950648537144;40.5766167975164
319.972260929226;40.7837258029189
319.993873321309;40.96569429033
320.015485713391;41.119176828657
320.037098105474;41.240815842918
320.058710497556;41.3215526127057
320.080322889638;41.3500062055675
320.101935281721;41.3234104188721
320.123547673803;41.244068540274
320.145160065885;41.1177800193782
320.166772457968;40.9614116338715
320.18838485005;40.7848494685813
320.209997242132;40.5897756105729
320.231609634215;40.386386197994
320.253222026297;40.2002578685891
320.274834418379;40.0502717467788
320.296446810462;39.9420409778456
320.318059202544;39.8780040281283
320.339671594626;39.856119352581
320.361283986709;39.8720027692806
320.382896378791;39.9202557402014
320.404508770873;39.996545948396
320.426121162956;40.093809315908
320.447733555038;40.2033760510597
320.46934594712;40.316959161724
320.490958339203;40.4236957401891
320.512570731285;40.5189365938432
320.534183123367;40.6008678042517
320.55579551545;40.6604234281509
320.577407907532;40.6902878392738
320.599020299614;40.6898339556047
320.620632691697;40.6614416400811
320.642245083779;40.6071601613543
320.663857475862;40.5256109584321
320.685469867944;40.4323374051458
320.707082260026;40.3380785859153
320.728694652109;40.2479105237015
320.750307044191;40.1700962707151
320.771919436273;40.1186425572254
320.793531828356;40.0987664852601
320.815144220438;40.1130727407846
320.83675661252;40.1575813484536
320.858369004603;40.2249939117366
320.879981396685;40.3151623647011
320.901593788767;40.4293630725896
320.92320618085;40.5649064649899
320.944818572932;40.7183284762877
320.966430965014;40.8845698999688
320.988043357097;41.0647882758417
321.009655749179;41.2662159321953
321.031268141261;41.4950361384847
321.052880533344;41.7511411766254
321.074492925426;42.0312654195091
321.096105317508;42.3318331826139
321.117717709591;42.6478781093617
321.139330101673;42.9846543084042
321.160942493756;43.3397119682401
321.182554885838;43.7047668336954
321.20416727792;44.0744434432206
321.225779670003;44.4509081545403
321.247392062085;44.8343759674943
321.269004454167;45.2013466841721
321.29061684625;45.5236331228947
321.312229238332;45.8001074568739
321.333841630414;46.0427508515462
321.355454022497;46.2505479806685
321.377066414579;46.4051794758862
321.398678806661;46.4923096425187
321.420291198744;46.5177135160144
321.441903590826;46.4780943914898
321.463515982908;46.3802944298771
321.485128374991;46.2169534241758
321.506740767073;46.0043334297566
321.528353159155;45.7584132672508
321.549965551238;45.4945438481684
321.57157794332;45.2174993630248
321.593190335402;44.9302390500623
321.614802727485;44.6366968935705
321.636415119567;44.3491392442248
321.658027511649;44.0908932850936
321.679639903732;43.8864230039065
321.701252295814;43.731561227262
321.722864687897;43.6161588366092
321.744477079979;43.5367153028479
321.766089472061;43.49755036285
321.787701864144;43.5012855125903
321.809314256226;43.5383862303401
321.830926648308;43.593358989619
321.852539040391;43.6455754034654
321.874151432473;43.6813247264925
321.895763824555;43.6886688937796
321.917376216638;43.6551461762943
321.93898860872;43.5708563087759
321.960601000802;43.4222436073749
321.982213392885;43.202231777992
322.003825784967;42.9065305834204
322.025438177049;42.5378615316866
322.047050569132;42.1119628238462
322.068662961214;41.6419844885864
322.090275353296;41.1360717525924
322.111887745379;40.6109649413722
322.133500137461;40.0963359062218
322.155112529543;39.6069463945196
322.176724921626;39.1399876854381
322.198337313708;38.6976454176768
322.219949705791;38.2951828425059
322.241562097873;37.9574372544568
322.263174489955;37.6986755227966
322.284786882038;37.5182795349328
322.30639927412;37.4046512670126
322.328011666202;37.3436597898404
322.349624058285;37.337247574829
322.371236450367;37.3888415054684
322.392848842449;37.4811283870223
322.414461234532;37.6037886897588
322.436073626614;37.74863641727
322.457686018696;37.9059914315528
322.479298410779;38.0654929104458
322.500910802861;38.2214603099093
322.522523194943;38.3736742250335
322.544135587026;38.5124498281677
322.565747979108;38.6222512352414
322.58736037119;38.6899136147333
322.608972763273;38.7117878497559
322.630585155355;38.6952721334559
322.652197547437;38.6403271598556
322.67380993952;38.5526332835055
322.695422331602;38.4318171544938
322.717034723684;38.2756113077606
322.738647115767;38.0897972713749
322.760259507849;37.8913703182682
322.781871899932;37.6919497005904
322.803484292014;37.4845442837062
322.825096684096;37.2718425022144
322.846709076179;37.0769244510861
322.868321468261;36.9066155716205
322.889933860343;36.7594766697325
322.911546252426;36.6333613535956
322.933158644508;36.5242531962878
322.95477103659;36.4282776766557
322.976383428673;36.3448667905409
322.997995820755;36.272831773559
323.019608212837;36.2116682024041
323.04122060492;36.1622642072035
323.062832997002;36.1287896924328
323.084445389084;36.1164982877862
323.106057781167;36.1251632290991
323.127670173249;36.1517941137233
323.149282565331;36.1940277335748
323.170894957414;36.2515114531666
323.192507349496;36.3304873675192
323.214119741578;36.4406503603847
323.235732133661;36.575707772882
323.257344525743;36.7291711260328
323.278956917825;36.9010287877689
323.300569309908;37.0944688872984
323.32218170199;37.304518766808
323.343794094073;37.5255212280888
323.365406486155;37.7604853419459
323.387018878237;38.0100724888885
323.40863127032;38.2708571651516
323.430243662402;38.5364977843865
323.451856054484;38.7976027921579
323.473468446567;39.0486244408984
323.495080838649;39.2979340272141
323.516693230731;39.5559002255382
323.538305622814;39.8198156475545
323.559918014896;40.0730362733292
323.581530406978;40.2957472002535
323.603142799061;40.4832392678751
323.624755191143;40.6329428727701
323.646367583225;40.7425775351972
323.667979975308;40.8092307308052
323.68959236739;40.8245521774009
323.711204759472;40.7739118223169
323.732817151555;40.6523968219115
323.754429543637;40.4696440203023
323.776041935719;40.2432565782371
323.797654327802;39.9870092643123
323.819266719884;39.7028949353134
323.840879111967;39.3903963110749
323.862491504049;39.0556400665546
323.884103896131;38.7215040458527
323.905716288214;38.3864020115964
323.927328680296;38.0274417739388
323.948941072378;37.6706289369011
323.970553464461;37.3608948400828
323.992165856543;37.0950094192897
324.013778248625;36.852429182305
324.035390640708;36.6203260007203
324.05700303279;36.4021679104987
324.078615424872;36.2113645585723
324.100227816955;36.0513432299159
324.121840209037;35.9170362159778
324.143452601119;35.8036096243249
324.165064993202;35.7073852807219
324.186677385284;35.623924044055
324.208289777366;35.5490034278225
324.229902169449;35.4809504952463
324.251514561531;35.4213369117936
324.273126953613;35.371442540188
324.294739345696;35.3280001456872
324.316351737778;35.2877702102245
324.33796412986;35.250351708504
324.359576521943;35.215432800212
324.381188914025;35.1909153987581
324.402801306107;35.1910624456389
324.42441369819;35.2266129634256
324.446026090272;35.3002191853881
324.467638482355;35.4111706596631
324.489250874437;35.5580002486911
324.510863266519;35.7420439743103
324.532475658602;35.964901041381
324.554088050684;36.2233161408031
324.575700442766;36.5078426183235
324.597312834849;36.8040021858166
324.618925226931;37.0896552807039
324.640537619013;37.3563189183097
324.662150011096;37.6132954852114
324.683762403178;37.8711548322944
324.70537479526;38.1258600771802
324.726987187343;38.3498589687396
324.748599579425;38.5165219623289
