Name;BF_ESR_01_360s_Z_gon_20dg_result

Recipe
Accumulations;5;Number of accumulations
RetryCount;0;Number of retries on error
AbortOnError;True;Abort on error
EnableQFactorMeasurement;False;Enable/Disable q-Factor measurement
Bfrom;313;B from
Bto;363;B to
SweepTime;60;Sweep time
Modulation;0.2;Modulation
ModulationFreq;100;Modulation
BHoldEnabled;False;B hold enabled
BHold;0;B hold
MicrowavePower;2;Microwave power
MarkerEnabled;False;
MarkerStartField;0;
MarkerEndField;0;
Mode;;
KineticGFact;0;
KineticTotalTransientTime;0;
KineticTimeResolution;0;
TempFrom;5;
TempUseSlope;False;
TempTo;5;
TempdT;1;
TempSetupTime;0;
GonFrom;0;
GonTo;180;
GonSteps;20;
XRayEnabled;False;
XRayTime;3;
XRayVoltage;40;
XRayCurrent;0.5;
UVEnabled;False;
UVIntensity;0;
UVTime;0;
UVLeadTime;0;
UVWavelength;0;
PowSweepFrom;1;
PowSweepTo;5;
PowSweepSteps;5;
AmpModSweepFrom;0;
AmpModSweepTo;1;
AmpModSweepSteps;10;
ExtTriggerEnabled;False;
ExtTrigLeadTime;0;
ExtTrigOnTime;5;

Meas
BField [mT];MW_Absorption []
313.025004806519;68.8924646942729
313.046623749968;68.7186215249614
313.068242693418;68.5455246158681
313.089861636868;68.3821344376517
313.111480580318;68.2269323584887
313.133099523767;68.063308183264
313.154718467217;67.889143452351
313.176337410667;67.7117638753836
313.197956354116;67.5428607054715
313.219575297566;67.3904427245115
313.241194241016;67.2692469801635
313.262813184466;67.188323459173
313.284432127915;67.1555125282441
313.306051071365;67.178188492646
313.327670014815;67.2436533811086
313.349288958265;67.3391965948431
313.370907901714;67.4656402253944
313.392526845164;67.6240576404813
313.414145788614;67.8102382530095
313.435764732064;68.0042168138662
313.457383675513;68.1884018547381
313.479002618963;68.357574080734
313.500621562413;68.5068637942539
313.522240505863;68.6228437700246
313.543859449312;68.6947490551183
313.565478392762;68.7288695921407
313.587097336212;68.7233516181826
313.608716279662;68.6709097703166
313.630335223111;68.5741208518116
313.651954166561;68.4488025793803
313.673573110011;68.2995382530995
313.69519205346;68.1106177455725
313.71681099691;67.8864478611116
313.73842994036;67.6448772427162
313.76004888381;67.3867429732394
313.781667827259;67.1027949521565
313.803286770709;66.8004414265975
313.824905714159;66.4896757967033
313.846524657609;66.1677135928609
313.868143601058;65.8484077971887
313.889762544508;65.5447290141497
313.911381487958;65.2603605646052
313.933000431408;64.9910917662716
313.954619374857;64.7433674195698
313.976238318307;64.5265680626133
313.997857261757;64.3388822865686
314.019476205207;64.1744089304369
314.041095148656;64.0297792437565
314.062714092106;63.8996743893548
314.084333035556;63.7793289019924
314.105951979006;63.6709658715456
314.127570922455;63.5752879672727
314.149189865905;63.48812160455
314.170808809355;63.4045283133518
314.192427752804;63.3169725373072
314.214046696254;63.2194798534704
314.235665639704;63.1182242654071
314.257284583154;63.017261844353
314.278903526603;62.9113838539004
314.300522470053;62.7895346455091
314.322141413503;62.6461567474338
314.343760356953;62.4831771169372
314.365379300402;62.3045639188215
314.386998243852;62.11151580272
314.408617187302;61.9059508275862
314.430236130752;61.6940359125166
314.451855074201;61.4820471694426
314.473474017651;61.2665571453799
314.495092961101;61.0411744501385
314.516711904551;60.8157429344917
314.538330848;60.5922912957392
314.55994979145;60.3619121728069
314.5815687349;60.1133793985051
314.603187678349;59.8360802545533
314.624806621799;59.5295252777638
314.646425565249;59.2019756852082
314.668044508699;58.8466810494071
314.689663452148;58.4497744087446
314.711282395598;58.0083118803914
314.732901339048;57.5391673526653
314.754520282498;57.0556165597461
314.776139225947;56.5465364740403
314.797758169397;56.0279570591681
314.819377112847;55.5218206328365
314.840996056297;55.0349187236214
314.862614999746;54.5856237935887
314.884233943196;54.1834311027804
314.905852886646;53.8137592966203
314.927471830096;53.4583340974877
314.949090773545;53.1251594223767
314.970709716995;52.8344875449076
314.992328660445;52.5829381803011
315.013947603895;52.3589797183651
315.035566547344;52.1629302711573
315.057185490794;51.9979719335058
315.078804434244;51.8646318601842
315.100423377693;51.7663597825327
315.122042321143;51.706758681975
315.143661264593;51.6934735086893
315.165280208043;51.7438250356718
315.186899151492;51.8685204474202
315.208518094942;52.0610404655109
315.230137038392;52.3081356491942
315.251755981842;52.5909352682175
315.273374925291;52.8851340473563
315.294993868741;53.1827059054693
315.316612812191;53.4817914402519
315.338231755641;53.7618460286439
315.35985069909;53.9861465108145
315.38146964254;54.1486966793935
315.40308858599;54.2547853214118
315.42470752944;54.3042017445521
315.446326472889;54.3029967909148
315.467945416339;54.2552441748847
315.489564359789;54.1628414630247
315.511183303239;54.0314226666162
315.532802246688;53.878143868472
315.554421190138;53.7190911206886
315.576040133588;53.5636100205813
315.597659077037;53.4068255840671
315.619278020487;53.250522868814
315.640896963937;53.1028774316222
315.662515907387;52.9659767274176
315.684134850836;52.8345654634258
315.705753794286;52.6994768809262
315.727372737736;52.5565717883708
315.748991681186;52.4062392163352
315.770610624635;52.2461866947615
315.792229568085;52.0661176303805
315.813848511535;51.8508388894997
315.835467454985;51.6032902860633
315.857086398434;51.3279088493803
315.878705341884;51.0264146759154
315.900324285334;50.7031229561454
315.921943228784;50.3646050053817
315.943562172233;50.0084383254005
315.965181115683;49.6392500915169
315.986800059133;49.284908503662
316.008419002583;48.9576681531811
316.030037946032;48.6561926896546
316.051656889482;48.3794639705998
316.073275832932;48.1190416734365
316.094894776381;47.8795686092324
316.116513719831;47.6716426974809
316.138132663281;47.4992987863189
316.159751606731;47.3565900210136
316.18137055018;47.2310314152952
316.20298949363;47.1074267226816
316.22460843708;46.9770659973162
316.24622738053;46.8439723552233
316.267846323979;46.7100076565173
316.289465267429;46.5726526654843
316.311084210879;46.4303920847359
316.332703154329;46.2839104227491
316.354322097778;46.130452043771
316.375941041228;45.9767303483366
316.397559984678;45.8345095433957
316.419178928128;45.7125183956213
316.440797871577;45.6152025986509
316.462416815027;45.55326197729
316.484035758477;45.5365456706352
316.505654701926;45.5618864969625
316.527273645376;45.6196057320374
316.548892588826;45.7096035454646
316.570511532276;45.8441724116488
316.592130475725;46.0342493342808
316.613749419175;46.2742609604839
316.635368362625;46.5362246638284
316.656987306075;46.801681121354
316.678606249524;47.0702455803046
316.700225192974;47.3335338554349
316.721844136424;47.5651386351025
316.743463079874;47.7507305453113
316.765082023323;47.8871459514448
316.786700966773;47.9653044008369
316.808319910223;47.9611656172837
316.829938853673;47.8641774908985
316.851557797122;47.6809796594582
316.873176740572;47.4311194680719
316.894795684022;47.1251011836141
316.916414627472;46.7860177857606
316.938033570921;46.4368817200395
316.959652514371;46.0916884622056
316.981271457821;45.7575400163779
317.00289040127;45.4444045371249
317.02450934472;45.1662001356933
317.04612828817;44.9345306627
317.06774723162;44.7583058680147
317.089366175069;44.6455590886959
317.110985118519;44.5888145081056
317.132604061969;44.5676287241622
317.154223005419;44.5631584780001
317.175841948868;44.5663589784561
317.197460892318;44.572893484068
317.219079835768;44.5802275289242
317.240698779218;44.5799580867251
317.262317722667;44.5612369586204
317.283936666117;44.5263789740012
317.305555609567;44.4848770193886
317.327174553017;44.4366755739247
317.348793496466;44.3792976379331
317.370412439916;44.3157757653866
317.392031383366;44.2593346452445
317.413650326816;44.2145837457545
317.435269270265;44.188023398578
317.456888213715;44.1897320041264
317.478507157165;44.224888226011
317.500126100614;44.3014014305592
317.521745044064;44.4227207085822
317.543363987514;44.5716121575762
317.564982930964;44.7338268765149
317.586601874413;44.9103196051696
317.608220817863;45.0941438890967
317.629839761313;45.2621722649381
317.651458704763;45.410667605847
317.673077648212;45.541035698559
317.694696591662;45.6413248374454
317.716315535112;45.7012967975772
317.737934478562;45.7249038768051
317.759553422011;45.7205472003758
317.781172365461;45.6903062278522
317.802791308911;45.6305858987577
317.824410252361;45.5389262374227
317.84602919581;45.4190607436867
317.86764813926;45.2767239698503
317.88926708271;45.1200225443434
317.91088602616;44.959456724764
317.932504969609;44.8040439450551
317.954123913059;44.6512260201268
317.975742856509;44.497166064578
317.997361799958;44.3441197570621
318.018980743408;44.1867325207855
318.040599686858;44.0218123770316
318.062218630308;43.856061302564
318.083837573757;43.6984730951247
318.105456517207;43.5436383973063
318.127075460657;43.3831815098893
318.148694404107;43.2079275675842
318.170313347556;43.0075233543395
318.191932291006;42.7764007180111
318.213551234456;42.5191474199721
318.235170177906;42.2526376198594
318.256789121355;41.9790924450231
318.278408064805;41.6993134367231
318.300027008255;41.4206221344594
318.321645951705;41.156955730577
318.343264895154;40.9143949914103
318.364883838604;40.6911329967339
318.386502782054;40.4874209467852
318.408121725504;40.3086665120258
318.429740668953;40.1660196268978
318.451359612403;40.0691717290432
318.472978555853;40.0189988034698
318.494597499302;40.0082826972782
318.516216442752;40.0315195212049
318.537835386202;40.0884663222901
318.559454329652;40.177964331153
318.581073273101;40.2950961651353
318.602692216551;40.430810377196
318.624311160001;40.5705985411693
318.645930103451;40.7062556415976
318.6675490469;40.8333773903004
318.68916799035;40.9512079164871
318.7107869338;41.0636840954266
318.73240587725;41.1784084642248
318.754024820699;41.3068909246845
318.775643764149;41.4529904577574
318.797262707599;41.6104154825892
318.818881651049;41.7821180043665
318.840500594498;41.9816677396248
318.862119537948;42.2109512734183
318.883738481398;42.4650899339402
318.905357424847;42.7480623789115
318.926976368297;43.0686151336823
318.948595311747;43.4277652397496
318.970214255197;43.8105155751223
318.991833198646;44.1838277419985
319.013452142096;44.5143278847501
319.035071085546;44.7946758413186
319.056690028996;45.0197702409932
319.078308972445;45.1859539469038
319.099927915895;45.2993046044899
319.121546859345;45.3563121213972
319.143165802795;45.3504314428154
319.164784746244;45.2716616320029
319.186403689694;45.1274591561537
319.208022633144;44.9259803198892
319.229641576594;44.6916179109958
319.251260520043;44.4559802260079
319.272879463493;44.210786483815
319.294498406943;43.9506781957137
319.316117350393;43.6886273349117
319.337736293842;43.4488785891919
319.359355237292;43.2459421692123
319.380974180742;43.0834731934367
319.402593124191;42.9681057257935
319.424212067641;42.9217986698079
319.445831011091;42.952774146786
319.467449954541;43.0415420607673
319.48906889799;43.1821846812448
319.51068784144;43.3728027212845
319.53230678489;43.5913423701191
319.55392572834;43.8063077992368
319.575544671789;44.000448434288
319.597163615239;44.1642939221785
319.618782558689;44.2964062666384
319.640401502139;44.4015516937285
319.662020445588;44.4746246556024
319.683639389038;44.5074651582417
319.705258332488;44.4839121964776
319.726877275938;44.403451440043
319.748496219387;44.2582581934537
319.770115162837;44.0500828223699
319.791734106287;43.7810382918063
319.813353049737;43.4507803294306
319.834971993186;43.0610624538198
319.856590936636;42.6328519490578
319.878209880086;42.1660138581964
319.899828823535;41.6501800645666
319.921447766985;41.0954116190534
319.943066710435;40.536396218763
319.964685653885;39.9834606206127
319.986304597334;39.4335377450578
320.007923540784;38.8907414993888
320.029542484234;38.3720676801328
320.051161427684;37.8924804941125
320.072780371133;37.4687363841762
320.094399314583;37.1024434636646
320.116018258033;36.7842594483519
320.137637201483;36.5110290822752
320.159256144932;36.2910909282688
320.180875088382;36.1408214961231
320.202494031832;36.0814343104306
320.224112975282;36.1332039629251
320.245731918731;36.281357776382
320.267350862181;36.5104472456287
320.288969805631;36.8252628470823
320.310588749081;37.2240808860664
320.33220769253;37.689525396279
320.35382663598;38.2111649800432
320.37544557943;38.7568766148198
320.397064522879;39.3073598486108
320.418683466329;39.8618957985984
320.440302409779;40.4245350994856
320.461921353229;40.9550142062479
320.483540296678;41.4296917120426
320.505159240128;41.8407321126702
320.526778183578;42.168263591575
320.548397127028;42.4012798769902
320.570016070477;42.5498203561542
320.591635013927;42.6288936475083
320.613253957377;42.6394960246396
320.634872900827;42.5688552576802
320.656491844276;42.4044635232896
320.678110787726;42.162247017401
320.699729731176;41.8616984861594
320.721348674626;41.5058740967995
320.742967618075;41.1033197892033
320.764586561525;40.6729441491472
320.786205504975;40.2415214519088
320.807824448424;39.8306149611696
320.829443391874;39.449171362449
320.851062335324;39.1032899448927
320.872681278774;38.796898935481
320.894300222223;38.5259220359462
320.915919165673;38.2804912555459
320.937538109123;38.0524478541733
320.959157052573;37.8396702450934
320.980775996022;37.6402521334378
321.002394939472;37.4531809359022
321.024013882922;37.2801856050185
321.045632826372;37.1224860523358
321.067251769821;36.9785552143971
321.088870713271;36.8483221855884
321.110489656721;36.73470103322
321.132108600171;36.6397211696492
321.15372754362;36.5657208925522
321.17534648707;36.5062100004822
321.19696543052;36.451728037057
321.21858437397;36.4004906924914
321.240203317419;36.3437539763254
321.261822260869;36.2689563872321
321.283441204319;36.1683365091437
321.305060147768;36.0311124331188
321.326679091218;35.8468863362888
321.348298034668;35.6103922613579
321.369916978118;35.3243634257547
321.391535921567;35.0022386951791
321.413154865017;34.66311924618
321.434773808467;34.3175206720979
321.456392751917;33.9662930055263
321.478011695366;33.6246536114736
321.499630638816;33.3166045548314
321.521249582266;33.0695897990652
321.542868525716;32.8931255380703
321.564487469165;32.7788629054727
321.586106412615;32.7217124664582
321.607725356065;32.7228117197275
321.629344299515;32.7850806774123
321.650963242964;32.907630267157
321.672582186414;33.0828910828821
321.694201129864;33.2971684933553
321.715820073314;33.5451240721405
321.737439016763;33.83109355328
321.759057960213;34.1554714135634
321.780676903663;34.4977771465017
321.802295847112;34.844123243388
321.823914790562;35.2045410306515
321.845533734012;35.5801402920103
321.867152677462;35.9550214459121
321.888771620911;36.320509595142
321.910390564361;36.6718564892374
321.932009507811;37.0041107624847
321.953628451261;37.3186915375268
321.97524739471;37.6154554746202
321.99686633816;37.8706164571731
322.01848528161;38.0615832490968
322.04010422506;38.2037996116677
322.061723168509;38.3049770909865
322.083342111959;38.3602341374373
322.104961055409;38.361864100975
322.126579998859;38.309911328269
322.148198942308;38.2087118601262
322.169817885758;38.0629675104444
322.191436829208;37.8722457704552
322.213055772658;37.6256356346536
322.234674716107;37.3140058419708
322.256293659557;36.954149211736
322.277912603007;36.5728852572083
322.299531546456;36.1863587001453
322.321150489906;35.7909074194455
322.342769433356;35.3817431425138
322.364388376806;34.9683538123533
322.386007320255;34.5668989011143
322.407626263705;34.1926641954581
322.429245207155;33.8535868589618
322.450864150605;33.552830619988
322.472483094054;33.2891873856114
322.494102037504;33.0762197024572
322.515720980954;32.9274740546847
322.537339924404;32.8352102100895
322.558958867853;32.7954006149031
322.580577811303;32.8179702882654
322.602196754753;32.9084967133914
322.623815698203;33.0669940934612
322.645434641652;33.2886460166862
322.667053585102;33.5658050694537
322.688672528552;33.8901998077705
322.710291472001;34.2426383805946
322.731910415451;34.6164760595457
322.753529358901;34.9989822957944
322.775148302351;35.3680870658904
322.7967672458;35.7033862132394
322.81838618925;36.003000319705
322.8400051327;36.2653053148903
322.86162407615;36.4826648611875
322.883243019599;36.6455180620705
322.904861963049;36.7470842379457
322.926480906499;36.7918411526364
322.948099849949;36.7936640853263
322.969718793398;36.7441205570112
322.991337736848;36.6419120970877
323.012956680298;36.5024211829468
323.034575623748;36.3373552460205
323.056194567197;36.1450188385612
323.077813510647;35.9218140729483
323.099432454097;35.6586058226404
323.121051397547;35.3565090048795
323.142670340996;35.0536939316284
323.164289284446;34.7764340998191
323.185908227896;34.5157585845223
323.207527171345;34.2594496779162
323.229146114795;33.9979379910737
323.250765058245;33.7355849733924
323.272384001695;33.5023692188189
323.294002945144;33.326221790701
323.315621888594;33.1882378337832
323.337240832044;33.0613379294261
323.358859775494;32.9583564686047
323.380478718943;32.8961706544651
323.402097662393;32.8539842505336
323.423716605843;32.8159865939381
323.445335549293;32.7780278844576
323.466954492742;32.7435223602792
323.488573436192;32.710293565757
323.510192379642;32.6707544620051
323.531811323092;32.6134005648805
323.553430266541;32.5436429717472
323.575049209991;32.4717014246643
323.596668153441;32.410117398118
323.618287096891;32.3595658885157
323.63990604034;32.3187698933095
323.66152498379;32.2913404165183
323.68314392724;32.2815549035422
323.704762870689;32.305043945034
323.726381814139;32.3732359557719
323.748000757589;32.4713321333154
323.769619701039;32.5863439550483
323.791238644488;32.7190982974998
323.812857587938;32.8635653888199
323.834476531388;33.0127594219181
323.856095474838;33.165747508881
323.877714418287;33.3145787822326
323.899333361737;33.4453450227891
323.920952305187;33.5462467817662
323.942571248637;33.6141093867771
323.964190192086;33.6576384216833
323.985809135536;33.6839190339953
324.007428078986;33.6979613904203
324.029047022436;33.7002971242655
324.050665965885;33.6987881674176
324.072284909335;33.7007864368367
324.093903852785;33.6995071759872
324.115522796235;33.6841590696485
324.137141739684;33.6480920292008
324.158760683134;33.5946656051491
324.180379626584;33.5222050601236
324.201998570033;33.4238414938483
324.223617513483;33.2770379521854
324.245236456933;33.0842319491787
324.266855400383;32.8482350529492
324.288474343832;32.5545005246788
324.310093287282;32.2161797214783
324.331712230732;31.8659277546292
324.353331174182;31.5101973624096
324.374950117631;31.1301463575317
324.396569061081;30.7043971155795
324.418188004531;30.2390192280997
324.439806947981;29.7451357407424
324.46142589143;29.2401787556951
324.48304483488;28.7482714319424
324.50466377833;28.266930494017
324.52628272178;27.7908419308069
324.547901665229;27.3216553236641
324.569520608679;26.865523384377
324.591139552129;26.4242750997607
324.612758495579;26.0156479262492
324.634377439028;25.6617047683806
324.655996382478;25.3634141687971
324.677615325928;25.1124684848615
324.699234269377;24.9014634546007
324.720853212827;24.7274767622751
324.742472156277;24.5887923273041
324.764091099727;24.4788568883372
324.785710043176;24.3945702880527
