Name;BF_ESR_01_Natural_Y_gon_160dg_result

Recipe
Accumulations;5;Number of accumulations
RetryCount;0;Number of retries on error
AbortOnError;True;Abort on error
EnableQFactorMeasurement;False;Enable/Disable q-Factor measurement
Bfrom;313;B from
Bto;363;B to
SweepTime;60;Sweep time
Modulation;0.2;Modulation
ModulationFreq;100;Modulation
BHoldEnabled;False;B hold enabled
BHold;0;B hold
MicrowavePower;2;Microwave power
MarkerEnabled;False;
MarkerStartField;0;
MarkerEndField;0;
Mode;;
KineticGFact;0;
KineticTotalTransientTime;0;
KineticTimeResolution;0;
TempFrom;5;
TempUseSlope;False;
TempTo;5;
TempdT;1;
TempSetupTime;0;
GonFrom;0;
GonTo;180;
GonSteps;20;
XRayEnabled;False;
XRayTime;3;
XRayVoltage;40;
XRayCurrent;0.5;
UVEnabled;False;
UVIntensity;0;
UVTime;0;
UVLeadTime;0;
UVWavelength;0;
PowSweepFrom;1;
PowSweepTo;5;
PowSweepSteps;5;
AmpModSweepFrom;0;
AmpModSweepTo;1;
AmpModSweepSteps;10;
ExtTriggerEnabled;False;
ExtTrigLeadTime;0;
ExtTrigOnTime;5;

Meas
BField [mT];MW_Absorption []
313.03000831604;65.0243175322926
313.051622640427;64.7240465603693
313.073236964815;64.3324641155669
313.094851289202;63.8451909106585
313.116465613589;63.27058853959
313.138079937977;62.5888901595402
313.159694262364;61.8161853548178
313.181308586751;61.0147426258431
313.202922911138;60.2103277652992
313.224537235526;59.4298060080058
313.246151559913;58.6996063318771
313.2677658843;58.0101706374401
313.289380208688;57.35495750608
313.310994533075;56.7643722138917
313.332608857462;56.2676266207185
313.35422318185;55.8689744492149
313.375837506237;55.5764711763319
313.397451830624;55.3840291564852
313.419066155011;55.2779341631199
313.440680479399;55.248093697822
313.462294803786;55.2903560788591
313.483909128173;55.3926171092663
313.505523452561;55.5457399025093
313.527137776948;55.7370312362065
313.548752101335;55.9465324203862
313.570366425723;56.1661319718252
313.59198075011;56.3920940331329
313.613595074497;56.6098705447415
313.635209398885;56.8136885275912
313.656823723272;57.0051770780354
313.678438047659;57.1821181083638
313.700052372046;57.3327339141117
313.721666696434;57.4397823157259
313.743281020821;57.4981998071654
313.764895345208;57.5146966469133
313.786509669596;57.4927883129503
313.808123993983;57.4334791356584
313.82973831837;57.3313399181925
313.851352642758;57.1869843006601
313.872966967145;57.0090468347563
313.894581291532;56.8010655457942
313.916195615919;56.5702484282443
313.937809940307;56.3364777421169
313.959424264694;56.1165222248515
313.981038589081;55.9083935810071
314.002652913469;55.7095350737293
314.024267237856;55.531776715102
314.045881562243;55.39380336175
314.067495886631;55.3029986153162
314.089110211018;55.2548840130551
314.110724535405;55.2388399087625
314.132338859793;55.2468259695626
314.15395318418;55.2698209580204
314.175567508567;55.3019078663705
314.197181832954;55.3448303831436
314.218796157342;55.3910474374571
314.240410481729;55.4174019489732
314.262024806116;55.4138013270148
314.283639130504;55.3923207948852
314.305253454891;55.3607849014792
314.326867779278;55.3123712935257
314.348482103666;55.2542170296198
314.370096428053;55.2064578665778
314.39171075244;55.1817995012389
314.413325076827;55.1903338587379
314.434939401215;55.2267562966269
314.456553725602;55.2755287312328
314.478168049989;55.3396230167142
314.499782374377;55.4234025073879
314.521396698764;55.5274300910795
314.543011023151;55.6464331058318
314.564625347539;55.7769905476316
314.586239671926;55.9072450826225
314.607853996313;56.0309268240386
314.6294683207;56.1444127393026
314.651082645088;56.2410275272972
314.672696969475;56.3201406688084
314.694311293862;56.3848889571876
314.71592561825;56.4334566236978
314.737539942637;56.4628661872969
314.759154267024;56.4745322062003
314.780768591412;56.4723234307672
314.802382915799;56.4553494120719
314.823997240186;56.4306637145415
314.845611564574;56.3985263291513
314.867225888961;56.3665816995072
314.888840213348;56.3510017119107
314.910454537735;56.3597267688297
314.932068862123;56.3957791478303
314.95368318651;56.459733943303
314.975297510897;56.5546530720015
314.996911835285;56.6859980995848
315.018526159672;56.8548470986918
315.040140484059;57.0491248227757
315.061754808447;57.2492746270811
315.083369132834;57.4387732176214
315.104983457221;57.6082385193581
315.126597781608;57.7573665720373
315.148212105996;57.889312840466
315.169826430383;57.999347067655
315.19144075477;58.0762971055796
315.213055079158;58.1201500514504
315.234669403545;58.1350754902932
315.256283727932;58.125581087083
315.27789805232;58.0991540959956
315.299512376707;58.0690109906401
315.321126701094;58.0507921513787
315.342741025481;58.0459411670296
315.364355349869;58.0371246301075
315.385969674256;58.0170761363175
315.407583998643;57.997849654095
315.429198323031;57.9798541552552
315.450812647418;57.9474266116756
315.472426971805;57.8928859934345
315.494041296193;57.8181969462214
315.51565562058;57.7213738383592
315.537269944967;57.6004100932218
315.558884269355;57.4507842558691
315.580498593742;57.2718402702394
315.602112918129;57.0704478289657
315.623727242516;56.8578293434315
315.645341566904;56.633707135984
315.666955891291;56.4039739314749
315.688570215678;56.2005541039795
315.710184540066;56.0436984710976
315.731798864453;55.9257127862511
315.75341318884;55.8351239297222
315.775027513228;55.7771601463457
315.796641837615;55.762576827722
315.818256162002;55.7846126630705
315.839870486389;55.8308217490278
315.861484810777;55.8938853956323
315.883099135164;55.9700285371241
315.904713459551;56.0535021769689
315.926327783939;56.1280975293442
315.947942108326;56.170268439071
315.969556432713;56.1749442523596
315.991170757101;56.13656430209
316.012785081488;56.050639871221
316.034399405875;55.9271621607546
316.056013730262;55.7772427739784
316.07762805465;55.6034688351687
316.099242379037;55.4040956799282
316.120856703424;55.1813039958294
316.142471027812;54.9433405243903
316.164085352199;54.7015933738441
316.185699676586;54.4622618210272
316.207314000974;54.2243454759569
316.228928325361;53.9847143849068
316.250542649748;53.7507733702732
316.272156974136;53.5357387370208
316.293771298523;53.345648338278
316.31538562291;53.1709307007814
316.336999947297;53.0050619958543
316.358614271685;52.8596691634188
316.380228596072;52.7310962148036
316.401842920459;52.6051827787612
316.423457244847;52.4684895723495
316.445071569234;52.3150737493676
316.466685893621;52.1543371383537
316.488300218009;51.9974727181598
316.509914542396;51.8446484333192
316.531528866783;51.6925656854149
316.55314319117;51.5385672526305
316.574757515558;51.3927380093112
316.596371839945;51.2700275018702
316.617986164332;51.1747146015379
316.63960048872;51.1067040342354
316.661214813107;51.0663611605646
316.682829137494;51.056313250848
316.704443461882;51.0804271002093
316.726057786269;51.1384244671394
316.747672110656;51.232890775946
316.769286435044;51.3539525464133
316.790900759431;51.4859954041608
316.812515083818;51.6102592535216
316.834129408205;51.7181314517438
316.855743732593;51.817881431221
316.87735805698;51.9032482722249
316.898972381367;51.9555579580217
316.920586705755;51.9732711318474
316.942201030142;51.9592786523759
316.963815354529;51.9172100136963
316.985429678917;51.8664192154944
317.007044003304;51.8168052130387
317.028658327691;51.760006189001
317.050272652078;51.6849069248374
317.071886976466;51.5985123932465
317.093501300853;51.5297447138035
317.11511562524;51.4901781272981
317.136729949628;51.4634890749689
317.158344274015;51.4431214683335
317.179958598402;51.4326669535939
317.20157292279;51.4374620483012
317.223187247177;51.4658897868415
317.244801571564;51.5086767626286
317.266415895951;51.5606282378632
317.288030220339;51.6297331044639
317.309644544726;51.7177549469266
317.331258869113;51.8174641288714
317.352873193501;51.9238514834192
317.374487517888;52.0375774888566
317.396101842275;52.1567241971028
317.417716166663;52.2703564006034
317.43933049105;52.3749890308042
317.460944815437;52.4721707343
317.482559139825;52.5582096420286
317.504173464212;52.6184953855701
317.525787788599;52.6509679714691
317.547402112986;52.6585354852198
317.569016437374;52.6447498032922
317.590630761761;52.6029143973146
317.612245086148;52.5297848084372
317.633859410536;52.4256738197792
317.655473734923;52.2810575927294
317.67708805931;52.0889127970711
317.698702383698;51.8426666556616
317.720316708085;51.5569442629077
317.741931032472;51.2688107709703
317.763545356859;50.9767411254967
317.785159681247;50.645688572303
317.806774005634;50.2646233336579
317.828388330021;49.8824211344388
317.850002654409;49.5340091801299
317.871616978796;49.2138111224764
317.893231303183;48.9134225051846
317.914845627571;48.6399615343669
317.936459951958;48.4082857450284
317.958074276345;48.2178131785024
317.979688600732;48.0597906364114
318.00130292512;47.934586713903
318.022917249507;47.8493576243175
318.044531573894;47.8027407106263
318.066145898282;47.7924635607427
318.087760222669;47.8072976876035
318.109374547056;47.8325613238836
318.130988871444;47.8651284764913
318.152603195831;47.9068193405598
318.174217520218;47.9580649322943
318.195831844605;48.0178229584166
318.217446168993;48.0833072460797
318.23906049338;48.1516737925595
318.260674817767;48.2250829468419
318.282289142155;48.3063703500191
318.303903466542;48.395031205368
318.325517790929;48.4871169911298
318.347132115317;48.5811773968928
318.368746439704;48.6819942570948
318.390360764091;48.79887207886
318.411975088479;48.9411518978241
318.433589412866;49.1081139264703
318.455203737253;49.2920128381513
318.47681806164;49.4926533983032
318.498432386028;49.7073614710589
318.520046710415;49.918560346572
318.541661034802;50.1174220933333
318.56327535919;50.3078695342979
318.584889683577;50.4954596409026
318.606504007964;50.6782105959751
318.628118332352;50.8448157499437
318.649732656739;50.9896132605067
318.671346981126;51.1169039263077
318.692961305513;51.2295675149142
318.714575629901;51.3225000803775
318.736189954288;51.3853039468392
318.757804278675;51.4220112051136
318.779418603063;51.4498508114438
318.80103292745;51.4781334429033
318.822647251837;51.5044712070461
318.844261576225;51.5227814197204
318.865875900612;51.5334930739535
318.887490224999;51.5434462240801
318.909104549386;51.5496921720721
318.930718873774;51.5473070765985
318.952333198161;51.536328200525
318.973947522548;51.5199836465542
318.995561846936;51.5019551869337
319.017176171323;51.4746043939109
319.03879049571;51.4285554636866
319.060404820098;51.3592787363806
319.082019144485;51.2678699267062
319.103633468872;51.1540328943229
319.12524779326;51.0130237667949
319.146862117647;50.8431017917493
319.168476442034;50.6503238088782
319.190090766421;50.4427166677927
319.211705090809;50.2238413103477
319.233319415196;50.0023441588059
319.254933739583;49.7886717504511
319.276548063971;49.590375144267
319.298162388358;49.4049849936238
319.319776712745;49.2198147096468
319.341391037133;49.042446322515
319.36300536152;48.8793446159136
319.384619685907;48.7221644349974
319.406234010295;48.5606366519815
319.427848334682;48.3786501762022
319.449462659069;48.1694093414032
319.471076983456;47.951034925802
319.492691307844;47.7326714079312
319.514305632231;47.5154935291843
319.535919956618;47.3032704282719
319.557534281006;47.1008891538156
319.579148605393;46.9105180375332
319.60076292978;46.7321159788603
319.622377254168;46.5650293000582
319.643991578555;46.4108713781863
319.665605902942;46.2766549056164
319.687220227329;46.163966802049
319.708834551717;46.0710331403847
319.730448876104;46.0006291190198
319.752063200491;45.9537442619548
319.773677524879;45.9345909468188
319.795291849266;45.9465013305808
319.816906173653;45.978704979479
319.838520498041;46.0220987846337
319.860134822428;46.0858928601214
319.881749146815;46.1747400458671
319.903363471202;46.2835201590841
319.92497779559;46.4108276171175
319.946592119977;46.5648981695507
319.968206444364;46.7340822270524
319.989820768752;46.8963356504045
320.011435093139;47.045406104405
320.033049417526;47.186928222045
320.054663741914;47.3214288305397
320.076278066301;47.4373511259827
320.097892390688;47.5236161178471
320.119506715075;47.5791617847661
320.141121039463;47.6033468479062
320.16273536385;47.5963462871053
320.184349688237;47.557531657486
320.205964012625;47.4858717699532
320.227578337012;47.3933216632176
320.249192661399;47.2899559980217
320.270806985787;47.1737208432744
320.292421310174;47.040401295326
320.314035634561;46.8902098386452
320.335649958949;46.7301755352091
320.357264283336;46.56620283476
320.378878607723;46.3893458467217
320.40049293211;46.1816140386907
320.422107256498;45.9411200780916
320.443721580885;45.6733682835663
320.465335905272;45.3761366703338
320.48695022966;45.0445188423373
320.508564554047;44.6822574244926
320.530178878434;44.291073215836
320.551793202822;43.8762617741197
320.573407527209;43.4520164070828
320.595021851596;43.0313041187096
320.616636175983;42.616314083651
320.638250500371;42.2089115227708
320.659864824758;41.8206114594403
320.681479149145;41.4621339693866
320.703093473533;41.1420474309976
320.72470779792;40.8659338645004
320.746322122307;40.6391260142584
320.767936446695;40.4755540664233
320.789550771082;40.3896039775918
320.811165095469;40.3832454278067
320.832779419856;40.4338488625363
320.854393744244;40.5222253966021
320.876008068631;40.6416395382215
320.897622393018;40.7899672300397
320.919236717406;40.9654136669843
320.940851041793;41.1666170789448
320.96246536618;41.3866795699373
320.984079690568;41.6077210313841
321.005694014955;41.818080290879
321.027308339342;42.0183846572637
321.04892266373;42.2144761170632
321.070536988117;42.4193324714925
321.092151312504;42.6464532049647
321.113765636891;42.8966853089649
321.135379961279;43.1632114483223
321.156994285666;43.444754173414
321.178608610053;43.7471785800814
321.200222934441;44.0816525250587
321.221837258828;44.446868042221
321.243451583215;44.823956404402
321.265065907603;45.2036657203641
321.28668023199;45.5875072674308
321.308294556377;45.9738276537411
321.329908880764;46.3358906161018
321.351523205152;46.6342661094349
321.373137529539;46.8561051514982
321.394751853926;47.0017441375262
321.416366178314;47.0525687893712
321.437980502701;46.9868419000531
321.459594827088;46.8015069343322
321.481209151476;46.5037038518302
321.502823475863;46.1114957364316
321.52443780025;45.6589023031813
321.546052124637;45.1626313157205
321.567666449025;44.6345972197512
321.589280773412;44.103041878581
321.610895097799;43.6019377586202
321.632509422187;43.1512665181141
321.654123746574;42.757883999499
321.675738070961;42.4139857125444
321.697352395349;42.1195056510717
321.718966719736;41.8880816974624
321.740581044123;41.7255762248491
321.762195368511;41.6091855138504
321.783809692898;41.5117339617406
321.805424017285;41.4232646744016
321.827038341672;41.3419691542782
321.84865266606;41.2563374391224
321.870266990447;41.1551544291063
321.891881314834;41.0393460316678
321.913495639222;40.9098944770993
321.935109963609;40.765259028054
321.956724287996;40.6110340812887
321.978338612384;40.4470784445374
321.999952936771;40.2773274687736
322.021567261158;40.1127168921819
322.043181585545;39.9508576798138
322.064795909933;39.7857126667703
322.08641023432;39.6353846072078
322.108024558707;39.5268054662425
322.129638883095;39.4513233637481
322.151253207482;39.3946992133281
322.172867531869;39.3591260958126
322.194481856257;39.349126307175
322.216096180644;39.3499178036863
322.237710505031;39.3444189881374
322.259324829419;39.3249186117605
322.280939153806;39.3018407195735
322.302553478193;39.2756420886744
322.32416780258;39.2341828694223
322.345782126968;39.1648554758872
322.367396451355;39.0812490263988
322.389010775742;38.9910429040071
322.41062510013;38.8758273965259
322.432239424517;38.7316431001811
322.453853748904;38.5803897460519
322.475468073292;38.4471719549833
322.497082397679;38.3341395696015
322.518696722066;38.2438403312458
322.540311046453;38.1892027483966
322.561925370841;38.1875725093069
322.583539695228;38.2389946452805
322.605154019615;38.3397893834596
322.626768344003;38.481496437096
322.64838266839;38.6585858991645
322.669996992777;38.8631963679287
322.691611317165;39.0866282855092
322.713225641552;39.3114642304197
322.734839965939;39.5254907492633
322.756454290326;39.7210117525872
322.778068614714;39.888309675585
322.799682939101;40.0168580522454
322.821297263488;40.1120072800829
322.842911587876;40.1724523435895
322.864525912263;40.1841355039583
322.88614023665;40.1489018291113
322.907754561038;40.0876856993877
322.929368885425;40.0193214718739
322.950983209812;39.9402135205922
322.9725975342;39.8524328839489
322.994211858587;39.7570555569264
323.015826182974;39.651905070527
323.037440507361;39.5430291620012
323.059054831749;39.4445072979395
323.080669156136;39.3620078517838
323.102283480523;39.2900119145942
323.123897804911;39.2192250136354
323.145512129298;39.1498539327142
323.167126453685;39.0898641850596
323.188740778073;39.0343298153055
323.21035510246;38.9643303495794
323.231969426847;38.8661928936735
323.253583751234;38.7417136490911
323.275198075622;38.5962766095355
323.296812400009;38.423139559223
323.318426724396;38.2109844573807
323.340041048784;37.9490150153743
323.361655373171;37.6319797771207
323.383269697558;37.2843330591957
323.404884021946;36.9224143761571
323.426498346333;36.5480072890888
323.44811267072;36.1694485280101
323.469726995107;35.7862047522165
323.491341319495;35.396463069695
323.512955643882;35.0199181270493
323.534569968269;34.6928871755968
323.556184292657;34.4198355131389
323.577798617044;34.1833076847093
323.599412941431;33.9743184556719
323.621027265819;33.8011283660515
323.642641590206;33.6668189988344
323.664255914593;33.563517086223
323.685870238981;33.4832387235541
323.707484563368;33.4221188648374
323.729098887755;33.3710115815016
323.750713212142;33.3184137941981
323.77232753653;33.2622117813426
323.793941860917;33.2026805107092
323.815556185304;33.1312426192596
323.837170509692;33.038458815085
323.858784834079;32.9159134395977
323.880399158466;32.7812671606227
323.902013482854;32.6473792028837
323.923627807241;32.5147596278768
323.945242131628;32.3798066437462
323.966856456015;32.2428947463058
323.988470780403;32.1036311446931
324.01008510479;31.9590428239761
324.031699429177;31.8103785292925
324.053313753565;31.6636168618946
324.074928077952;31.5165935250691
324.096542402339;31.3544856965768
324.118156726727;31.1749702865795
324.139771051114;30.9960798882515
324.161385375501;30.8286599231244
324.182999699888;30.6708935610185
324.204614024276;30.5207161285832
324.226228348663;30.3900582914471
324.24784267305;30.2922148239098
324.269456997438;30.2261080725949
324.291071321825;30.1874236835618
324.312685646212;30.1748909908681
324.3342999706;30.1932826984753
324.355914294987;30.2331658229594
324.377528619374;30.2854511020495
324.399142943761;30.3430325415266
324.420757268149;30.3911118751766
324.442371592536;30.4163760161347
324.463985916923;30.4171962018364
324.485600241311;30.3986301904066
324.507214565698;30.3620033842312
324.528828890085;30.3076120377791
324.550443214473;30.2467428426639
324.57205753886;30.1837516664236
324.593671863247;30.1165828860628
324.615286187635;30.0426769398571
324.636900512022;29.9610260791043
324.658514836409;29.8729098187156
324.680129160796;29.7760011215188
324.701743485184;29.6695244205898
324.723357809571;29.5553469759286
324.744972133958;29.4315415072893
324.766586458346;29.2978299830413
