Name;BF_ESR_01_360s_Z_gon_120dg_result

Recipe
Accumulations;5;Number of accumulations
RetryCount;0;Number of retries on error
AbortOnError;True;Abort on error
EnableQFactorMeasurement;False;Enable/Disable q-Factor measurement
Bfrom;313;B from
Bto;363;B to
SweepTime;60;Sweep time
Modulation;0.2;Modulation
ModulationFreq;100;Modulation
BHoldEnabled;False;B hold enabled
BHold;0;B hold
MicrowavePower;2;Microwave power
MarkerEnabled;False;
MarkerStartField;0;
MarkerEndField;0;
Mode;;
KineticGFact;0;
KineticTotalTransientTime;0;
KineticTimeResolution;0;
TempFrom;5;
TempUseSlope;False;
TempTo;5;
TempdT;1;
TempSetupTime;0;
GonFrom;0;
GonTo;180;
GonSteps;20;
XRayEnabled;False;
XRayTime;3;
XRayVoltage;40;
XRayCurrent;0.5;
UVEnabled;False;
UVIntensity;0;
UVTime;0;
UVLeadTime;0;
UVWavelength;0;
PowSweepFrom;1;
PowSweepTo;5;
PowSweepSteps;5;
AmpModSweepFrom;0;
AmpModSweepTo;1;
AmpModSweepSteps;10;
ExtTriggerEnabled;False;
ExtTrigLeadTime;0;
ExtTrigOnTime;5;

Meas
BField [mT];MW_Absorption []
313.021879882812;111.063654712785
313.04349787502;110.929662921177
313.065115867228;110.816094522338
313.086733859436;110.711287329417
313.108351851644;110.614888188987
313.129969843852;110.541792595535
313.15158783606;110.496874588428
313.173205828268;110.466838722227
313.194823820476;110.43861136443
313.216441812684;110.410667219565
313.238059804892;110.376803921614
313.2596777971;110.324377826469
313.281295789308;110.244469515214
313.302913781516;110.128842488786
313.324531773724;109.975496601189
313.346149765932;109.794782720602
313.36776775814;109.591773008125
313.389385750348;109.367079274431
313.411003742556;109.128234091649
313.432621734764;108.893414746428
313.454239726972;108.673044166203
313.47585771918;108.46024495656
313.497475711388;108.245123157869
313.519093703596;108.040195622941
313.540711695804;107.88315500616
313.562329688012;107.797257817703
313.58394768022;107.75738232727
313.605565672428;107.746852266347
313.627183664636;107.761633768547
313.648801656844;107.794913573857
313.670419649052;107.833878117549
313.69203764126;107.866871861795
313.713655633468;107.880071274172
313.735273625676;107.868488528056
313.756891617884;107.82436463048
313.778509610092;107.737491668005
313.8001276023;107.603658856543
313.821745594508;107.425615312377
313.843363586716;107.20350227296
313.864981578924;106.943032756222
313.886599571132;106.660966266456
313.90821756334;106.370918432563
313.929835555548;106.076034182229
313.951453547756;105.782455115193
313.973071539964;105.512877109199
313.994689532172;105.283661225556
314.01630752438;105.097031022161
314.037925516588;104.959069341294
314.059543508796;104.885513474714
314.081161501004;104.883026047607
314.102779493212;104.946105045031
314.12439748542;105.062950770944
314.146015477628;105.220428296225
314.167633469836;105.404630573806
314.189251462044;105.58293144952
314.210869454252;105.729475754716
314.23248744646;105.835660192439
314.254105438668;105.901747572474
314.275723430876;105.926831711689
314.297341423084;105.898055728243
314.318959415292;105.802259905937
314.3405774075;105.640654265783
314.362195399708;105.417930740646
314.383813391916;105.140975834211
314.405431384124;104.831010032963
314.427049376332;104.493493668273
314.44866736854;104.123213868664
314.470285360748;103.724033176005
314.491903352956;103.332891973662
314.513521345164;102.973885143865
314.535139337372;102.629568005395
314.55675732958;102.278008359509
314.578375321788;101.916840914801
314.599993313996;101.564941117111
314.621611306204;101.236557455372
314.643229298412;100.912838567065
314.66484729062;100.582379214476
314.686465282828;100.260918518596
314.708083275036;99.9564719993349
314.729701267244;99.6700904553398
314.751319259452;99.4074738272894
314.77293725166;99.1680121775619
314.794555243868;98.951222793913
314.816173236076;98.7605210439016
314.837791228284;98.5968864698483
314.859409220492;98.4574355890321
314.8810272127;98.330065147458
314.902645204908;98.1994597840663
314.924263197116;98.0529133441316
314.945881189324;97.8930566436858
314.967499181532;97.7238838814745
314.98911717374;97.5405802749549
315.010735165948;97.3371605515283
315.032353158156;97.1166618277411
315.053971150364;96.8914784997615
315.075589142572;96.6794365126338
315.09720713478;96.4861932140662
315.118825126988;96.305496369668
315.140443119196;96.1369019997567
315.162061111404;96.0010839335569
315.183679103612;95.9115456759248
315.20529709582;95.863140592225
315.226915088028;95.8411796290752
315.248533080236;95.8298010245361
315.270151072444;95.8228716108822
315.291769064652;95.8127295389272
315.31338705686;95.7828423099785
315.335005049068;95.7187820913446
315.356623041276;95.6082606379741
315.378241033484;95.4451936297227
315.399859025692;95.2298930729136
315.4214770179;94.950624414742
315.443095010108;94.608223568402
315.464713002316;94.2256632824243
315.486330994524;93.8214276143879
315.507948986732;93.3970974428831
315.52956697894;92.9494243136459
315.551184971148;92.487763090124
315.572802963356;92.0459164002085
315.594420955564;91.6479841985239
315.616038947772;91.3038078103862
315.63765693998;91.021942866975
315.659274932188;90.8020332249153
315.680892924396;90.637321647838
315.702510916604;90.5267496731692
315.724128908812;90.4706303567288
315.74574690102;90.4578983936917
315.767364893228;90.4730330598239
315.788982885436;90.5003072878098
315.810600877644;90.5256340793493
315.832218869852;90.5362405049119
315.85383686206;90.5267344115237
315.875454854268;90.4997304796881
315.897072846476;90.4554851204819
315.918690838684;90.3987016239782
315.940308830892;90.3443030549875
315.9619268231;90.310869719998
315.983544815308;90.3063327254206
316.005162807516;90.3322889568582
316.026780799724;90.3939709638232
316.048398791932;90.4965473777191
316.07001678414;90.6343291522387
316.091634776348;90.798340611927
316.113252768556;90.9811253071555
316.134870760764;91.1787202453605
316.156488752972;91.3823732844543
316.17810674518;91.5783400495848
316.199724737388;91.7520783503207
316.221342729596;91.8971472699612
316.242960721804;92.0119389455564
316.264578714012;92.0913870836637
316.28619670622;92.1372505347293
316.307814698428;92.163598153635
316.329432690636;92.1759909152852
316.351050682844;92.1738506023141
316.372668675052;92.153225668916
316.39428666726;92.1094023571053
316.415904659468;92.0418546990142
316.437522651676;91.9433439520509
316.459140643884;91.8037926098051
316.480758636092;91.6216780929314
316.5023766283;91.3916444349976
316.523994620508;91.1034345064806
316.545612612716;90.7530932415893
316.567230604924;90.3510726142003
316.588848597132;89.9293576392793
316.61046658934;89.5049214272152
316.632084581548;89.0738776086523
316.653702573756;88.6250966012916
316.675320565964;88.1612136226967
316.696938558172;87.7139453625212
316.71855655038;87.3208756988331
316.740174542588;86.9877589818804
316.761792534796;86.7054467338496
316.783410527004;86.4838027281763
316.805028519212;86.3276563693209
316.82664651142;86.2194244878168
316.848264503628;86.1437765802906
316.869882495836;86.0986891562393
316.891500488044;86.0734566942364
316.913118480252;86.0525920849027
316.93473647246;86.0315949785019
316.956354464668;86.0076200987711
316.977972456876;85.9751920726908
316.999590449083;85.9316783264733
317.021208441291;85.8746211757541
317.0428264335;85.8071759178947
317.064444425708;85.7270945225275
317.086062417915;85.6344340720351
317.107680410123;85.5325621771025
317.129298402331;85.4161546872912
317.150916394539;85.2780123800853
317.172534386747;85.1156180219289
317.194152378955;84.9212494409711
317.215770371163;84.6848781594331
317.237388363371;84.4096872173297
317.259006355579;84.1120912370366
317.280624347787;83.8057236193299
317.302242339995;83.4882759392139
317.323860332203;83.1649146838
317.345478324411;82.8540056353146
317.367096316619;82.5741137449688
317.388714308827;82.3347161813673
317.410332301035;82.1398316034479
317.431950293243;81.9892423978215
317.453568285451;81.8789428283567
317.475186277659;81.812824057494
317.496804269867;81.7988750022656
317.518422262075;81.8304320990901
317.540040254283;81.8906726139602
317.561658246491;81.9599957593513
317.583276238699;82.0189580765468
317.604894230907;82.0564614037843
317.626512223115;82.0692531472089
317.648130215323;82.05626617902
317.669748207531;82.0177920187221
317.691366199739;81.9552464988421
317.712984191947;81.8718340815265
317.734602184155;81.7644079388033
317.756220176363;81.6312403352087
317.777838168571;81.4809069766118
317.799456160779;81.3161751261333
317.821074152987;81.1336263545758
317.842692145195;80.9373143272338
317.864310137403;80.7336936714137
317.885928129611;80.514811940611
317.907546121819;80.2679349361535
317.929164114027;79.9903992369688
317.950782106235;79.6902740674706
317.972400098443;79.3897696295796
317.994018090651;79.1141598971401
318.015636082859;78.8658532605727
318.037254075067;78.6345627281752
318.058872067275;78.4246544190636
318.080490059483;78.2400468926505
318.102108051691;78.0715267830541
318.123726043899;77.9140733524066
318.145344036107;77.7655332868574
318.166962028315;77.6218323795969
318.188580020523;77.4769789339026
318.210198012731;77.3417334367613
318.231816004939;77.2341040562293
318.253433997147;77.1566738334597
318.275051989355;77.1056462466928
318.296669981563;77.0709151726822
318.318287973771;77.0462998997019
318.339905965979;77.0276772039204
318.361523958187;77.0136191598189
318.383141950395;76.9940877818377
318.404759942603;76.9499448892336
318.426377934811;76.8936285992071
318.447995927019;76.828846287843
318.469613919227;76.7354482460864
318.491231911435;76.6006991649886
318.512849903643;76.4254512242883
318.534467895851;76.2214571533986
318.556085888059;75.9904246937543
318.577703880267;75.7263120759074
318.599321872475;75.4338419106736
318.620939864683;75.1283705428832
318.642557856891;74.8155262571261
318.664175849099;74.4892535646649
318.685793841307;74.1357101488755
318.707411833515;73.731702430488
318.729029825723;73.2730987040932
318.750647817931;72.8163477992574
318.772265810139;72.3768312712053
318.793883802347;71.9433607838227
318.815501794555;71.5146284278948
318.837119786763;71.0867755684725
318.858737778971;70.6650499541923
318.880355771179;70.2626360685017
318.901973763387;69.8645202413506
318.923591755595;69.4621493885768
318.945209747803;69.0706158005076
318.966827740011;68.7046326534066
318.988445732219;68.3759585594312
319.010063724427;68.0851698021399
319.031681716635;67.8260045868019
319.053299708843;67.5947522504852
319.074917701051;67.4092622039403
319.096535693259;67.281500124422
319.118153685467;67.2041050462153
319.139771677675;67.1674221237459
319.161389669883;67.1727700342657
319.183007662091;67.21875319516
319.204625654299;67.2916039955217
319.226243646507;67.3760465253439
319.247861638715;67.4641526704875
319.269479630923;67.5464621577937
319.291097623131;67.6094317433294
319.312715615339;67.6446019651049
319.334333607547;67.6516150688452
319.355951599755;67.6281994676951
319.377569591963;67.5683345695772
319.399187584171;67.4725468595288
319.420805576379;67.3383955401369
319.442423568587;67.1643966777834
319.464041560795;66.9555744833962
319.485659553003;66.7208621135875
319.507277545211;66.4687958850153
319.528895537419;66.2055858856189
319.550513529627;65.9422501795154
319.572131521835;65.6927017127859
319.593749514043;65.4621642181406
319.615367506251;65.2542638183393
319.636985498459;65.0779516946975
319.658603490667;64.9474328922292
319.680221482875;64.8747186140423
319.701839475083;64.8529947054487
319.723457467291;64.8677351051788
319.745075459499;64.9059388395292
319.766693451707;64.957199607764
319.788311443915;65.0130127253691
319.809929436123;65.0606707173118
319.831547428331;65.0817370263457
319.853165420539;65.0671562797433
319.874783412747;65.0195264089686
319.896401404955;64.9390780718573
319.918019397163;64.8251933694164
319.939637389371;64.6894005419704
319.961255381579;64.5466555566997
319.982873373787;64.4011682805264
320.004491365995;64.2546581611344
320.026109358203;64.1181750729582
320.047727350411;63.9999387873022
320.069345342619;63.8903252886506
320.090963334827;63.7818143420086
320.112581327035;63.67456151472
320.134199319243;63.5623957243581
320.155817311451;63.4296312214594
320.177435303659;63.2683061796001
320.199053295867;63.0913668063842
320.220671288075;62.9134452120566
320.242289280283;62.7408949180696
320.263907272491;62.5822149808862
320.285525264699;62.4449383386022
320.307143256907;62.3412824479952
320.328761249115;62.3014832686014
320.350379241323;62.3358328912485
320.371997233531;62.4292206687376
320.393615225739;62.5644273260353
320.415233217947;62.7384347623365
320.436851210155;62.960038563544
320.458469202363;63.2300736069214
320.480087194571;63.5360395397499
320.501705186779;63.8448441888292
320.523323178987;64.1220225622257
320.544941171195;64.3512304667393
320.566559163403;64.5244472621508
320.588177155611;64.6395970464025
320.609795147819;64.6977598226427
320.631413140027;64.698366826207
320.653031132235;64.6422231665928
320.674649124443;64.5378897121566
320.696267116651;64.3933282826104
320.717885108859;64.2146529645678
320.739503101067;64.0246675520756
320.761121093275;63.8484477753056
320.782739085483;63.7056722823954
320.804357077691;63.6096856651043
320.825975069899;63.5637854942408
320.847593062107;63.5635248158066
320.869211054315;63.6063335959
320.890829046523;63.6935928876713
320.912447038731;63.8111598178712
320.934065030939;63.9444480754867
320.955683023147;64.0863496543033
320.977301015355;64.2222045551829
320.998919007563;64.327958032642
321.020536999771;64.3944152851353
321.042154991979;64.4233494550049
321.063772984187;64.4080391024723
321.085390976395;64.3343828589543
321.107008968602;64.2040224839945
321.12862696081;64.0249892172102
321.150244953019;63.7933541474724
321.171862945227;63.504106540718
321.193480937434;63.1584299913449
321.215098929642;62.7724226220284
321.23671692185;62.3726129931649
321.258334914058;61.968384816591
321.279952906266;61.5543741900308
321.301570898474;61.1343398122164
321.323188890682;60.7180075250221
321.34480688289;60.3027757485058
321.366424875098;59.8721238280388
321.388042867306;59.4204480747602
321.409660859514;58.9743474442894
321.431278851722;58.5526257362855
321.45289684393;58.1504626769502
321.474514836138;57.7510357118017
321.496132828346;57.3482751460806
321.517750820554;57.0003000264425
321.539368812762;56.7074967641253
321.56098680497;56.4500849457932
321.582604797178;56.2104473047996
321.604222789386;55.9795999458208
321.625840781594;55.7680340737083
321.647458773802;55.594844761982
321.66907676601;55.4531076473267
321.690694758218;55.3256554406396
321.712312750426;55.2077491001455
321.733930742634;55.0976506254808
321.755548734842;54.9947742721624
321.77716672705;54.8924642269394
321.798784719258;54.7702022282242
321.820402711466;54.6246768086787
321.842020703674;54.480496145809
321.863638695882;54.3505662011721
321.88525668809;54.2241198852486
321.906874680298;54.0911858317106
321.928492672506;53.957386087926
321.950110664714;53.8388116809987
321.971728656922;53.7386892606514
321.99334664913;53.6511211958975
322.014964641338;53.574442648188
322.036582633546;53.511338957498
322.058200625754;53.4544719727593
322.079818617962;53.4060555959309
322.10143661017;53.3620821020767
322.123054602378;53.3171444972513
322.144672594586;53.2680104181419
322.166290586794;53.2104219832099
322.187908579002;53.1434420037124
322.20952657121;53.0686047308642
322.231144563418;52.9906197971975
322.252762555626;52.9144215377909
322.274380547834;52.8336249906098
322.295998540042;52.7432731553028
322.31761653225;52.6423276995659
322.339234524458;52.5426735085967
322.360852516666;52.4577147863515
322.382470508874;52.3888274653278
322.404088501082;52.327320233543
322.42570649329;52.2604517310423
322.447324485498;52.1764021749476
322.468942477706;52.0771941318652
322.490560469914;51.9642487372056
322.512178462122;51.8271201359657
322.53379645433;51.6634782420502
322.555414446538;51.4825067552335
322.577032438746;51.2780050367274
322.598650430954;51.0470656771305
322.620268423162;50.7993157380569
322.64188641537;50.548257303121
322.663504407578;50.3019297608371
322.685122399786;50.0595599376256
322.706740391994;49.8168735277243
322.728358384202;49.5773515601585
322.74997637641;49.3573858973391
322.771594368618;49.1977180589289
322.793212360826;49.0814004429195
322.814830353034;48.9887927835977
322.836448345242;48.9132946317034
322.85806633745;48.8441387440858
322.879684329658;48.7742458093983
322.901302321866;48.7119649199873
322.922920314074;48.6619650506782
322.944538306282;48.6258454046047
322.96615629849;48.5991081960368
322.987774290698;48.5752794941361
323.009392282906;48.546579746192
323.031010275114;48.5145650333097
323.052628267322;48.4936346540605
323.07424625953;48.4882461702335
323.095864251738;48.4862984819725
323.117482243946;48.4668365592848
323.139100236154;48.4276515174266
323.160718228362;48.3707874879793
323.18233622057;48.2990103862549
323.203954212778;48.2087598726753
323.225572204986;48.0831200346415
323.247190197194;47.9065215302081
323.268808189402;47.673835472478
323.29042618161;47.3946899429223
323.312044173818;47.0724173170355
323.333662166026;46.7109435330772
323.355280158234;46.322421947905
323.376898150442;45.9116902005819
323.39851614265;45.4809217457871
323.420134134858;45.039274659783
323.441752127066;44.6097636992885
323.463370119274;44.2220519040936
323.484988111482;43.8865082863762
323.50660610369;43.6045717160543
323.528224095898;43.3735534325019
323.549842088106;43.197051798356
323.571460080314;43.0856636661906
323.593078072522;43.0436736230398
323.61469606473;43.0656343919343
323.636314056938;43.1423029880976
323.657932049146;43.2674999356519
323.679550041354;43.4386669954047
323.701168033562;43.6447059546334
323.72278602577;43.8727796341668
323.744404017978;44.1111946053937
323.766022010186;44.352602790531
323.787640002394;44.5912242639257
323.809257994602;44.8200181096817
323.83087598681;45.0341462826715
323.852493979018;45.2276412474438
323.874111971226;45.3924491428222
323.895729963434;45.5233929326601
323.917347955642;45.6213005195145
323.93896594785;45.6873790749406
323.960583940058;45.7193801010881
323.982201932266;45.7112184272648
324.003819924474;45.6580342319799
324.025437916682;45.5637516752934
324.04705590889;45.4427749095342
324.068673901098;45.2975566998807
324.090291893306;45.125968938336
324.111909885514;44.9363087948087
324.133527877722;44.7405003239888
324.15514586993;44.5429599808135
324.176763862138;44.343474877815
324.198381854346;44.1464334063491
324.219999846554;43.9616822116363
324.241617838762;43.7865703312227
324.26323583097;43.6140855195003
324.284853823178;43.441447951504
324.306471815386;43.2724823791952
324.328089807594;43.1026544461416
324.349707799802;42.9278157776701
324.37132579201;42.742073562016
324.392943784218;42.5472609291869
324.414561776426;42.337238030433
324.436179768634;42.0978807297456
324.457797760842;41.8291921294492
324.47941575305;41.5436238559462
324.501033745258;41.2477724757148
324.522651737466;40.927176054611
324.544269729674;40.567861675018
324.565887721882;40.1617961424928
324.58750571409;39.7256557994621
324.609123706298;39.2743702645167
324.630741698506;38.7852933410557
324.652359690714;38.2425371475131
324.673977682922;37.6663728323392
324.69559567513;37.0816877839223
324.717213667338;36.4876324224236
324.738831659546;35.8904401753575
324.760449651754;35.3012321024553
324.782067643962;34.7198367877856
