Name;BF_ESR_01_360s_X_gon_140dg_result

Recipe
Accumulations;5;Number of accumulations
RetryCount;0;Number of retries on error
AbortOnError;True;Abort on error
EnableQFactorMeasurement;False;Enable/Disable q-Factor measurement
Bfrom;313;B from
Bto;363;B to
SweepTime;60;Sweep time
Modulation;0.2;Modulation
ModulationFreq;100;Modulation
BHoldEnabled;False;B hold enabled
BHold;0;B hold
MicrowavePower;2;Microwave power
MarkerEnabled;False;
MarkerStartField;0;
MarkerEndField;0;
Mode;;
KineticGFact;0;
KineticTotalTransientTime;0;
KineticTimeResolution;0;
TempFrom;5;
TempUseSlope;False;
TempTo;5;
TempdT;1;
TempSetupTime;0;
GonFrom;0;
GonTo;180;
GonSteps;20;
XRayEnabled;False;
XRayTime;3;
XRayVoltage;40;
XRayCurrent;0.5;
UVEnabled;False;
UVIntensity;0;
UVTime;0;
UVLeadTime;0;
UVWavelength;0;
PowSweepFrom;1;
PowSweepTo;5;
PowSweepSteps;5;
AmpModSweepFrom;0;
AmpModSweepTo;1;
AmpModSweepSteps;10;
ExtTriggerEnabled;False;
ExtTrigLeadTime;0;
ExtTrigOnTime;5;

Meas
BField [mT];MW_Absorption []
313.018384628296;112.10517941144
313.040002917558;111.808926358992
313.061621206821;111.469540896149
313.083239496083;111.171364167311
313.104857785346;110.9253106214
313.126476074608;110.729835056616
313.148094363871;110.572446289694
313.169712653133;110.447506775835
313.191330942396;110.354269811336
313.212949231658;110.283288756424
313.234567520921;110.227540955414
313.256185810183;110.187651908943
313.277804099446;110.165890793554
313.299422388708;110.152800321084
313.321040677971;110.128649705834
313.342658967233;110.087100646015
313.364277256496;110.027395569695
313.385895545758;109.943473936441
313.407513835021;109.831639508603
313.429132124283;109.690640746405
313.450750413546;109.518849095951
313.472368702808;109.313630182385
313.493986992071;109.074951491733
313.515605281333;108.813910680358
313.537223570595;108.561701100255
313.558841859858;108.34057115129
313.58046014912;108.151414524001
313.602078438383;107.986480251785
313.623696727645;107.852486810615
313.645315016908;107.759839797826
313.66693330617;107.709647891118
313.688551595433;107.703721787023
313.710169884695;107.735666354963
313.731788173958;107.812441259473
313.75340646322;107.933704601577
313.775024752483;108.085282238907
313.796643041745;108.24183706862
313.818261331008;108.397917816463
313.83987962027;108.555752340704
313.861497909533;108.709569593525
313.883116198795;108.854582649363
313.904734488058;108.990860526604
313.92635277732;109.117136386832
313.947971066583;109.235795708562
313.969589355845;109.346618393373
313.991207645108;109.449401200093
314.01282593437;109.538273904307
314.034444223633;109.608232944885
314.056062512895;109.657389289478
314.077680802158;109.677612937942
314.09929909142;109.664051700731
314.120917380683;109.615500699752
314.142535669945;109.534785988023
314.164153959207;109.425475129768
314.18577224847;109.284281965423
314.207390537732;109.102337649205
314.229008826995;108.877072396262
314.250627116257;108.626516387766
314.27224540552;108.372488617077
314.293863694782;108.116181311963
314.315481984045;107.853868070435
314.337100273307;107.585852395874
314.35871856257;107.315822731205
314.380336851832;107.059921420148
314.401955141095;106.834978321834
314.423573430357;106.635565205627
314.44519171962;106.450159420398
314.466810008882;106.271688193724
314.488428298145;106.09626939924
314.510046587407;105.918328908968
314.53166487667;105.735535994151
314.553283165932;105.554185187674
314.574901455195;105.381897432989
314.596519744457;105.213467016849
314.61813803372;105.030077047868
314.639756322982;104.821312562575
314.661374612245;104.595539162695
314.682992901507;104.367311510277
314.704611190769;104.140571318863
314.726229480032;103.910332326589
314.747847769294;103.675118759661
314.769466058557;103.433186902255
314.791084347819;103.185532816237
314.812702637082;102.930246335215
314.834320926344;102.67342805002
314.855939215607;102.42337303155
314.877557504869;102.184955254361
314.899175794132;101.953175513793
314.920794083394;101.726841951136
314.942412372657;101.518145307616
314.964030661919;101.328084288247
314.985648951182;101.148211035711
315.007267240444;100.972658076603
315.028885529707;100.807184397725
315.050503818969;100.660406179502
315.072122108232;100.529022393896
315.093740397494;100.407270437404
315.115358686757;100.292209866017
315.136976976019;100.177882712747
315.158595265282;100.059560028267
315.180213554544;99.9314880185071
315.201831843807;99.7985680606506
315.223450133069;99.6645302064975
315.245068422332;99.5273930144159
315.266686711594;99.3848203424661
315.288305000857;99.2343228570248
315.309923290119;99.0710838217277
315.331541579381;98.8915936039286
315.353159868644;98.6965953434676
315.374778157906;98.5019251974442
315.396396447169;98.3127139627096
315.418014736431;98.121394434038
315.439633025694;97.9276344645807
315.461251314956;97.7391734333403
315.482869604219;97.5648649365568
315.504487893481;97.4077240214303
315.526106182744;97.2712947151547
315.547724472006;97.1558838689612
315.569342761269;97.0530373326341
315.590961050531;96.9574813227644
315.612579339794;96.8728689095207
315.634197629056;96.8102552779204
315.655815918319;96.7632624535089
315.677434207581;96.7425601013172
315.699052496844;96.7589655168563
315.720670786106;96.7985751299977
315.742289075369;96.8642020251499
315.763907364631;96.9754466079808
315.785525653894;97.1267167992669
315.807143943156;97.3081659453759
315.828762232419;97.5186758834908
315.850380521681;97.7571264410239
315.871998810944;98.0226343390841
315.893617100206;98.3090787595507
315.915235389468;98.6138132100288
315.936853678731;98.9287490457625
315.958471967993;99.2363056143078
315.980090257256;99.5310190890156
316.001708546518;99.8169962463399
316.023326835781;100.083290213135
316.044945125043;100.32458990728
316.066563414306;100.544599031903
316.088181703568;100.749405714407
316.109799992831;100.941422882657
316.131418282093;101.11770189919
316.153036571356;101.27163363475
316.174654860618;101.403789019626
316.196273149881;101.524115392179
316.217891439143;101.631561506625
316.239509728406;101.714620229305
316.261128017668;101.764543910547
316.282746306931;101.786446899496
316.304364596193;101.782827273525
316.325982885456;101.753621211081
316.347601174718;101.703079787555
316.369219463981;101.634782675895
316.390837753243;101.547727004107
316.412456042506;101.438361443136
316.434074331768;101.302480172904
316.455692621031;101.138391975955
316.477310910293;100.955698120677
316.498929199556;100.758871974574
316.520547488818;100.547965651606
316.54216577808;100.322381782293
316.563784067343;100.084529439931
316.585402356605;99.8422504155831
316.607020645868;99.5961689712691
316.62863893513;99.3406850265996
316.650257224393;99.0760464585586
316.671875513655;98.8171446269583
316.693493802918;98.5692019007483
316.71511209218;98.3189426454325
316.736730381443;98.0479933231645
316.758348670705;97.7461147185329
316.779966959968;97.4169157155873
316.80158524923;97.066249191486
316.823203538493;96.6938512931471
316.844821827755;96.3017482154979
316.866440117018;95.8931267463773
316.88805840628;95.4754727668576
316.909676695543;95.0469841042433
316.931294984805;94.5991607085802
316.952913274068;94.1420445848255
316.97453156333;93.6983821853273
316.996149852593;93.2753063875553
317.017768141855;92.8702016792589
317.039386431118;92.487066109002
317.06100472038;92.1289947557208
317.082623009642;91.8133008144081
317.104241298905;91.5531304621923
317.125859588167;91.3466548670386
317.14747787743;91.187274202111
317.169096166692;91.066404392038
317.190714455955;90.9732902143692
317.212332745217;90.8978018413685
317.23395103448;90.8395088526966
317.255569323742;90.7957753551462
317.277187613005;90.7565624258248
317.298805902267;90.710585396797
317.32042419153;90.6547227393678
317.342042480792;90.591621375796
317.363660770055;90.520077907881
317.385279059317;90.4357678140614
317.40689734858;90.3396927511716
317.428515637842;90.2453764442967
317.450133927105;90.1611085245659
317.471752216367;90.0863929054672
317.49337050563;90.0183695159384
317.514988794892;89.9563826515897
317.536607084155;89.899687991641
317.558225373417;89.8502245717701
317.57984366268;89.8070903017283
317.601461951942;89.7609803374015
317.623080241205;89.6967690835726
317.644698530467;89.6102053673274
317.66631681973;89.5073314420426
317.687935108992;89.3918745226616
317.709553398254;89.2578949690032
317.731171687517;89.0975171887158
317.752789976779;88.9121710099725
317.774408266042;88.7054175706719
317.796026555304;88.4804262077611
317.817644844567;88.2424796954741
317.839263133829;88.0036196472171
317.860881423092;87.7836477184902
317.882499712354;87.5995561432609
317.904118001617;87.4554302726305
317.925736290879;87.3413125696327
317.947354580142;87.2488850750552
317.968972869404;87.1747273848552
317.990591158667;87.1162760208695
318.012209447929;87.0710579707403
318.033827737192;87.029791503316
318.055446026454;86.9813865914015
318.077064315717;86.9156055660058
318.098682604979;86.8266866004928
318.120300894242;86.7178825382114
318.141919183504;86.5941306825657
318.163537472767;86.4562015610517
318.185155762029;86.3025901639347
318.206774051292;86.1366061483988
318.228392340554;85.971494502249
318.250010629817;85.8175282634641
318.271628919079;85.6740348844341
318.293247208341;85.5397965356155
318.314865497604;85.4165141474038
318.336483786866;85.3035733385896
318.358102076129;85.1998649914653
318.379720365391;85.1042044583212
318.401338654654;85.0132871115746
318.422956943916;84.9243574131703
318.444575233179;84.8475578546241
318.466193522441;84.7905941814569
318.487811811704;84.7493583402101
318.509430100966;84.7204577110174
318.531048390229;84.706827669254
318.552666679491;84.7114869319718
318.574284968754;84.7341689216068
318.595903258016;84.7715504018304
318.617521547279;84.814210673781
318.639139836541;84.857434828757
318.660758125804;84.903162177656
318.682376415066;84.9510454931881
318.703994704329;84.9998854830549
318.725612993591;85.050050765783
318.747231282854;85.0986272959087
318.768849572116;85.1279436020872
318.790467861379;85.1294493763898
318.812086150641;85.1283471127276
318.833704439904;85.1453896269398
318.855322729166;85.1738292569263
318.876941018429;85.2084113152335
318.898559307691;85.2533805768972
318.920177596953;85.3078900953943
318.941795886216;85.3720273178863
318.963414175478;85.4577661249098
318.985032464741;85.5809281032097
319.006650754003;85.7241649924144
319.028269043266;85.8703229810182
319.049887332528;86.0145181759661
319.071505621791;86.1585343497047
319.093123911053;86.3001276820281
319.114742200316;86.430983219677
319.136360489578;86.5380468723309
319.157978778841;86.6175228928218
319.179597068103;86.6690102675756
319.201215357366;86.6912509007902
319.222833646628;86.6860337288101
319.244451935891;86.6506015118381
319.266070225153;86.5915124508855
319.287688514416;86.5174577061341
319.309306803678;86.4305997818157
319.330925092941;86.3327746938918
319.352543382203;86.2224277320222
319.374161671466;86.0967803063856
319.395779960728;85.9618403207327
319.417398249991;85.8098690074052
319.439016539253;85.631790034825
319.460634828516;85.4343868575264
319.482253117778;85.2358115597562
319.50387140704;85.036171823572
319.525489696303;84.8338176428474
319.547107985565;84.6246358054386
319.568726274828;84.405903983242
319.59034456409;84.1791143159029
319.611962853353;83.9538860940823
319.633581142615;83.7435690272391
319.655199431878;83.5553596516626
319.67681772114;83.3918760269358
319.698436010403;83.2565611760197
319.720054299665;83.147081848985
319.741672588928;83.0533544120418
319.76329087819;82.9635161569608
319.784909167453;82.8700793847338
319.806527456715;82.7674710010569
319.828145745978;82.6440792381139
319.84976403524;82.4899945158696
319.871382324503;82.3011844265431
319.893000613765;82.0745837430594
319.914618903028;81.8121648629668
319.93623719229;81.5179000677535
319.957855481553;81.191330727395
319.979473770815;80.8342537777561
320.001092060078;80.4605158204196
320.02271034934;80.1066084338496
320.044328638603;79.795331880632
320.065946927865;79.5339263316225
320.087565217127;79.3242448007527
320.10918350639;79.1733307825948
320.130801795652;79.0930213567255
320.152420084915;79.0761646508311
320.174038374177;79.1081214086057
320.19565666344;79.1863712625019
320.217274952702;79.3160723765125
320.238893241965;79.5027081032285
320.260511531227;79.7378861468082
320.28212982049;80.0063254516933
320.303748109752;80.2970204411443
320.325366399015;80.596752437717
320.346984688277;80.8875779548984
320.36860297754;81.1564123052191
320.390221266802;81.4000804521147
320.411839556065;81.61281141253
320.433457845327;81.7798519027204
320.45507613459;81.8856155295668
320.476694423852;81.9175082954691
320.498312713115;81.8627295026951
320.519931002377;81.7190079567804
320.54154929164;81.5098881320176
320.563167580902;81.2543459096251
320.584785870165;80.9747105869171
320.606404159427;80.6951978743033
320.62802244869;80.435473913787
320.649640737952;80.2091105859408
320.671259027214;80.0269159296654
320.692877316477;79.9058566535884
320.714495605739;79.8558121025955
320.736113895002;79.8714460899776
320.757732184264;79.9542595004176
320.779350473527;80.1071415820366
320.800968762789;80.3301940762071
320.822587052052;80.6094320172606
320.844205341314;80.9344293819553
320.865823630577;81.2985202708898
320.887441919839;81.6868888357688
320.909060209102;82.0795887049311
320.930678498364;82.4631323992135
320.952296787627;82.8277991527413
320.973915076889;83.1665363265385
320.995533366152;83.4814887506254
321.017151655414;83.7650695260958
321.038769944677;83.9962252635547
321.060388233939;84.1596845234506
321.082006523202;84.2490522778674
321.103624812464;84.2633453226579
321.125243101727;84.1972354697709
321.146861390989;84.0452456239417
321.168479680252;83.8120590261386
321.190097969514;83.5042480225446
321.211716258777;83.1133175457659
321.233334548039;82.6346115160255
321.254952837302;82.1047775279582
321.276571126564;81.5612053578183
321.298189415826;81.0080656012867
321.319807705089;80.4493464685294
321.341425994351;79.9045049148527
321.363044283614;79.4089236518336
321.384662572876;78.9674583894198
321.406280862139;78.5756538375637
321.427899151401;78.2481965823459
321.449517440664;77.9994427128296
321.471135729926;77.8338245943611
321.492754019189;77.7430963597925
321.514372308451;77.7221645678351
321.535990597714;77.7598804163325
321.557608886976;77.8444630985462
321.579227176239;77.9623930276969
321.600845465501;78.0934131326037
321.622463754764;78.216899699062
321.644082044026;78.322744357285
321.665700333289;78.4073282640811
321.687318622551;78.4673840553376
321.708936911814;78.5032418792875
321.730555201076;78.5185274429492
321.752173490339;78.5177997662383
321.773791779601;78.5169053942474
321.795410068864;78.532884552922
321.817028358126;78.5672342594534
321.838646647389;78.6125786234716
321.860264936651;78.6790670079734
321.881883225914;78.775157787036
321.903501515176;78.8977197211815
321.925119804438;79.0493697724494
321.946738093701;79.2255028080656
321.968356382963;79.4151927538353
321.989974672226;79.6172842574753
322.011592961488;79.835611537751
322.033211250751;80.0696047095992
322.054829540013;80.3312352032716
322.076447829276;80.6367231425947
322.098066118538;80.9939501429887
322.119684407801;81.412403009331
322.141302697063;81.8877608044918
322.162920986326;82.4011468306438
322.184539275588;82.9507393842298
322.206157564851;83.5255640370353
322.227775854113;84.1068015808537
322.249394143376;84.6990637356092
322.271012432638;85.2978786717727
322.292630721901;85.8603731097823
322.314249011163;86.3815877833575
322.335867300426;86.8608341135892
322.357485589688;87.2943369792232
322.379103878951;87.6927989981823
322.400722168213;88.0643047796393
322.422340457476;88.4174061083809
322.443958746738;88.7684948562807
322.465577036001;89.1304091576018
322.487195325263;89.5032199683569
322.508813614525;89.8916850039512
322.530431903788;90.3174895819206
322.55205019305;90.7898814633041
322.573668482313;91.3120959316711
322.595286771575;91.8878540603915
322.616905060838;92.5055710015266
322.6385233501;93.148249109747
322.660141639363;93.8259940176912
322.681759928625;94.5437687710126
322.703378217888;95.2982112280295
322.72499650715;96.0929515506481
322.746614796413;96.8994279660603
322.768233085675;97.6837635164209
322.789851374938;98.4556888277495
322.8114696642;99.2338576500717
322.833087953463;100.029589857876
322.854706242725;100.846927182987
322.876324531988;101.691515997223
322.89794282125;102.537150318459
322.919561110513;103.365196195875
322.941179399775;104.181036703606
322.962797689038;104.984882127452
322.9844159783;105.780095571816
323.006034267563;106.561510347933
323.027652556825;107.308158712644
323.049270846088;108.009284835105
323.07088913535;108.666313107527
323.092507424612;109.299660441109
323.114125713875;109.902953449305
323.135744003137;110.452422849636
323.1573622924;110.944162253727
323.178980581662;111.379566226265
323.200598870925;111.744810495228
323.222217160187;112.038862801254
323.24383544945;112.264510982065
323.265453738712;112.426270577613
323.287072027975;112.504752286198
323.308690317237;112.486657477381
323.3303086065;112.370629921584
323.351926895762;112.150068150318
323.373545185025;111.825011104992
323.395163474287;111.39283210479
323.41678176355;110.872515478831
323.438400052812;110.303652473339
323.460018342075;109.656268444412
323.481636631337;108.898230215124
323.5032549206;108.02524467472
323.524873209862;107.054067155917
323.546491499125;106.013164505741
323.568109788387;104.900537414261
323.58972807765;103.715165481385
323.611346366912;102.475244777042
323.632964656175;101.183469160631
323.654582945437;99.8386364090248
323.676201234699;98.4156023781641
323.697819523962;96.9257075563254
323.719437813224;95.375139962391
323.741056102487;93.7589764517272
323.762674391749;92.1323259319488
323.784292681012;90.5146956098736
323.805910970274;88.890011346446
323.827529259537;87.2592053388641
323.849147548799;85.644858527319
323.870765838062;84.0864843829966
323.892384127324;82.573438318203
323.914002416587;81.0723716224935
323.935620705849;79.5895323953003
323.957238995112;78.1485628126352
323.978857284374;76.7569287259104
324.000475573637;75.3883489514272
324.022093862899;74.0062550634641
324.043712152162;72.6143606273548
324.065330441424;71.2503573509652
324.086948730687;69.9221290115071
324.108567019949;68.6183070655807
324.130185309212;67.3182110708599
324.151803598474;66.007605442255
324.173421887737;64.6826028551594
324.195040176999;63.3535663122931
324.216658466262;62.0291904437309
324.238276755524;60.7424498457028
324.259895044787;59.505967215083
324.281513334049;58.2988690121472
324.303131623311;57.1250689908242
324.324749912574;56.0152937717046
324.346368201836;54.9654895443113
324.367986491099;53.9512058297877
324.389604780361;52.9657208496734
324.411223069624;52.0287366411277
324.432841358886;51.1505649115789
324.454459648149;50.3262265883052
324.476077937411;49.5565658743056
324.497696226674;48.8327477933084
324.519314515936;48.1427997554708
324.540932805199;47.4905047923723
324.562551094461;46.887262186672
324.584169383724;46.3368989034264
324.605787672986;45.8366220049219
324.627405962249;45.3838495277403
324.649024251511;44.9837289117121
324.670642540774;44.6324507530455
324.692260830036;44.3386446670369
324.713879119299;44.1112198246979
324.735497408561;43.9470075568787
324.757115697824;43.8345108816264
