Name;BF_ESR_01_3600s_X_gon_80dg_result

Recipe
Accumulations;5;Number of accumulations
RetryCount;0;Number of retries on error
AbortOnError;True;Abort on error
EnableQFactorMeasurement;False;Enable/Disable q-Factor measurement
Bfrom;313;B from
Bto;363;B to
SweepTime;60;Sweep time
Modulation;0.2;Modulation
ModulationFreq;100;Modulation
BHoldEnabled;False;B hold enabled
BHold;0;B hold
MicrowavePower;2;Microwave power
MarkerEnabled;False;
MarkerStartField;0;
MarkerEndField;0;
Mode;;
KineticGFact;0;
KineticTotalTransientTime;0;
KineticTimeResolution;0;
TempFrom;5;
TempUseSlope;False;
TempTo;5;
TempdT;1;
TempSetupTime;0;
GonFrom;0;
GonTo;180;
GonSteps;20;
XRayEnabled;False;
XRayTime;3;
XRayVoltage;40;
XRayCurrent;0.5;
UVEnabled;False;
UVIntensity;0;
UVTime;0;
UVLeadTime;0;
UVWavelength;0;
PowSweepFrom;1;
PowSweepTo;5;
PowSweepSteps;5;
AmpModSweepFrom;0;
AmpModSweepTo;1;
AmpModSweepSteps;10;
ExtTriggerEnabled;False;
ExtTrigLeadTime;0;
ExtTrigOnTime;5;

Meas
BField [mT];MW_Absorption []
313.019108123779;127.240760015347
313.040713438371;126.901401889832
313.062318752963;126.562438161995
313.083924067555;126.223875517041
313.105529382147;125.904610558333
313.127134696739;125.645530218887
313.148740011331;125.428086493708
313.170345325924;125.243802746767
313.191950640516;125.087132805789
313.213555955108;124.94345983357
313.2351612697;124.801000310633
313.256766584292;124.656632859381
313.278371898884;124.508786952915
313.299977213476;124.350629271931
313.321582528068;124.175333319961
313.34318784266;123.972651051249
313.364793157252;123.731304965555
313.386398471844;123.453001747808
313.408003786436;123.15001923483
313.429609101028;122.827350743557
313.45121441562;122.479195663398
313.472819730212;122.116212602171
313.494425044804;121.765018339139
313.516030359396;121.44080519451
313.537635673988;121.140078952404
313.55924098858;120.858525209785
313.580846303172;120.60339293671
313.602451617764;120.381051211391
313.624056932356;120.180863080186
313.645662246948;119.996577840042
313.66726756154;119.840064319572
313.688872876132;119.698116085998
313.710478190724;119.546642895495
313.732083505316;119.375936955123
313.753688819908;119.200366278225
313.7752941345;119.02188377069
313.796899449092;118.837117471244
313.818504763684;118.647680619912
313.840110078276;118.44410029233
313.861715392869;118.212060322686
313.883320707461;117.945553661877
313.904926022053;117.653388245281
313.926531336645;117.330213890795
313.948136651237;116.972646701788
313.969741965829;116.612984575573
313.991347280421;116.268614267635
314.012952595013;115.937212434738
314.034557909605;115.610975816709
314.056163224197;115.283899145435
314.077768538789;114.962556038371
314.099373853381;114.657655127988
314.120979167973;114.367578268906
314.142584482565;114.097671772014
314.164189797157;113.866299776831
314.185795111749;113.680820649124
314.207400426341;113.541501110165
314.229005740933;113.443361039383
314.250611055525;113.37014434844
314.272216370117;113.311820963918
314.293821684709;113.269046326493
314.315426999301;113.24446322688
314.337032313893;113.236579638745
314.358637628485;113.236681035172
314.380242943077;113.226830137959
314.401848257669;113.190736835993
314.423453572261;113.129286232386
314.445058886853;113.045768939757
314.466664201445;112.936336225593
314.488269516037;112.793761695546
314.509874830629;112.614175740848
314.531480145221;112.403983024585
314.553085459813;112.172599893522
314.574690774406;111.92696924381
314.596296088998;111.666544487204
314.61790140359;111.390554765832
314.639506718182;111.115713531021
314.661112032774;110.857191478542
314.682717347366;110.624011544515
314.704322661958;110.418190164865
314.72592797655;110.24144775933
314.747533291142;110.099959920613
314.769138605734;110.0076432913
314.790743920326;109.972972328061
314.812349234918;109.99366148557
314.83395454951;110.068390806928
314.855559864102;110.199606580958
314.877165178694;110.389281511672
314.898770493286;110.627757296701
314.920375807878;110.905130549023
314.94198112247;111.213814937106
314.963586437062;111.544716851903
314.985191751654;111.868599997769
315.006797066246;112.16632612914
315.028402380838;112.431720727708
315.05000769543;112.657076988187
315.071613010022;112.832137398923
315.093218324614;112.957259900599
315.114823639206;113.0341647461
315.136428953798;113.066863967939
315.15803426839;113.065532607197
315.179639582982;113.045745481475
315.201244897574;113.027737187921
315.222850212166;113.022335095596
315.244455526758;113.04029984404
315.266060841351;113.095024320093
315.287666155943;113.192130596639
315.309271470535;113.34170862576
315.330876785127;113.556068103551
315.352482099719;113.843127057417
315.374087414311;114.195226284892
315.395692728903;114.59818073421
315.417298043495;115.042026647306
315.438903358087;115.494982243109
315.460508672679;115.94433913307
315.482113987271;116.394171383586
315.503719301863;116.852832731158
315.525324616455;117.314874169138
315.546929931047;117.740337124298
315.568535245639;118.089925659127
315.590140560231;118.376677312005
315.611745874823;118.601164125133
315.633351189415;118.738792620224
315.654956504007;118.790762623761
315.676561818599;118.769691544788
315.698167133191;118.687015310108
315.719772447783;118.550074778646
315.741377762375;118.372979348458
315.762983076967;118.167694587136
315.784588391559;117.942345863343
315.806193706151;117.702890845812
315.827799020743;117.474593918263
315.849404335335;117.293742860759
315.871009649927;117.184087496703
315.892614964519;117.138517262048
315.914220279111;117.13920571495
315.935825593703;117.186936820106
315.957430908295;117.313815178392
315.979036222887;117.509531621234
316.00064153748;117.757294442633
316.022246852072;118.030274932927
316.043852166664;118.307980426097
316.065457481256;118.58471952047
316.087062795848;118.856771261655
316.10866811044;119.111052590277
316.130273425032;119.327598694145
316.151878739624;119.492460722937
316.173484054216;119.612505605783
316.195089368808;119.706882052544
316.2166946834;119.779884300812
316.238299997992;119.822612365568
316.259905312584;119.838079151997
316.281510627176;119.82814165926
316.303115941768;119.803140904816
316.32472125636;119.777147583537
316.346326570952;119.755471325329
316.367931885544;119.738586307437
316.389537200136;119.722579728036
316.411142514728;119.704269383867
316.43274782932;119.691782652391
316.454353143912;119.695993403703
316.475958458504;119.718871682894
316.497563773096;119.755096773515
316.519169087688;119.795832042956
316.54077440228;119.834998579633
316.562379716872;119.876091136894
316.583985031464;119.917887449564
316.605590346056;119.955480061912
316.627195660648;119.98361628664
316.64880097524;119.994185660419
316.670406289833;119.98081648754
316.692011604425;119.948305733463
316.713616919017;119.908343559159
316.735222233609;119.862032231219
316.756827548201;119.804063467312
316.778432862793;119.730989084458
316.800038177385;119.64048528601
316.821643491977;119.545824116793
316.843248806569;119.453842625631
316.864854121161;119.355998737901
316.886459435753;119.244997881821
316.908064750345;119.119399901811
316.929670064937;118.977277197302
316.951275379529;118.81937199933
316.972880694121;118.645753801078
316.994486008713;118.455099754058
317.016091323305;118.246471220196
317.037696637897;118.022472798458
317.059301952489;117.787412143803
317.080907267081;117.546483605927
317.102512581673;117.305733278628
317.124117896265;117.06069605078
317.145723210857;116.803653033588
317.167328525449;116.535730793576
317.188933840041;116.255397102979
317.210539154633;115.963921339717
317.232144469225;115.674062879542
317.253749783817;115.387923876656
317.275355098409;115.092153566188
317.296960413001;114.785575767288
317.318565727593;114.500238400491
317.340171042185;114.235795373922
317.361776356777;113.986676288555
317.38338167137;113.767602090496
317.404986985962;113.58651138579
317.426592300554;113.439449611859
317.448197615146;113.324683350341
317.469802929738;113.236879484351
317.49140824433;113.164967819365
317.513013558922;113.099401263396
317.534618873514;113.030599849516
317.556224188106;112.939821247667
317.577829502698;112.796413545163
317.59943481729;112.583438075031
317.621040131882;112.310181977871
317.642645446474;111.990897750302
317.664250761066;111.625698713342
317.685856075658;111.212495538856
317.70746139025;110.754990316639
317.729066704842;110.262511612189
317.750672019434;109.749688982343
317.772277334026;109.241455600504
317.793882648618;108.756400840844
317.81548796321;108.307492246856
317.837093277802;107.908590347712
317.858698592394;107.56280346578
317.880303906986;107.278439504442
317.901909221578;107.058326885927
317.92351453617;106.90681446896
317.945119850762;106.828689691875
317.966725165354;106.818236408568
317.988330479946;106.866341292869
318.009935794538;106.967218852067
318.03154110913;107.107772799491
318.053146423722;107.269632553401
318.074751738314;107.443739477039
318.096357052907;107.624450068934
318.117962367499;107.803643354974
318.139567682091;107.972762367176
318.161172996683;108.127377684627
318.182778311275;108.269125277304
318.204383625867;108.398251250266
318.225988940459;108.511446540796
318.247594255051;108.598290528052
318.269199569643;108.666488047216
318.290804884235;108.730773070607
318.312410198827;108.787125536575
318.334015513419;108.829100864772
318.355620828011;108.863881392801
318.377226142603;108.896435667775
318.398831457195;108.920591413184
318.420436771787;108.93086541849
318.442042086379;108.928188433058
318.463647400971;108.918039583036
318.485252715563;108.897291055058
318.506858030155;108.856100022397
318.528463344747;108.791709362815
318.550068659339;108.708380862728
318.571673973931;108.598931480225
318.593279288523;108.453075259142
318.614884603115;108.262761516
318.636489917707;108.031060583406
318.658095232299;107.770314870907
318.679700546891;107.491516938208
318.701305861483;107.200558670062
318.722911176075;106.911315878684
318.744516490667;106.634572502565
318.76612180526;106.372020313105
318.787727119852;106.147324215811
318.809332434444;105.981657734408
318.830937749036;105.883935955826
318.852543063628;105.858521358885
318.87414837822;105.918143696688
318.895753692812;106.066794841181
318.917359007404;106.285571016557
318.938964321996;106.560970271859
318.960569636588;106.881651369304
318.98217495118;107.237626869049
319.003780265772;107.612960826268
319.025385580364;108.000576744496
319.046990894956;108.384975819577
319.068596209548;108.762567339111
319.09020152414;109.12449652971
319.111806838732;109.462361203345
319.133412153324;109.765555767826
319.155017467916;110.025916544994
319.176622782508;110.239738054474
319.1982280971;110.407491541547
319.219833411692;110.532961564385
319.241438726284;110.626398397008
319.263044040876;110.696222898267
319.284649355468;110.725819054006
319.30625467006;110.710760191489
319.327859984652;110.66452543736
319.349465299244;110.593516757119
319.371070613836;110.498793603664
319.392675928428;110.391797926141
319.41428124302;110.28336344575
319.435886557612;110.169937297565
319.457491872204;110.049764281741
319.479097186796;109.933877675914
319.500702501389;109.829353908579
319.522307815981;109.739995243019
319.543913130573;109.66789797617
319.565518445165;109.611317046913
319.587123759757;109.559224898974
319.608729074349;109.496425895921
319.630334388941;109.421156386006
319.651939703533;109.329930978463
319.673545018125;109.206981873146
319.695150332717;109.035055140699
319.716755647309;108.835528048448
319.738360961901;108.625952580941
319.759966276493;108.410310328932
319.781571591085;108.199041447252
319.803176905677;108.007393794306
319.824782220269;107.848081509024
319.846387534861;107.720532861155
319.867992849453;107.636244407631
319.889598164045;107.627264677263
319.911203478637;107.696322395392
319.932808793229;107.833236316542
319.954414107821;108.031472993727
319.976019422413;108.280729601923
319.997624737005;108.570517977738
320.019230051597;108.88665679116
320.040835366189;109.210972268888
320.062440680781;109.518599784777
320.084045995373;109.795744014591
320.105651309965;110.03806295555
320.127256624557;110.244916824667
320.148861939149;110.413397537833
320.170467253741;110.530641179608
320.192072568334;110.596441401253
320.213677882926;110.613657237572
320.235283197518;110.578617402609
320.25688851211;110.476872329294
320.278493826702;110.293501666431
320.300099141294;110.044686792224
320.321704455886;109.742731896633
320.343309770478;109.381336929957
320.36491508507;108.938920070775
320.386520399662;108.402744110303
320.408125714254;107.780124639366
320.429731028846;107.092247461128
320.451336343438;106.357692057546
320.47294165803;105.58060930127
320.494546972622;104.745839758104
320.516152287214;103.84190768403
320.537757601806;102.909682335355
320.559362916398;102.000480820802
320.58096823099;101.136435543825
320.602573545582;100.310997152319
320.624178860174;99.5098059525935
320.645784174766;98.7106054523462
320.667389489358;97.9567279252058
320.68899480395;97.28705309834
320.710600118542;96.687781834698
320.732205433134;96.1423555646498
320.753810747726;95.6347690646035
320.775416062318;95.1423482242091
320.79702137691;94.6606545804434
320.818626691502;94.1941767723439
320.840232006094;93.7050217094026
320.861837320686;93.1616214144744
320.883442635278;92.5701560462298
320.905047949871;91.9371599911111
320.926653264463;91.2603766993255
320.948258579055;90.5233008099637
320.969863893647;89.7126561862654
320.991469208239;88.8507653644722
321.013074522831;87.9590720100534
321.034679837423;87.0359731569716
321.056285152015;86.0675130118527
321.077890466607;85.0596739348003
321.099495781199;84.0494239997214
321.121101095791;83.0500859711329
321.142706410383;82.0632455984591
321.164311724975;81.0962832510422
321.185917039567;80.1655448091705
321.207522354159;79.2892929462366
321.229127668751;78.4587759916432
321.250732983343;77.654101130311
321.272338297935;76.872437749006
321.293943612527;76.1431560091122
321.315548927119;75.4958657284976
321.337154241711;74.9243728749537
321.358759556303;74.4127561270852
321.380364870895;73.9445452147218
321.401970185487;73.5072274635921
321.423575500079;73.097870300474
321.445180814671;72.7195504173727
321.466786129263;72.3619078021592
321.488391443855;72.0056552716119
321.509996758447;71.6328679239929
321.531602073039;71.2464377061864
321.553207387631;70.8527930148241
321.574812702223;70.4460605632638
321.596418016816;70.0280141680526
321.618023331408;69.5985933729541
321.639628646;69.1500721728639
321.661233960592;68.666416129306
321.682839275184;68.1740592838691
321.704444589776;67.6965264380666
321.726049904368;67.2351151466615
321.74765521896;66.7715244744394
321.769260533552;66.2988016622152
321.790865848144;65.8225831249983
321.812471162736;65.3408848879671
321.834076477328;64.8367532890694
321.85568179192;64.3202474066378
321.877287106512;63.8083327426145
321.898892421104;63.3100465217944
321.920497735696;62.83491795817
321.942103050288;62.401390691816
321.96370836488;62.0155694760712
321.985313679472;61.67225623518
322.006918994064;61.3903486493555
322.028524308656;61.1911054178047
322.050129623248;61.0591424801521
322.07173493784;60.9737695683946
322.093340252432;60.9290160724295
322.114945567024;60.9235534407491
322.136550881616;60.9443306268035
322.158156196208;60.9726610983171
322.1797615108;60.9971601996059
322.201366825392;61.0060051536385
322.222972139984;60.9906595764483
322.244577454576;60.9435862751895
322.266182769168;60.8594615384309
322.287788083761;60.7289785793968
322.309393398353;60.549266704629
322.330998712945;60.3396083592877
322.352604027537;60.1178638405467
322.374209342129;59.872418457996
322.395814656721;59.5862348943149
322.417419971313;59.2607202920549
322.439025285905;58.90874476938
322.460630600497;58.5327802202434
322.482235915089;58.1345083306796
322.503841229681;57.7065719589791
322.525446544273;57.2526022987068
322.547051858865;56.7931969942017
322.568657173457;56.3492780478794
322.590262488049;55.9252512265096
322.611867802641;55.509809672501
322.633473117233;55.1003431797096
322.655078431825;54.7098346167146
322.676683746417;54.3499326756133
322.698289061009;54.0196258325885
322.719894375601;53.7199746155271
322.741499690193;53.4501332888401
322.763105004785;53.2074330950203
322.784710319377;52.9960831566632
322.806315633969;52.8211775457431
322.827920948561;52.6724474489818
322.849526263153;52.5375540818046
322.871131577745;52.4011608179956
322.892736892337;52.2534467879428
322.914342206929;52.0960818339614
322.935947521521;51.9338654552986
322.957552836113;51.7647775470596
322.979158150705;51.5863652940203
323.000763465298;51.3992558793218
323.02236877989;51.2059286970163
323.043974094482;51.0095766816633
323.065579409074;50.812666468985
323.087184723666;50.6354721284324
323.108790038258;50.5063120520455
323.13039535285;50.4388551116373
323.152000667442;50.4444507538675
323.173605982034;50.5331831535335
323.195211296626;50.7178159296808
323.216816611218;50.9915851488242
323.23842192581;51.3459943008403
323.260027240402;51.7806685438592
323.281632554994;52.2803308307012
323.303237869586;52.8312756144354
323.324843184178;53.4205741259142
323.34644849877;54.0256694858677
323.368053813362;54.6235491210533
323.389659127954;55.2063273679407
323.411264442546;55.7803692739374
323.432869757138;56.331355315894
323.45447507173;56.8227000209792
323.476080386322;57.2391937536909
323.497685700914;57.6148824130479
323.519291015506;57.965001133085
323.540896330098;58.3049072868104
323.56250164469;58.639368220204
323.584106959282;58.9649212535125
323.605712273874;59.2666121156775
323.627317588466;59.5424490398512
323.648922903058;59.8015157186048
323.67052821765;60.0483973691133
323.692133532243;60.282206956124
323.713738846835;60.4983933174568
323.735344161427;60.6928693135891
323.756949476019;60.8582277515873
323.778554790611;60.9887164282456
323.800160105203;61.0892772399141
323.821765419795;61.1694839378221
323.843370734387;61.234342024846
323.864976048979;61.2669966044904
323.886581363571;61.2493818026269
323.908186678163;61.1911106969818
323.929791992755;61.0936951884651
323.951397307347;60.9522400270787
323.973002621939;60.7681094611115
323.994607936531;60.5297157454492
324.016213251123;60.2159771668121
324.037818565715;59.8144702367564
324.059423880307;59.3377489145835
324.081029194899;58.7941661817478
324.102634509491;58.2147194187594
324.124239824083;57.6125064577189
324.145845138675;56.9798284176717
324.167450453267;56.3288126927951
324.189055767859;55.687169895145
324.210661082451;55.0653359693346
324.232266397043;54.4572904077148
324.253871711635;53.8728576631981
324.275477026227;53.3248204745354
324.297082340819;52.8091354205685
324.318687655411;52.3326274523616
324.340292970003;51.9233852399896
324.361898284595;51.5795970983357
324.383503599187;51.273951791585
324.405108913779;50.9803771895887
324.426714228372;50.6742065729398
324.448319542964;50.3321297650424
324.469924857556;49.9443442683709
324.491530172148;49.4992156958763
324.51313548674;48.9930832290543
324.534740801332;48.4427732616551
324.556346115924;47.8694414122134
324.577951430516;47.2706846155219
324.599556745108;46.6416669701154
324.6211620597;45.9854361860368
324.642767374292;45.3021553622783
324.664372688884;44.5924501450073
324.685978003476;43.857304531591
324.707583318068;43.1061323546214
324.72918863266;42.3683960361524
324.750793947252;41.6515852202862
324.772399261844;40.9400230573125
