Name;BF_ESR_01_1800s_Z_gon_0dg_result

Recipe
Accumulations;5;Number of accumulations
RetryCount;0;Number of retries on error
AbortOnError;True;Abort on error
EnableQFactorMeasurement;False;Enable/Disable q-Factor measurement
Bfrom;313;B from
Bto;363;B to
SweepTime;60;Sweep time
Modulation;0.2;Modulation
ModulationFreq;100;Modulation
BHoldEnabled;False;B hold enabled
BHold;0;B hold
MicrowavePower;2;Microwave power
MarkerEnabled;False;
MarkerStartField;0;
MarkerEndField;0;
Mode;;
KineticGFact;0;
KineticTotalTransientTime;0;
KineticTimeResolution;0;
TempFrom;5;
TempUseSlope;False;
TempTo;5;
TempdT;1;
TempSetupTime;0;
GonFrom;0;
GonTo;180;
GonSteps;20;
XRayEnabled;False;
XRayTime;3;
XRayVoltage;40;
XRayCurrent;0.5;
UVEnabled;False;
UVIntensity;0;
UVTime;0;
UVLeadTime;0;
UVWavelength;0;
PowSweepFrom;1;
PowSweepTo;5;
PowSweepSteps;5;
AmpModSweepFrom;0;
AmpModSweepTo;1;
AmpModSweepSteps;10;
ExtTriggerEnabled;False;
ExtTrigLeadTime;0;
ExtTrigOnTime;5;

Meas
BField [mT];MW_Absorption []
313.037498016357;50.8922014989567
313.05910502909;50.8146329712802
313.080712041822;50.7329892067659
313.102319054554;50.6474735923446
313.123926067286;50.5602017701852
313.145533080018;50.4786665820596
313.167140092751;50.4223197881526
313.188747105483;50.3961738292778
313.210354118215;50.3883340618322
313.231961130947;50.3883111585959
313.25356814368;50.3943612960976
313.275175156412;50.4178806034802
313.296782169144;50.4683129494232
313.318389181876;50.5494206931204
313.339996194608;50.6599060079151
313.361603207341;50.7848380168879
313.383210220073;50.91656196514
313.404817232805;51.045997961339
313.426424245537;51.1635797411928
313.44803125827;51.2594575288977
313.469638271002;51.3208618970045
313.491245283734;51.3405722588696
313.512852296466;51.3205495630634
313.534459309198;51.2524913779862
313.556066321931;51.1258273865682
313.577673334663;50.9428558569347
313.599280347395;50.7195223357162
313.620887360127;50.4672371679125
313.64249437286;50.1849552271094
313.664101385592;49.8810410159937
313.685708398324;49.5898850834035
313.707315411056;49.3317600296566
313.728922423788;49.1027939929642
313.750529436521;48.882423708543
313.772136449253;48.660861218362
313.793743461985;48.4513435241317
313.815350474717;48.255132376678
313.836957487449;48.0631605306195
313.858564500182;47.8707525465967
313.880171512914;47.6783103299777
313.901778525646;47.4893581480315
313.923385538378;47.3063695347588
313.944992551111;47.1240905677341
313.966599563843;46.9323413288935
313.988206576575;46.7289405156185
314.009813589307;46.5183011548315
314.031420602039;46.3163596341186
314.053027614772;46.1381359977404
314.074634627504;45.987206598946
314.096241640236;45.8655645185185
314.117848652968;45.7736154963111
314.139455665701;45.7128759926608
314.161062678433;45.6887392280511
314.182669691165;45.703500111311
314.204276703897;45.7570122352341
314.225883716629;45.8511308371173
314.247490729362;45.9830867977934
314.269097742094;46.1493266205809
314.290704754826;46.3453798997068
314.312311767558;46.5636345492711
314.333918780291;46.7929493606749
314.355525793023;47.0320136008353
314.377132805755;47.2836083418502
314.398739818487;47.5494019776886
314.420346831219;47.8312690457249
314.441953843952;48.1118948852175
314.463560856684;48.372148721063
314.485167869416;48.6081212230049
314.506774882148;48.8205838303795
314.528381894881;49.0046713494723
314.549988907613;49.1543493984613
314.571595920345;49.2610838352208
314.593202933077;49.3103960796372
314.614809945809;49.2975469946647
314.636416958542;49.2261247728414
314.658023971274;49.1001564391742
314.679630984006;48.9230869337873
314.701237996738;48.7023758474576
314.72284500947;48.4494052965044
314.744452022203;48.1657900022497
314.766059034935;47.8479647207701
314.787666047667;47.5042105598778
314.809273060399;47.1522332520952
314.830880073132;46.8012774698048
314.852487085864;46.4515271953778
314.874094098596;46.1040414099032
314.895701111328;45.761419849834
314.91730812406;45.4269672810793
314.938915136793;45.1021759123197
314.960522149525;44.7823640494455
314.982129162257;44.4608549389635
315.003736174989;44.1343660058377
315.025343187722;43.8051077644825
315.046950200454;43.4753280343595
315.068557213186;43.1560836680637
315.090164225918;42.8542911064013
315.11177123865;42.5682787402362
315.133378251383;42.2942992021586
315.154985264115;42.0326310036198
315.176592276847;41.7876234486287
315.198199289579;41.5658046837744
315.219806302312;41.3784603613858
315.241413315044;41.2372367535816
315.263020327776;41.1481366744558
315.284627340508;41.1102925175834
315.30623435324;41.1184778859712
315.327841365973;41.1701929802869
315.349448378705;41.2615630566763
315.371055391437;41.379229598577
315.392662404169;41.5065680241008
315.414269416901;41.6362419273267
315.435876429634;41.7680421580066
315.457483442366;41.8907658423988
315.479090455098;41.9855513626832
315.50069746783;42.0445972365572
315.522304480563;42.0654493141234
315.543911493295;42.0520776643217
315.565518506027;42.0082025901775
315.587125518759;41.9400362350026
315.608732531491;41.8571217590368
315.630339544224;41.7728205539313
315.651946556956;41.7012317830523
315.673553569688;41.6524006918113
315.69516058242;41.6385270062625
315.716767595153;41.6673442594191
315.738374607885;41.7588336215318
315.759981620617;41.9017292822847
315.781588633349;42.0856234711008
315.803195646081;42.3152216569911
315.824802658814;42.6024096859041
315.846409671546;42.929730758158
315.868016684278;43.2466510787208
315.88962369701;43.5330413310892
315.911230709742;43.7876129022318
315.932837722475;44.0025697081367
315.954444735207;44.163131006909
315.976051747939;44.2677840505778
315.997658760671;44.3122527536931
316.019265773404;44.2974080358145
316.040872786136;44.2355632153147
316.062479798868;44.1442052919701
316.0840868116;44.0393136057692
316.105693824332;43.9387666549868
316.127300837065;43.8654884358694
316.148907849797;43.8425198586705
316.170514862529;43.8732685900755
316.192121875261;43.9589397476412
316.213728887994;44.0972653915413
316.235335900726;44.2835707322112
316.256942913458;44.5146375649257
316.27854992619;44.7778511712703
316.300156938922;45.0561411870866
316.321763951655;45.3291058470493
316.343370964387;45.5787195153461
316.364977977119;45.789576454335
316.386584989851;45.948538880699
316.408192002584;46.0502763203352
316.429799015316;46.1050930201087
316.451406028048;46.1256020281832
316.47301304078;46.1173626377826
316.494620053512;46.0836862800173
316.516227066245;46.0254720850684
316.537834078977;45.9429798040433
316.559441091709;45.8409771878375
316.581048104441;45.7263192400407
316.602655117173;45.6024301762477
316.624262129906;45.4755325064229
316.645869142638;45.3515909536116
316.66747615537;45.2320954239159
316.689083168102;45.1186880576007
316.710690180835;45.0157789497978
316.732297193567;44.9247694449857
316.753904206299;44.8378402440153
316.775511219031;44.7587775729638
316.797118231763;44.6907630393723
316.818725244496;44.6286570199354
316.840332257228;44.5698120277048
316.86193926996;44.5195735021184
316.883546282692;44.4739279158395
316.905153295425;44.4209408540352
316.926760308157;44.3561421236446
316.948367320889;44.2743128236289
316.969974333621;44.1739362398687
316.991581346353;44.0596385933362
317.013188359086;43.9342760617477
317.034795371818;43.7950024817532
317.05640238455;43.639707304664
317.078009397282;43.4689703430255
317.099616410015;43.2879651936797
317.121223422747;43.0980751830856
317.142830435479;42.898658856903
317.164437448211;42.693238788236
317.186044460943;42.4888556201188
317.207651473676;42.2720435814126
317.229258486408;42.0391101218449
317.25086549914;41.8023644528335
317.272472511872;41.5548328872437
317.294079524605;41.2950720503346
317.315686537337;41.0397868600016
317.337293550069;40.7911384518795
317.358900562801;40.532892662893
317.380507575533;40.2614808647861
317.402114588266;39.9910365953234
317.423721600998;39.73778630946
317.44532861373;39.5166580698299
317.466935626462;39.3498065796389
317.488542639194;39.2215911560467
317.510149651927;39.116955562111
317.531756664659;39.0283634476584
317.553363677391;38.9590741859644
317.574970690123;38.9309811761684
317.596577702856;38.9521214740126
317.618184715588;39.0154691321654
317.63979172832;39.1212178313893
317.661398741052;39.2707591063105
317.683005753784;39.4726898065422
317.704612766517;39.7296326871157
317.726219779249;40.0249191514518
317.747826791981;40.35228805782
317.769433804713;40.7297909862517
317.791040817445;41.1645482709795
317.812647830178;41.6160537982888
317.83425484291;42.0618780085556
317.855861855642;42.4979230058288
317.877468868374;42.9113628651693
317.899075881107;43.2781327063559
317.920682893839;43.5885967632324
317.942289906571;43.8562985856869
317.963896919303;44.0959720653428
317.985503932036;44.300011407956
318.007110944768;44.4498191732836
318.0287179575;44.5453512129233
318.050324970232;44.599556515166
318.071931982964;44.6214134896228
318.093538995697;44.6152242475939
318.115146008429;44.5786656678542
318.136753021161;44.5068097318287
318.158360033893;44.4081283886814
318.179967046625;44.3107102469139
318.201574059358;44.2240182380476
318.22318107209;44.150539983378
318.244788084822;44.1028257963904
318.266395097554;44.0926162839648
318.288002110287;44.1135895651005
318.309609123019;44.1576991005252
318.331216135751;44.2311631251468
318.352823148483;44.3385802208653
318.374430161215;44.469920381405
318.396037173948;44.6123930336172
318.41764418668;44.7579863609937
318.439251199412;44.8951113914799
318.460858212144;45.0036814616007
318.482465224877;45.0772540524091
318.504072237609;45.1171145748522
318.525679250341;45.1194596003024
318.547286263073;45.0796223786359
318.568893275805;44.9931120134191
318.590500288538;44.8562804144985
318.61210730127;44.6829325309333
318.633714314002;44.4837109994432
318.655321326734;44.2524529826178
318.676928339466;43.9861512928501
318.698535352199;43.6945295868326
318.720142364931;43.4122238726107
318.741749377663;43.1570829913281
318.763356390395;42.9217242858056
318.784963403128;42.697996589979
318.80657041586;42.4869611952881
318.828177428592;42.2937893105088
318.849784441324;42.1210542866037
318.871391454056;41.9649103535112
318.892998466789;41.8239719270464
318.914605479521;41.7005665546366
318.936212492253;41.5926471241215
318.957819504985;41.496766171459
318.979426517718;41.410093945642
319.00103353045;41.3268237436717
319.022640543182;41.2411768193035
319.044247555914;41.1537912320757
319.065854568646;41.0771263538092
319.087461581379;41.023902049054
319.109068594111;40.9828799688349
319.130675606843;40.9458378132767
319.152282619575;40.9182992657433
319.173889632308;40.9083440212072
319.19549664504;40.9136521557523
319.217103657772;40.9266681573236
319.238710670504;40.9309457598147
319.260317683236;40.9186899925172
319.281924695969;40.8926001021063
319.303531708701;40.8543094055626
319.325138721433;40.8097167546557
319.346745734165;40.7541632725443
319.368352746897;40.6789179913901
319.38995975963;40.5802833452576
319.411566772362;40.4724330841085
319.433173785094;40.3753337620464
319.454780797826;40.302841687662
319.476387810559;40.2625822637116
319.497994823291;40.2502348388286
319.519601836023;40.2627244723345
319.541208848755;40.2935198783588
319.562815861487;40.3329193470487
319.58442287422;40.3846752292405
319.606029886952;40.4590690580755
319.627636899684;40.5440918992021
319.649243912416;40.6287963387818
319.670850925149;40.7095350842423
319.692457937881;40.784051501568
319.714064950613;40.8476884591278
319.735671963345;40.8850442640756
319.757278976077;40.8972507058778
319.77888598881;40.8899462846692
319.800493001542;40.8605505959446
319.822100014274;40.8029347219258
319.843707027006;40.711541134201
319.865314039739;40.5917468599282
319.886921052471;40.4496730983653
319.908528065203;40.285952593736
319.930135077935;40.0967597243313
319.951742090667;39.8829509114868
319.9733491034;39.6618393287578
319.994956116132;39.4429616322432
320.016563128864;39.2269008774829
320.038170141596;39.0202681834478
320.059777154328;38.8204018752336
320.081384167061;38.6279340821868
320.102991179793;38.4483259969258
320.124598192525;38.2885116419421
320.146205205257;38.1444636277389
320.16781221799;38.0125220834612
320.189419230722;37.8896028249066
320.211026243454;37.7655582104809
320.232633256186;37.6318896580814
320.254240268918;37.4890408278886
320.275847281651;37.3386358204098
320.297454294383;37.1785276851671
320.319061307115;37.0025616529562
320.340668319847;36.8055890943467
320.36227533258;36.590849742584
320.383882345312;36.3608614101903
320.405489358044;36.1130073686665
320.427096370776;35.8439901375697
320.448703383508;35.555205697565
320.470310396241;35.2705107740758
320.491917408973;35.0296218047158
320.513524421705;34.8253426797415
320.535131434437;34.6455953556767
320.556738447169;34.484878570641
320.578345459902;34.3387587316955
320.599952472634;34.207071530703
320.621559485366;34.09551207415
320.643166498098;34.00992769109
320.664773510831;33.9500791105669
320.686380523563;33.908975307119
320.707987536295;33.884098153458
320.729594549027;33.8743340627274
320.75120156176;33.8747493458319
320.772808574492;33.8758103859112
320.794415587224;33.8761495177489
320.816022599956;33.8806185909401
320.837629612688;33.8908552229409
320.859236625421;33.913454560175
320.880843638153;33.9442033824179
320.902450650885;33.9795759791087
320.924057663617;34.027473591972
320.945664676349;34.1055908399199
320.967271689082;34.2169204843723
320.988878701814;34.3442570722167
321.010485714546;34.4825362429886
321.032092727278;34.6357868310917
321.053699740011;34.8025012878322
321.075306752743;34.9796743818018
321.096913765475;35.1707099810011
321.118520778207;35.3814154931172
321.140127790939;35.6112163087192
321.161734803672;35.8495213684253
321.183341816404;36.085553855416
321.204948829136;36.3136567849154
321.226555841868;36.5280507139149
321.2481628546;36.7233732251216
321.269769867333;36.9023870243565
321.291376880065;37.0671148835411
321.312983892797;37.208299545376
321.334590905529;37.315606380215
321.356197918262;37.3853739016347
321.377804930994;37.4325241237792
321.399411943726;37.4788498936232
321.421018956458;37.5248752403191
321.44262596919;37.5617845839865
321.464232981923;37.5830214640357
321.485839994655;37.5873448561271
321.507447007387;37.57573463794
321.529054020119;37.5656589873478
321.550661032852;37.5689321525512
321.572268045584;37.5647168802427
321.593875058316;37.5486315159896
321.615482071048;37.521275606398
321.63708908378;37.4858494037372
321.658696096513;37.4482619027018
321.680303109245;37.411878588749
321.701910121977;37.3828748109631
321.723517134709;37.3766084558916
321.745124147442;37.4043542855637
321.766731160174;37.4502998568289
321.788338172906;37.4850254793609
321.809945185638;37.5015225931603
321.83155219837;37.4958058734675
321.853159211103;37.4557506992734
321.874766223835;37.3721013930153
321.896373236567;37.246342540071
321.917980249299;37.0777312172748
321.939587262032;36.8788127839568
321.961194274764;36.6552375432817
321.982801287496;36.4068440419144
322.004408300228;36.1360859578463
322.02601531296;35.8593662658957
322.047622325693;35.5990561971106
322.069229338425;35.3751638836617
322.090836351157;35.1932740871772
322.112443363889;35.055226886679
322.134050376621;34.9596801254212
322.155657389354;34.8985358975568
322.177264402086;34.859952460219
322.198871414818;34.8348846507029
322.22047842755;34.8117774713736
322.242085440283;34.783298174211
322.263692453015;34.7496580323612
322.285299465747;34.7110140974332
322.306906478479;34.6606483487467
322.328513491211;34.589928774441
322.350120503944;34.4967461272494
322.371727516676;34.3922858892541
322.393334529408;34.2888824218578
322.41494154214;34.1891146891211
322.436548554873;34.0930441845905
322.458155567605;34.0106665720789
322.479762580337;33.9423347392697
322.501369593069;33.8819055818089
322.522976605801;33.83304842075
322.544583618534;33.8035503141696
322.566190631266;33.7928084551959
322.587797643998;33.7923205476304
322.60940465673;33.7903741779155
322.631011669463;33.784749188047
322.652618682195;33.7723631027496
322.674225694927;33.7532209286132
322.695832707659;33.7182321164254
322.717439720391;33.6599279328381
322.739046733124;33.5796793716198
322.760653745856;33.4748706727167
322.782260758588;33.3444271000362
322.80386777132;33.1883334640089
322.825474784052;33.0130992809837
322.847081796785;32.8355337243232
322.868688809517;32.6682314363265
322.890295822249;32.5184258572674
322.911902834981;32.3957890998577
322.933509847714;32.3172154699875
322.955116860446;32.3004789021146
322.976723873178;32.3432933246104
322.99833088591;32.4365435389747
323.019937898642;32.5789447825035
323.041544911375;32.7702677561395
323.063151924107;32.997468940852
323.084758936839;33.2298941608739
323.106365949571;33.4388244532997
323.127972962304;33.6147379279796
323.149579975036;33.758077268618
323.171186987768;33.863513352128
323.1927940005;33.9292804878533
323.214401013232;33.9523944394282
323.236008025965;33.9330267879291
323.257615038697;33.8706541925941
323.279222051429;33.7822153277931
323.300829064161;33.6967621198367
323.322436076894;33.6149894612519
323.344043089626;33.5362976385797
323.365650102358;33.471869016216
323.38725711509;33.4358679492853
323.408864127822;33.4311028818987
323.430471140555;33.4515828836249
323.452078153287;33.4981641934678
323.473685166019;33.5706551547427
323.495292178751;33.6553877949156
323.516899191483;33.7312640257864
323.538506204216;33.7947481314184
323.560113216948;33.8453005925678
323.58172022968;33.8786518494066
323.603327242412;33.8858099969077
323.624934255145;33.8596864754741
323.646541267877;33.8086817661323
323.668148280609;33.7451296364616
323.689755293341;33.6686988094449
323.711362306073;33.576202243314
323.732969318806;33.4681296203545
323.754576331538;33.3516072610995
323.77618334427;33.2340370508472
323.797790357002;33.1147990571916
323.819397369735;32.9956240227802
323.841004382467;32.8784410596369
323.862611395199;32.758744227414
323.884218407931;32.6381357386587
323.905825420663;32.5088413614496
323.927432433396;32.3635490641418
323.949039446128;32.1989648477788
323.97064645886;32.015871464052
323.992253471592;31.8151751354518
324.013860484324;31.5957658838153
324.035467497057;31.3511179575168
324.057074509789;31.0753464899803
324.078681522521;30.7677519015478
324.100288535253;30.4338775696457
324.121895547986;30.0899105580966
324.143502560718;29.7466913234938
324.16510957345;29.4052411670484
324.186716586182;29.0747757078157
324.208323598914;28.7707947407302
324.229930611647;28.5001988680989
324.251537624379;28.2895583112918
324.273144637111;28.1594996069902
324.294751649843;28.1020948365806
324.316358662576;28.1082163093684
324.337965675308;28.1707955761793
324.35957268804;28.2850177547927
324.381179700772;28.4486988203578
324.402786713504;28.6586585726765
324.424393726237;28.8989543558808
324.446000738969;29.1524346396944
324.467607751701;29.4080102638955
324.489214764433;29.6550670412321
324.510821777166;29.8809455128497
324.532428789898;30.0811800747269
324.55403580263;30.2535442117634
324.575642815362;30.3996254009572
324.597249828094;30.5194215072955
324.618856840827;30.6097366406424
324.640463853559;30.6596267761416
324.662070866291;30.6670163328995
324.683677879023;30.6384431982572
324.705284891755;30.5726733595205
324.726891904488;30.4644035365005
324.74849891722;30.3210550528103
324.770105929952;30.1582021486525
324.791712942684;29.9867179670551
