Name;BF_ESR_01_360s_Z_gon_180dg_result

Recipe
Accumulations;5;Number of accumulations
RetryCount;0;Number of retries on error
AbortOnError;True;Abort on error
EnableQFactorMeasurement;False;Enable/Disable q-Factor measurement
Bfrom;313;B from
Bto;363;B to
SweepTime;60;Sweep time
Modulation;0.2;Modulation
ModulationFreq;100;Modulation
BHoldEnabled;False;B hold enabled
BHold;0;B hold
MicrowavePower;2;Microwave power
MarkerEnabled;False;
MarkerStartField;0;
MarkerEndField;0;
Mode;;
KineticGFact;0;
KineticTotalTransientTime;0;
KineticTimeResolution;0;
TempFrom;5;
TempUseSlope;False;
TempTo;5;
TempdT;1;
TempSetupTime;0;
GonFrom;0;
GonTo;180;
GonSteps;20;
XRayEnabled;False;
XRayTime;3;
XRayVoltage;40;
XRayCurrent;0.5;
UVEnabled;False;
UVIntensity;0;
UVTime;0;
UVLeadTime;0;
UVWavelength;0;
PowSweepFrom;1;
PowSweepTo;5;
PowSweepSteps;5;
AmpModSweepFrom;0;
AmpModSweepTo;1;
AmpModSweepSteps;10;
ExtTriggerEnabled;False;
ExtTrigLeadTime;0;
ExtTrigOnTime;5;

Meas
BField [mT];MW_Absorption []
313.02414642334;65.9025729788796
313.045768816894;65.7011654647883
313.067391210449;65.4448922688403
313.089013604003;65.1577514247266
313.110635997558;64.8513511536214
313.132258391112;64.5213145154417
313.153880784666;64.1807805820405
313.175503178221;63.85287558544
313.197125571775;63.5430113151125
313.21874796533;63.2714737267587
313.240370358884;63.0554572677774
313.261992752439;62.9109011394419
313.283615145993;62.8389104356519
313.305237539547;62.8291913217062
313.326859933102;62.8715423142515
313.348482326656;62.9500975690231
313.370104720211;63.0514652248865
313.391727113765;63.1657972210243
313.413349507319;63.2831167317346
313.434971900874;63.3914019138034
313.456594294428;63.4768909125518
313.478216687983;63.5309331076024
313.499839081537;63.5585712626868
313.521461475092;63.5686224388184
313.543083868646;63.5719281379395
313.5647062622;63.5807120240876
313.586328655755;63.5982093465247
313.607951049309;63.6192506092852
313.629573442864;63.6473675948946
313.651195836418;63.696657542789
313.672818229973;63.7688635033919
313.694440623527;63.8480361243007
313.716063017081;63.9274842869042
313.737685410636;64.0100910479472
313.75930780419;64.0919050409361
313.780930197745;64.1656734635482
313.802552591299;64.2340480571885
313.824174984854;64.2967060195288
313.845797378408;64.3474939410157
313.867419771962;64.3955117772026
313.889042165517;64.4581543026083
313.910664559071;64.5451132577695
313.932286952626;64.6542915846023
313.95390934618;64.7729115796117
313.975531739734;64.895760654826
313.997154133289;65.0140105187338
314.018776526843;65.1175213810774
314.040398920398;65.1980287141783
314.062021313952;65.2398209422908
314.083643707507;65.2215477713032
314.105266101061;65.127333289308
314.126888494615;64.9408733409622
314.14851088817;64.6643418570984
314.170133281724;64.3128082393749
314.191755675279;63.8859228036557
314.213378068833;63.3810619534681
314.235000462388;62.8310074993037
314.256622855942;62.2860129596558
314.278245249496;61.7669459539333
314.299867643051;61.2780986214761
314.321490036605;60.8324155268037
314.34311243016;60.4359686255662
314.364734823714;60.0915269857246
314.386357217269;59.8070781828652
314.407979610823;59.5895152816108
314.429602004377;59.4393423055767
314.451224397932;59.3514520308705
314.472846791486;59.3060333401484
314.494469185041;59.2866096639138
314.516091578595;59.2887721078134
314.53771397215;59.319542013647
314.559336365704;59.3802594996131
314.580958759258;59.4670748144301
314.602581152813;59.5794066265906
314.624203546367;59.7206320821926
314.645825939922;59.8993516326803
314.667448333476;60.1137444385998
314.68907072703;60.3613168372745
314.710693120585;60.6441408269399
314.732315514139;60.9546997937645
314.753937907694;61.2914886124015
314.775560301248;61.6558313750627
314.797182694803;62.0451522741848
314.818805088357;62.4522666005991
314.840427481911;62.8627484445215
314.862049875466;63.2544602136579
314.88367226902;63.6195660702265
314.905294662575;63.9588425614874
314.926917056129;64.2493026655701
314.948539449684;64.4797482553043
314.970161843238;64.6462262566823
314.991784236792;64.7399833085466
315.013406630347;64.7726513177792
315.035029023901;64.7607906579305
315.056651417456;64.7155563908868
315.07827381101;64.6411045948003
315.099896204565;64.5442673004401
315.121518598119;64.4383327469998
315.143140991673;64.3313038794086
315.164763385228;64.2235641890378
315.186385778782;64.1208281951022
315.208008172337;64.0364985473881
315.229630565891;63.9713458383051
315.251252959445;63.9209025842281
315.272875353;63.8801470184902
315.294497746554;63.8473429291025
315.316120140109;63.8220395931
315.337742533663;63.8019043722376
315.359364927218;63.7841074174893
315.380987320772;63.7647417619679
315.402609714326;63.7371746758416
315.424232107881;63.6933681428051
315.445854501435;63.6278719579416
315.46747689499;63.5397454978071
315.489099288544;63.4249021036378
315.510721682099;63.2731185832493
315.532344075653;63.0803884231861
315.553966469207;62.8513831702638
315.575588862762;62.5968449470374
315.597211256316;62.3225462644184
315.618833649871;62.0239177831819
315.640456043425;61.6933585379756
315.66207843698;61.3296273179386
315.683700830534;60.9292113098128
315.705323224088;60.4949605912735
315.726945617643;60.0507605504515
315.748568011197;59.6231017305816
315.770190404752;59.2294750899254
315.791812798306;58.88690608512
315.81343519186;58.5976741814466
315.835057585415;58.3646384411644
315.856679978969;58.1922831878462
315.878302372524;58.0866826691782
315.899924766078;58.044724101503
315.921547159633;58.0581378853597
315.943169553187;58.1169208023626
315.964791946741;58.2061716036325
315.986414340296;58.3196498862096
316.00803673385;58.4374656072567
316.029659127405;58.5394788311037
316.051281520959;58.6229045655496
316.072903914514;58.6906205745953
316.094526308068;58.7418538045646
316.116148701622;58.7670060158272
316.137771095177;58.7641080369836
316.159393488731;58.745553184373
316.181015882286;58.7183661209291
316.20263827584;58.6889042277339
316.224260669394;58.6657402484998
316.245883062949;58.6642738756389
316.267505456503;58.7039511797593
316.289127850058;58.7766324883014
316.310750243612;58.8577785791468
316.332372637167;58.9484078520449
316.353995030721;59.0583794703625
316.375617424275;59.1929163087991
316.39723981783;59.34990410911
316.418862211384;59.5274613387882
316.440484604939;59.7234390670571
316.462106998493;59.9301010694189
316.483729392048;60.1484475810238
316.505351785602;60.3899734684471
316.526974179156;60.6409048265874
316.548596572711;60.8833495144443
316.570218966265;61.1195282082456
316.59184135982;61.3459178588485
316.613463753374;61.5384445119819
316.635086146929;61.6835387718155
316.656708540483;61.7818528459636
316.678330934037;61.8350904555868
316.699953327592;61.8455576499559
316.721575721146;61.8159390583957
316.743198114701;61.7460390396128
316.764820508255;61.6327549120168
316.786442901809;61.4815328714656
316.808065295364;61.3030240853611
316.829687688918;61.1004480408122
316.851310082473;60.8713918411636
316.872932476027;60.6393580627015
316.894554869582;60.4182738242549
316.916177263136;60.2074458029871
316.93779965669;60.0074848019108
316.959422050245;59.8251698106241
316.981044443799;59.6714565268944
317.002666837354;59.5566847319074
317.024289230908;59.4828526836903
317.045911624463;59.4498854278648
317.067534018017;59.4681746079464
317.089156411571;59.539842009942
317.110778805126;59.6430348149134
317.13240119868;59.762869613079
317.154023592235;59.8971566751578
317.175645985789;60.0457474227854
317.197268379344;60.202218426683
317.218890772898;60.3527028237657
317.240513166452;60.4829955138717
317.262135560007;60.5840060723087
317.283757953561;60.6588216572839
317.305380347116;60.7122175237152
317.32700274067;60.7486395876984
317.348625134225;60.7703356430918
317.370247527779;60.7809471609539
317.391869921333;60.7864753425496
317.413492314888;60.7862066939629
317.435114708442;60.7808953075778
317.456737101997;60.7772258283362
317.478359495551;60.7721081477383
317.499981889105;60.7650206842965
317.52160428266;60.7595457405872
317.543226676214;60.7532086862372
317.564849069769;60.7378986934267
317.586471463323;60.7099032509411
317.608093856878;60.6722478743628
317.629716250432;60.6386892048503
317.651338643986;60.6101967929536
317.672961037541;60.5819367154911
317.694583431095;60.5559757474396
317.71620582465;60.537039555701
317.737828218204;60.531649686826
317.759450611759;60.531921495915
317.781073005313;60.537387032994
317.802695398867;60.5538283629133
317.824317792422;60.5839979412411
317.845940185976;60.6227197429338
317.867562579531;60.6559346922699
317.889184973085;60.6694643392815
317.91080736664;60.6621280955677
317.932429760194;60.6334680779329
317.954052153748;60.5855738757645
317.975674547303;60.5136110831294
317.997296940857;60.4059222794627
318.018919334412;60.2537120283188
318.040541727966;60.0557186989134
318.06216412152;59.8133008771657
318.083786515075;59.5303371974083
318.105408908629;59.2064058199689
318.127031302184;58.839029619686
318.148653695738;58.4328284393477
318.170276089293;57.9976579313123
318.191898482847;57.552532211104
318.213520876401;57.1336845260177
318.235143269956;56.7734783248554
318.25676566351;56.4695136463611
318.278388057065;56.2071234223582
318.300010450619;55.985898761502
318.321632844174;55.8255371156781
318.343255237728;55.7417798244067
318.364877631282;55.7307383084005
318.386500024837;55.7809043567046
318.408122418391;55.8826637528339
318.429744811946;56.0324549596325
318.4513672055;56.222542791401
318.472989599055;56.4379299974956
318.494611992609;56.6640676590468
318.516234386163;56.8980365037979
318.537856779718;57.1301876489666
318.559479173272;57.3434649646046
318.581101566827;57.5287304078856
318.602723960381;57.6814359240075
318.624346353935;57.7942279957118
318.64596874749;57.865408688693
318.667591141044;57.8882789987909
318.689213534599;57.8557459305857
318.710835928153;57.772544986372
318.732458321708;57.6499153178228
318.754080715262;57.490578525624
318.775703108816;57.2861526886896
318.797325502371;57.0314544556662
318.818947895925;56.7466431634752
318.84057028948;56.4738426063516
318.862192683034;56.2281473382926
318.883815076589;56.0058869933964
318.905437470143;55.8084166452934
318.927059863697;55.6366361058662
318.948682257252;55.483570597428
318.970304650806;55.3527431638354
318.991927044361;55.2664890284772
319.013549437915;55.2210296573656
319.03517183147;55.2107139628089
319.056794225024;55.2320795353019
319.078416618578;55.2806457295731
319.100039012133;55.3658225300575
319.121661405687;55.4757039788612
319.143283799242;55.5954579401484
319.164906192796;55.7283639592852
319.186528586351;55.8801203474108
319.208150979905;56.0575054913756
319.229773373459;56.2583900004653
319.251395767014;56.4674709319868
319.273018160568;56.6781275247202
319.294640554123;56.8981931310719
319.316262947677;57.1287819586809
319.337885341231;57.3626220781747
319.359507734786;57.581638569935
319.38113012834;57.7642810348374
319.402752521895;57.9013646350301
319.424374915449;57.9921523676477
319.445997309004;58.034725486972
319.467619702558;58.0347927887312
319.489242096112;57.9960049658387
319.510864489667;57.9195270689831
319.532486883221;57.7959010254208
319.554109276776;57.619931927501
319.57573167033;57.4296482876972
319.597354063885;57.2430044363595
319.618976457439;57.0511025282001
319.640598850993;56.8591756579981
319.662221244548;56.6764955952846
319.683843638102;56.5060374548515
319.705466031657;56.3468188971055
319.727088425211;56.1941923684324
319.748710818766;56.0376872404543
319.77033321232;55.8845358512813
319.791955605874;55.7481448594032
319.813577999429;55.6258641511629
319.835200392983;55.5072085231492
319.856822786538;55.3911510807628
319.878445180092;55.2799623809454
319.900067573646;55.1718997583429
319.921689967201;55.0719522746211
319.943312360755;54.9951138040156
319.96493475431;54.9499015703974
319.986557147864;54.9322743089148
320.008179541419;54.9386955597649
320.029801934973;54.9702008715067
320.051424328527;55.0294427826636
320.073046722082;55.113274526426
320.094669115636;55.2201467065213
320.116291509191;55.3533178131085
320.137913902745;55.5089230337542
320.1595362963;55.6781639005708
320.181158689854;55.8475812568433
320.202781083408;56.0094090043011
320.224403476963;56.1596514190331
320.246025870517;56.2949399779678
320.267648264072;56.4096879120334
320.289270657626;56.5020107409232
320.310893051181;56.5675916503483
320.332515444735;56.6019951521995
320.354137838289;56.60264769163
320.375760231844;56.5807220635382
320.397382625398;56.5467580697358
320.419005018953;56.5043904155803
320.440627412507;56.4578406609861
320.462249806061;56.4100570117521
320.483872199616;56.370243363196
320.50549459317;56.3491822402019
320.527116986725;56.3504792223228
320.548739380279;56.3784006946938
320.570361773834;56.4385411418581
320.591984167388;56.5250920736353
320.613606560942;56.6249154520687
320.635228954497;56.730592059773
320.656851348051;56.8410787776151
320.678473741606;56.9577883832144
320.70009613516;57.0765669800924
320.721718528715;57.1954620258633
320.743340922269;57.3091118073202
320.764963315823;57.4052753114254
320.786585709378;57.4794912282445
320.808208102932;57.5356827809415
320.829830496487;57.5836754753139
320.851452890041;57.6364803988725
320.873075283596;57.6967122624388
320.89469767715;57.7477288981369
320.916320070704;57.7778032865025
320.937942464259;57.7873042479435
320.959564857813;57.7800500508597
320.981187251368;57.7590654453976
321.002809644922;57.7275716220553
321.024432038477;57.6811986700289
321.046054432031;57.6163050987731
321.067676825585;57.5333165685714
321.08929921914;57.4337952144974
321.110921612694;57.3171090966579
321.132544006249;57.1776289912288
321.154166399803;57.0054457270711
321.175788793357;56.798513013806
321.197411186912;56.5624256527166
321.219033580466;56.3033598976282
321.240655974021;56.0175266943979
321.262278367575;55.7019105792339
321.28390076113;55.3568294558416
321.305523154684;54.9920370242341
321.327145548238;54.6305876678005
321.348767941793;54.2755921901217
321.370390335347;53.9218800581815
321.392012728902;53.5760070877327
321.413635122456;53.2504851532609
321.43525751601;52.9588166647014
321.456879909565;52.7067959780561
321.478502303119;52.4939772840534
321.500124696674;52.3159802074479
321.521747090228;52.1712972727417
321.543369483783;52.0614347108578
321.564991877337;51.9922294395429
321.586614270891;51.9778027568062
321.608236664446;52.0257206609827
321.629859058;52.1213831904
321.651481451555;52.2461948235723
321.673103845109;52.3880731314133
321.694726238664;52.5430466164494
321.716348632218;52.7099754062971
321.737971025772;52.8884006093615
321.759593419327;53.0684450222871
321.781215812881;53.2268138195817
321.802838206436;53.3618496526874
321.82446059999;53.4763080969545
321.846082993545;53.563882588166
321.867705387099;53.6222688442929
321.889327780653;53.6544197175233
321.910950174208;53.6641598845505
321.932572567762;53.6537781580725
321.954194961317;53.6270342819716
321.975817354871;53.5960754935425
321.997439748426;53.5748494494162
322.01906214198;53.5687444503332
322.040684535534;53.5793481770085
322.062306929089;53.6082939343549
322.083929322643;53.6584530674635
322.105551716198;53.7378880589857
322.127174109752;53.8542791942611
322.148796503306;54.0063456284441
322.170418896861;54.1826308363716
322.192041290415;54.3709540482488
322.21366368397;54.55933518443
322.235286077524;54.7305164916624
322.256908471079;54.874638207475
322.278530864633;54.9972250371651
322.300153258187;55.1074911672012
322.321775651742;55.2088123273071
322.343398045296;55.2955923619065
322.365020438851;55.3558465112726
322.386642832405;55.391688559978
322.40826522596;55.4109735165359
322.429887619514;55.4171624795319
322.451510013068;55.4062068959838
322.473132406623;55.3707661300613
322.494754800177;55.3077931730012
322.516377193732;55.2177881816832
322.537999587286;55.0977779698142
322.559621980841;54.940423196271
322.581244374395;54.7456094630922
322.602866767949;54.5202668211272
322.624489161504;54.2673793466388
322.646111555058;53.9883935563597
322.667733948613;53.6983914097297
322.689356342167;53.4085863422354
322.710978735721;53.116068212906
322.732601129276;52.8165608514054
322.75422352283;52.5046761214212
322.775845916385;52.1783493931793
322.797468309939;51.845966209348
322.819090703494;51.516606785949
322.840713097048;51.1975499298157
322.862335490602;50.8929859232369
322.883957884157;50.6078424908312
322.905580277711;50.3446188281579
322.927202671266;50.105743515069
322.94882506482;49.8988338940747
322.970447458375;49.7312554814845
322.992069851929;49.60524035508
323.013692245483;49.5188913603228
323.035314639038;49.4709260469975
323.056937032592;49.4547384277491
323.078559426147;49.4634381661375
323.100181819701;49.4924760601942
323.121804213256;49.5389959086213
323.14342660681;49.5994440569606
323.165049000364;49.6651937643749
323.186671393919;49.7245086296616
323.208293787473;49.769085538334
323.229916181028;49.7928149063181
323.251538574582;49.7893303400596
323.273160968136;49.7555288385435
323.294783361691;49.6903447741449
323.316405755245;49.599088266385
323.3380281488;49.4873384390493
323.359650542354;49.3555875634153
323.381272935909;49.2021840645487
323.402895329463;49.0339387800506
323.424517723017;48.8590691656499
323.446140116572;48.6754529181877
323.467762510126;48.4747358137674
323.489384903681;48.2494064126052
323.511007297235;48.0045371417264
323.53262969079;47.7462959479216
323.554252084344;47.4651444466403
323.575874477898;47.1494845054819
323.597496871453;46.8043939926309
323.619119265007;46.4382594859439
323.640741658562;46.0540883417796
323.662364052116;45.6542068704658
323.683986445671;45.2601980391094
323.705608839225;44.9052633355737
323.727231232779;44.596176276478
323.748853626334;44.3302460050566
323.770476019888;44.125027675109
323.792098413443;44.0083964762117
323.813720806997;43.9906217488159
323.835343200552;44.0601562842241
323.856965594106;44.2158483580716
323.87858798766;44.4624347946857
323.900210381215;44.7938730361418
323.921832774769;45.1826634590851
323.943455168324;45.6119954916444
323.965077561878;46.0809196974765
323.986699955432;46.5924662774357
324.008322348987;47.135580073081
324.029944742541;47.6621406712093
324.051567136096;48.1465115854283
324.07318952965;48.5983278212799
324.094811923205;49.0282547759
324.116434316759;49.4290666336456
324.138056710313;49.7968408554314
324.159679103868;50.1277526697418
324.181301497422;50.4158143702703
324.202923890977;50.6549462569057
324.224546284531;50.8311137457696
324.246168678086;50.9411244368393
324.26779107164;50.9860176833769
324.289413465194;50.9706095732099
324.311035858749;50.9047575493403
324.332658252303;50.7925887648442
324.354280645858;50.6308772371284
324.375903039412;50.4141438682957
324.397525432967;50.1454914218546
324.419147826521;49.8516830722243
324.440770220075;49.5292261830503
324.46239261363;49.1806852104021
324.484015007184;48.8313763383796
324.505637400739;48.493806162277
324.527259794293;48.1602230407045
324.548882187847;47.8201638715948
324.570504581402;47.4706267500089
324.592126974956;47.1171354408915
324.613749368511;46.7451366026087
324.635371762065;46.3311809630577
324.65699415562;45.8795555722427
324.678616549174;45.4160405206547
324.700238942728;44.9403335953779
324.721861336283;44.459452556116
324.743483729837;43.9802310777007
324.765106123392;43.4984698035368
324.786728516946;42.9997426747818
