Name;BF_ESR_01_360s_Y_gon_120dg_result

Recipe
Accumulations;5;Number of accumulations
RetryCount;0;Number of retries on error
AbortOnError;True;Abort on error
EnableQFactorMeasurement;False;Enable/Disable q-Factor measurement
Bfrom;313;B from
Bto;363;B to
SweepTime;60;Sweep time
Modulation;0.2;Modulation
ModulationFreq;100;Modulation
BHoldEnabled;False;B hold enabled
BHold;0;B hold
MicrowavePower;2;Microwave power
MarkerEnabled;False;
MarkerStartField;0;
MarkerEndField;0;
Mode;;
KineticGFact;0;
KineticTotalTransientTime;0;
KineticTimeResolution;0;
TempFrom;5;
TempUseSlope;False;
TempTo;5;
TempdT;1;
TempSetupTime;0;
GonFrom;0;
GonTo;180;
GonSteps;20;
XRayEnabled;False;
XRayTime;3;
XRayVoltage;40;
XRayCurrent;0.5;
UVEnabled;False;
UVIntensity;0;
UVTime;0;
UVLeadTime;0;
UVWavelength;0;
PowSweepFrom;1;
PowSweepTo;5;
PowSweepSteps;5;
AmpModSweepFrom;0;
AmpModSweepTo;1;
AmpModSweepSteps;10;
ExtTriggerEnabled;False;
ExtTrigLeadTime;0;
ExtTrigOnTime;5;

Meas
BField [mT];MW_Absorption []
313.015437850952;59.1322922942222
313.037058080478;58.6243304690486
313.058678310003;58.0173005462452
313.080298539529;57.3271368153616
313.101918769054;56.5652464649341
313.12353899858;55.7814698496007
313.145159228105;55.02564083678
313.16677945763;54.2950961753045
313.188399687156;53.5932368834253
313.210019916681;52.9518081594627
313.231640146207;52.3925626701882
313.253260375732;51.9245511531697
313.274880605258;51.5527346388635
313.296500834783;51.2751287182322
313.318121064309;51.0872305851495
313.339741293834;50.9858976000781
313.36136152336;50.9635167707507
313.382981752885;51.0304389885866
313.404601982411;51.1801604301387
313.426222211936;51.3990358505096
313.447842441461;51.6765148061995
313.469462670987;51.9952034252888
313.491082900512;52.3477378866148
313.512703130038;52.7382122817764
313.534323359563;53.1593605624899
313.555943589089;53.5995561102638
313.577563818614;54.0534446798285
313.59918404814;54.5169631050357
313.620804277665;54.9828534000319
313.642424507191;55.4349097878158
313.664044736716;55.8641023011677
313.685664966242;56.2594118211609
313.707285195767;56.6098160059853
313.728905425293;56.9237929007873
313.750525654818;57.2088070347684
313.772145884343;57.4557267226052
313.793766113869;57.6598573000084
313.815386343394;57.82068625406
313.83700657292;57.9384788882669
313.858626802445;58.0163387731965
313.880247031971;58.0561134974575
313.901867261496;58.0544380930206
313.923487491022;58.0111464778814
313.945107720547;57.9233447944353
313.966727950073;57.7840627787671
313.988348179598;57.5857919890403
314.009968409124;57.3250780710341
314.031588638649;57.0040285445595
314.053208868175;56.6372696375457
314.0748290977;56.2257046005533
314.096449327225;55.7607839217324
314.118069556751;55.253003943488
314.139689786276;54.7210993424198
314.161310015802;54.1853290295243
314.182930245327;53.6641067533516
314.204550474853;53.1615277680221
314.226170704378;52.6739570327135
314.247790933904;52.2056156195715
314.269411163429;51.769150024714
314.291031392955;51.3694063861619
314.31265162248;50.9923233764835
314.334271852006;50.6331156077656
314.355892081531;50.3213383266571
314.377512311056;50.0627834009706
314.399132540582;49.8379605837322
314.420752770107;49.6288347273075
314.442372999633;49.4279393431304
314.463993229158;49.2362600636736
314.485613458684;49.0556037388695
314.507233688209;48.8810709502232
314.528853917735;48.7058753753815
314.55047414726;48.5358044470603
314.572094376786;48.3819389795458
314.593714606311;48.2465687779899
314.615334835837;48.1337474021236
314.636955065362;48.0520809097973
314.658575294888;48.0059586301465
314.680195524413;48.0011487853755
314.701815753938;48.043518334055
314.723435983464;48.1369764821527
314.745056212989;48.2789176350077
314.766676442515;48.462585106166
314.78829667204;48.6662618004434
314.809916901566;48.8679544309937
314.831537131091;49.0586711040222
314.853157360617;49.2295635061105
314.874777590142;49.369017194818
314.896397819668;49.4593551256016
314.918018049193;49.4867150289367
314.939638278719;49.4461518909327
314.961258508244;49.3384433051164
314.98287873777;49.1829521815331
315.004498967295;48.9988351259208
315.02611919682;48.7881809841194
315.047739426346;48.5523921364849
315.069359655871;48.3051888671147
315.090979885397;48.0722714918245
315.112600114922;47.86749863678
315.134220344448;47.6981126508006
315.155840573973;47.5696141129469
315.177460803499;47.4898424971159
315.199081033024;47.4647105962178
315.22070126255;47.4941172665617
315.242321492075;47.575313073776
315.263941721601;47.6954206594266
315.285561951126;47.8412259178453
315.307182180651;48.0064660077003
315.328802410177;48.1840622249546
315.350422639702;48.3731985827161
315.372042869228;48.5728993373713
315.393663098753;48.7705280302078
315.415283328279;48.9482794348332
315.436903557804;49.1026824253198
315.45852378733;49.2370367289671
315.480144016855;49.3561279346344
315.501764246381;49.4633143206795
315.523384475906;49.5630256886469
315.545004705432;49.6463234449034
315.566624934957;49.7039611501842
315.588245164483;49.7432106267062
315.609865394008;49.7722368522511
315.631485623533;49.7890855623822
315.653105853059;49.7927460634445
315.674726082584;49.7786966248453
315.69634631211;49.7407631734321
315.717966541635;49.6723313829961
315.739586771161;49.572334568526
315.761207000686;49.4433229023297
315.782827230212;49.2804311479897
315.804447459737;49.0818765266041
315.826067689263;48.8571565886434
315.847687918788;48.6141599404224
315.869308148314;48.3511209004797
315.890928377839;48.0772863444004
315.912548607365;47.7991445476936
315.93416883689;47.5261790478031
315.955789066415;47.2718726449768
315.977409295941;47.0378029064601
315.999029525466;46.8261926632544
316.020649754992;46.644344507717
316.042269984517;46.4922591247409
316.063890214043;46.3617057401481
316.085510443568;46.2371747973263
316.107130673094;46.0993348578201
316.128750902619;45.9476672491697
316.150371132145;45.7865321459615
316.17199136167;45.5973957715821
316.193611591196;45.3724846286984
316.215231820721;45.1286007689397
316.236852050246;44.8671415952401
316.258472279772;44.5733914977903
316.280092509297;44.2485811116603
316.301712738823;43.8927033021809
316.323332968348;43.4944463873887
316.344953197874;43.0799313081267
316.366573427399;42.7128267214565
316.388193656925;42.3934717451764
316.40981388645;42.09875820137
316.431434115976;41.825217614339
316.453054345501;41.6004868982479
316.474674575027;41.444164468003
316.496294804552;41.3473921412122
316.517915034078;41.3012034289681
316.539535263603;41.3048083510733
316.561155493128;41.3525623531624
316.582775722654;41.4408395857994
316.604395952179;41.5782823407749
316.626016181705;41.7675572255052
316.64763641123;41.969293145029
316.669256640756;42.1655960358015
316.690876870281;42.3701724971067
316.712497099807;42.5965990620166
316.734117329332;42.8491674677069
316.755737558858;43.1204225039027
316.777357788383;43.4062531136161
316.798978017909;43.7126131484874
316.820598247434;44.0269868532765
316.842218476959;44.3420363110836
316.863838706485;44.65168487391
316.88545893601;44.9561024523865
316.907079165536;45.2491612251614
316.928699395061;45.5111257725713
316.950319624587;45.7270572946296
316.971939854112;45.8936613966898
316.993560083638;46.0186884521741
317.015180313163;46.1069372007557
317.036800542689;46.1556537953469
317.058420772214;46.1611442409909
317.08004100174;46.1277732240901
317.101661231265;46.0629480359888
317.123281460791;45.967544037269
317.144901690316;45.8392595799982
317.166521919841;45.6899764589253
317.188142149367;45.5299311385441
317.209762378892;45.3517006642003
317.231382608418;45.1603764189114
317.253002837943;44.9659869242238
317.274623067469;44.7696162615179
317.296243296994;44.5686967883168
317.31786352652;44.3690998134232
317.339483756045;44.1728231451718
317.361103985571;43.9835621946901
317.382724215096;43.7904486516634
317.404344444622;43.5890059323155
317.425964674147;43.3821213879082
317.447584903673;43.174920648512
317.469205133198;42.963923318706
317.490825362723;42.7474804550544
317.512445592249;42.5327765998349
317.534065821774;42.3251544746888
317.5556860513;42.1170323215849
317.577306280825;41.9048746664415
317.598926510351;41.6952166509369
317.620546739876;41.51808146826
317.642166969402;41.3819017373986
317.663787198927;41.2823557521365
317.685407428453;41.2174537993709
317.707027657978;41.1919072626029
317.728647887504;41.2155294614952
317.750268117029;41.2930769355989
317.771888346554;41.4035055607702
317.79350857608;41.5293833084918
317.815128805605;41.6714474068496
317.836749035131;41.8346216488614
317.858369264656;42.0018459043248
317.879989494182;42.1581827092924
317.901609723707;42.2978730059267
317.923229953233;42.4278176173831
317.944850182758;42.5653315531534
317.966470412284;42.6986660965466
317.988090641809;42.7953263589224
318.009710871335;42.8528311960018
318.03133110086;42.8897801624999
318.052951330386;42.9184219526583
318.074571559911;42.9420521525461
318.096191789436;42.9522757628888
318.117812018962;42.94877757379
318.139432248487;42.9369384303777
318.161052478013;42.9085405114777
318.182672707538;42.8519556153478
318.204292937064;42.7642690614341
318.225913166589;42.6436594972893
318.247533396115;42.483659813926
318.26915362564;42.2757110180412
318.290773855166;42.0220422225947
318.312394084691;41.7323049010019
318.334014314217;41.4053672481061
318.355634543742;41.0337044225644
318.377254773268;40.6121464103934
318.398875002793;40.1593540939109
318.420495232318;39.6970397042026
318.442115461844;39.23583923188
318.463735691369;38.7854682451401
318.485355920895;38.3582121786487
318.50697615042;37.9584802325045
318.528596379946;37.5989912620041
318.550216609471;37.2879862219337
318.571836838997;37.0356859425166
318.593457068522;36.8499218181802
318.615077298048;36.7308661095578
318.636697527573;36.6770640211798
318.658317757099;36.6862634602605
318.679937986624;36.749882769906
318.701558216149;36.8499239924581
318.723178445675;36.9672650105357
318.7447986752;37.0971372025771
318.766418904726;37.2387366832249
318.788039134251;37.3835790252448
318.809659363777;37.5199885516755
318.831279593302;37.64992167322
318.852899822828;37.7727725917486
318.874520052353;37.8833049991378
318.896140281879;37.9855322228586
318.917760511404;38.079482720272
318.93938074093;38.1586519663731
318.961000970455;38.2265449732271
318.982621199981;38.3015748835531
319.004241429506;38.3822983702882
319.025861659031;38.4590755034996
319.047481888557;38.5324755730125
319.069102118082;38.6021557162936
319.090722347608;38.6661495046993
319.112342577133;38.7287947100677
319.133962806659;38.7884269746695
319.155583036184;38.837854533781
319.17720326571;38.877603309587
319.198823495235;38.9129268457252
319.220443724761;38.9422030717643
319.242063954286;38.9550323144572
319.263684183812;38.9462444042893
319.285304413337;38.9256327615421
319.306924642863;38.8990621220612
319.328544872388;38.8604418197562
319.350165101913;38.7954801625235
319.371785331439;38.700413400345
319.393405560964;38.5757548829671
319.41502579049;38.4183246797436
319.436646020015;38.2300347604221
319.458266249541;38.0193530386407
319.479886479066;37.7926459770647
319.501506708592;37.5597506109648
319.523126938117;37.3245358177759
319.544747167643;37.0940007419778
319.566367397168;36.8688374365379
319.587987626694;36.6540177336633
319.609607856219;36.4638865676664
319.631228085744;36.3001934383395
319.65284831527;36.1565565512844
319.674468544795;36.0310353834374
319.696088774321;35.9294532397888
319.717709003846;35.8527487651185
319.739329233372;35.7939697097446
319.760949462897;35.7419346539456
319.782569692423;35.6879427342226
319.804189921948;35.6270766416562
319.825810151474;35.5603216420501
319.847430380999;35.4932510350214
319.869050610525;35.4200853213724
319.89067084005;35.3342320124324
319.912291069576;35.2312534621388
319.933911299101;35.1131148722607
319.955531528626;34.9829580472873
319.977151758152;34.8368732713493
319.998771987677;34.6776869826483
320.020392217203;34.5218074304266
320.042012446728;34.376649948156
320.063632676254;34.2423993639158
320.085252905779;34.1158658244879
320.106873135305;33.9936705851876
320.12849336483;33.883024983054
320.150113594356;33.7906956354026
320.171733823881;33.7190151276787
320.193354053407;33.6692999743411
320.214974282932;33.6503743721523
320.236594512457;33.6613528965183
320.258214741983;33.6969631523049
320.279834971508;33.7560497791624
320.301455201034;33.8405590106437
320.323075430559;33.9512615999192
320.344695660085;34.0750966825755
320.36631588961;34.1927653699609
320.387936119136;34.305100312697
320.409556348661;34.4105429016903
320.431176578187;34.4896847976445
320.452796807712;34.5300656075993
320.474417037238;34.5299798559578
320.496037266763;34.4927650678711
320.517657496289;34.4265700021486
320.539277725814;34.3333564286826
320.560897955339;34.2056922959819
320.582518184865;34.0404294761619
320.60413841439;33.8557106588967
320.625758643916;33.6781457424407
320.647378873441;33.5243026631419
320.668999102967;33.3988144590234
320.690619332492;33.2983660949032
320.712239562018;33.2210918191808
320.733859791543;33.1731706405592
320.755480021069;33.1663271638371
320.777100250594;33.2021237727553
320.79872048012;33.2728599808203
320.820340709645;33.3860426260584
320.841960939171;33.5462570640175
320.863581168696;33.736605086856
320.885201398221;33.93467432504
320.906821627747;34.1338395790256
320.928441857272;34.3440310899043
320.950062086798;34.5836875835202
320.971682316323;34.8486903099716
320.993302545849;35.1174870951553
321.014922775374;35.3762614126215
321.0365430049;35.6244736463149
321.058163234425;35.8734871620952
321.079783463951;36.1284687319786
321.101403693476;36.3805582861052
321.123023923002;36.6252723791835
321.144644152527;36.8683643043551
321.166264382052;37.1169284105242
321.187884611578;37.3622380178771
321.209504841103;37.5881358888102
321.231125070629;37.7985612051727
321.252745300154;37.9943404672606
321.27436552968;38.1681262753674
321.295985759205;38.3127328459538
321.317605988731;38.427692852825
321.339226218256;38.5106631660233
321.360846447782;38.5556010376706
321.382466677307;38.5565425122324
321.404086906833;38.513199558575
321.425707136358;38.4261363532658
321.447327365884;38.2932249348188
321.468947595409;38.1237475909247
321.490567824934;37.9415767325445
321.51218805446;37.7641375632738
321.533808283985;37.606387211772
321.555428513511;37.4830365539477
321.577048743036;37.4020928617377
321.598668972562;37.3666671393228
321.620289202087;37.3776036549804
321.641909431613;37.4373418156526
321.663529661138;37.5528711685341
321.685149890664;37.7287513043335
321.706770120189;37.95675291688
321.728390349715;38.2114012369305
321.75001057924;38.4792960014244
321.771630808766;38.7645606916655
321.793251038291;39.0590477544119
321.814871267816;39.3274559050361
321.836491497342;39.5502001828214
321.858111726867;39.7280223210194
321.879731956393;39.8534140236047
321.901352185918;39.9139985736785
321.922972415444;39.9077172710136
321.944592644969;39.829745246624
321.966212874495;39.6706632588244
321.98783310402;39.4313951488706
322.009453333546;39.1170101505926
322.031073563071;38.7285714037889
322.052693792597;38.2722032150612
322.074314022122;37.7559736112889
322.095934251647;37.1875669998696
322.117554481173;36.5733774753034
322.139174710698;35.9312977307683
322.160794940224;35.2747241855911
322.182415169749;34.6017326509766
322.204035399275;33.905288374425
322.2256556288;33.228550695893
322.247275858326;32.6135283661424
322.268896087851;32.065830965122
322.290516317377;31.6123355879554
322.312136546902;31.2723649769754
322.333756776428;31.0517311633629
322.355377005953;30.9440409497577
322.376997235479;30.9436447214287
322.398617465004;31.0486715248881
322.420237694529;31.2530941652637
322.441857924055;31.5345858827582
322.46347815358;31.855225013392
322.485098383106;32.185908505501
322.506718612631;32.5093895817406
322.528338842157;32.8164134909005
322.549959071682;33.071853602058
322.571579301208;33.2219887713234
322.593199530733;33.2747135610629
322.614819760259;33.2220864202274
322.636439989784;33.061422537937
322.65806021931;32.8057382995143
322.679680448835;32.4706517805672
322.701300678361;32.0576570455589
322.722920907886;31.5903605304768
322.744541137411;31.1188004002684
322.766161366937;30.6727587532465
322.787781596462;30.2743118210166
322.809401825988;29.933617128136
322.831022055513;29.6571491288387
322.852642285039;29.4640751079218
322.874262514564;29.3814124216456
322.89588274409;29.410434582563
322.917502973615;29.5387561813438
322.939123203141;29.7474864292741
322.960743432666;30.0283259162938
322.982363662192;30.3788664625323
323.003983891717;30.7919265345258
323.025604121242;31.261703448707
323.047224350768;31.7758898044331
323.068844580293;32.3156556476593
323.090464809819;32.8591972793772
323.112085039344;33.3970454509842
323.13370526887;33.9289754176424
323.155325498395;34.4536075694653
323.176945727921;34.9604382066917
323.198565957446;35.4312335633272
323.220186186972;35.8611364783008
323.241806416497;36.2637042784791
323.263426646023;36.644068636789
323.285046875548;36.994559754216
323.306667105074;37.3051398802109
323.328287334599;37.5706222145254
323.349907564124;37.7918952431208
323.37152779365;37.9741186487765
323.393148023175;38.1221744401118
323.414768252701;38.2377726073174
323.436388482226;38.3179122598238
323.458008711752;38.3733978320755
323.479628941277;38.4229946698335
323.501249170803;38.4613111543565
323.522869400328;38.4887637974173
323.544489629854;38.5059293215141
323.566109859379;38.5171349897891
323.587730088905;38.5108989584596
323.60935031843;38.4784638295079
323.630970547955;38.4167625485107
323.652590777481;38.3384536346654
323.674211007006;38.2480077530549
323.695831236532;38.1309740200249
323.717451466057;37.9846872511622
323.739071695583;37.8159956717672
323.760691925108;37.6327170580782
323.782312154634;37.4455929772822
323.803932384159;37.2692926603136
323.825552613685;37.1001475062381
323.84717284321;36.9397192403244
323.868793072736;36.8000197769114
323.890413302261;36.6799614842013
323.912033531787;36.5776490008853
323.933653761312;36.4979802950842
323.955273990837;36.4323810027091
323.976894220363;36.3691081027348
323.998514449888;36.3009954480285
324.020134679414;36.2265973131713
324.041754908939;36.1452714256674
324.063375138465;36.0407571808981
324.08499536799;35.8930036880469
324.106615597516;35.6981776027463
324.128235827041;35.4881953540319
324.149856056567;35.2829701407065
324.171476286092;35.0768329047439
324.193096515618;34.8627768503465
324.214716745143;34.6332519689411
324.236336974669;34.3746412525103
324.257957204194;34.0799117411129
324.279577433719;33.7630642320824
324.301197663245;33.4197338469544
324.32281789277;33.0288431103151
324.344438122296;32.5930015486399
324.366058351821;32.1337812692276
324.387678581347;31.6492696113464
324.409298810872;31.1268509018493
324.430919040398;30.5919723342449
324.452539269923;30.0997600289699
324.474159499449;29.6726156708736
324.495779728974;29.3191351538789
324.5173999585;29.0498027279399
324.539020188025;28.8645127147757
324.56064041755;28.7672143896833
324.582260647076;28.7696170441153
324.603880876601;28.8833957654812
324.625501106127;29.1329249535215
324.647121335652;29.5200802940556
324.668741565178;30.0035984534814
324.690361794703;30.5363835957121
324.711982024229;31.0931284212463
324.733602253754;31.6693269364307
324.75522248328;32.2565984323575
324.776842712805;32.8402408362507
