Name;BF_ESR_01_360s_Z_gon_100dg_result

Recipe
Accumulations;5;Number of accumulations
RetryCount;0;Number of retries on error
AbortOnError;True;Abort on error
EnableQFactorMeasurement;False;Enable/Disable q-Factor measurement
Bfrom;313;B from
Bto;363;B to
SweepTime;60;Sweep time
Modulation;0.2;Modulation
ModulationFreq;100;Modulation
BHoldEnabled;False;B hold enabled
BHold;0;B hold
MicrowavePower;2;Microwave power
MarkerEnabled;False;
MarkerStartField;0;
MarkerEndField;0;
Mode;;
KineticGFact;0;
KineticTotalTransientTime;0;
KineticTimeResolution;0;
TempFrom;5;
TempUseSlope;False;
TempTo;5;
TempdT;1;
TempSetupTime;0;
GonFrom;0;
GonTo;180;
GonSteps;20;
XRayEnabled;False;
XRayTime;3;
XRayVoltage;40;
XRayCurrent;0.5;
UVEnabled;False;
UVIntensity;0;
UVTime;0;
UVLeadTime;0;
UVWavelength;0;
PowSweepFrom;1;
PowSweepTo;5;
PowSweepSteps;5;
AmpModSweepFrom;0;
AmpModSweepTo;1;
AmpModSweepSteps;10;
ExtTriggerEnabled;False;
ExtTrigLeadTime;0;
ExtTrigOnTime;5;

Meas
BField [mT];MW_Absorption []
313.023781585693;47.6497918222528
313.045397764179;47.6832083796204
313.067013942664;47.7355513729819
313.088630121149;47.8160773818768
313.110246299635;47.9187832487644
313.13186247812;48.0507882286415
313.153478656605;48.2202874062109
313.175094835091;48.4250133832574
313.196711013576;48.6680369143362
313.218327192061;48.9410714024549
313.239943370547;49.2284287671262
313.261559549032;49.5261620388715
313.283175727517;49.8329791860481
313.304791906003;50.1423670678246
313.326408084488;50.4432625395395
313.348024262973;50.7297920724048
313.369640441459;50.9973165544766
313.391256619944;51.2360598390104
313.412872798429;51.4359063737028
313.434488976915;51.5972979910394
313.4561051554;51.728751553334
313.477721333885;51.8324977106375
313.499337512371;51.900253429263
313.520953690856;51.9237344681263
313.542569869341;51.9068277264553
313.564186047827;51.8642236454781
313.585802226312;51.8088304764085
313.607418404798;51.7348133101738
313.629034583283;51.634242897698
313.650650761768;51.5186287519771
313.672266940254;51.4015030743561
313.693883118739;51.27964158547
313.715499297224;51.1470122217625
313.73711547571;51.0028581030329
313.758731654195;50.8525755539895
313.78034783268;50.7034442816809
313.801964011166;50.5554494010601
313.823580189651;50.4082270909888
313.845196368136;50.2605402171031
313.866812546622;50.111486209882
313.888428725107;49.9633619860758
313.910044903592;49.8174388563486
313.931661082078;49.6718597463473
313.953277260563;49.5244919959224
313.974893439048;49.3832850676452
313.996509617534;49.2599618186408
314.018125796019;49.1563003482685
314.039741974504;49.0742679139344
314.06135815299;49.0233668381236
314.082974331475;49.0190422426864
314.10459050996;49.0654573980869
314.126206688446;49.15931902467
314.147822866931;49.2974827578683
314.169439045416;49.482575555682
314.191055223902;49.7199734896844
314.212671402387;50.0037133612802
314.234287580872;50.3111921468451
314.255903759358;50.6212899408057
314.277519937843;50.9222899829408
314.299136116328;51.2043517721346
314.320752294814;51.4578936135351
314.342368473299;51.6690610359335
314.363984651784;51.8285129781224
314.38560083027;51.9361957598661
314.407217008755;51.9841940314046
314.42883318724;51.9513216312387
314.450449365726;51.8600396766479
314.472065544211;51.7278040225993
314.493681722696;51.5539369282866
314.515297901182;51.335759279759
314.536914079667;51.0950428221581
314.558530258152;50.8538713897021
314.580146436638;50.6107447518035
314.601762615123;50.3608916401678
314.623378793608;50.1126275846256
314.644994972094;49.8746835158928
314.666611150579;49.6573892873731
314.688227329064;49.4667184087486
314.70984350755;49.2948936184829
314.731459686035;49.1331228847623
314.75307586452;48.9740844255061
314.774692043006;48.8256020582041
314.796308221491;48.7037819638683
314.817924399976;48.6091497996373
314.839540578462;48.5372221719097
314.861156756947;48.4855554663745
314.882772935432;48.4615610558934
314.904389113918;48.4803584322936
314.926005292403;48.5338673915006
314.947621470888;48.6180257876628
314.969237649374;48.7391649932845
314.990853827859;48.8994761446003
315.012470006344;49.0916390926855
315.03408618483;49.3085758623484
315.055702363315;49.5385115825727
315.0773185418;49.7699059981202
315.098934720286;50.0032549390217
315.120550898771;50.2406139209441
315.142167077256;50.4733471584823
315.163783255742;50.6848999236011
315.185399434227;50.8683934561178
315.207015612712;51.022449212592
315.228631791198;51.1467258825167
315.250247969683;51.2370465892375
315.271864148168;51.28889939339
315.293480326654;51.3078149395459
315.315096505139;51.3012857260914
315.336712683624;51.2780639500894
315.35832886211;51.2483981376098
315.379945040595;51.2209298627391
315.40156121908;51.1952760856548
315.423177397566;51.1681199914866
315.444793576051;51.1370447023777
315.466409754536;51.1038392663717
315.488025933022;51.0716493948026
315.509642111507;51.0338905684741
315.531258289992;50.9817052190061
315.552874468478;50.9087123370907
315.574490646963;50.8238012671651
315.596106825448;50.7273308356943
315.617723003934;50.6131807896643
315.639339182419;50.4792390204898
315.660955360905;50.3155806371908
315.68257153939;50.1275824590973
315.704187717875;49.9396688785708
315.725803896361;49.7602941746773
315.747420074846;49.5635880057127
315.769036253331;49.3484360183053
315.790652431817;49.1311502927095
315.812268610302;48.9140653596647
315.833884788787;48.6919820805174
315.855500967273;48.4620900893787
315.877117145758;48.2353185393606
315.898733324243;48.0319549732437
315.920349502729;47.8636122515181
315.941965681214;47.7067234568985
315.963581859699;47.5416927125561
315.985198038185;47.3739004172342
316.00681421667;47.2042157107754
316.028430395155;47.0378817629074
316.050046573641;46.8861029910434
316.071662752126;46.7508579366457
316.093278930611;46.6262726144496
316.114895109097;46.4972916599818
316.136511287582;46.3496255645635
316.158127466067;46.2257446458915
316.179743644553;46.1475100558305
316.201359823038;46.0986973595638
316.222976001523;46.0632488049784
316.244592180009;46.0373558556403
316.266208358494;46.0316223052831
316.287824536979;46.0430601064175
316.309440715465;46.0628145512873
316.33105689395;46.1015497091893
316.352673072435;46.1642762154686
316.374289250921;46.2401601302402
316.395905429406;46.3208964628987
316.417521607891;46.4105191594556
316.439137786377;46.5152519069984
316.460753964862;46.6396435235171
316.482370143347;46.7884186369097
316.503986321833;46.9678787411467
316.525602500318;47.177124515928
316.547218678803;47.402690965648
316.568834857289;47.6348680916924
316.590451035774;47.8685411297356
316.612067214259;48.0915576744967
316.633683392745;48.2889385615194
316.65529957123;48.4567524024109
316.676915749715;48.5972346183664
316.698531928201;48.7089107777671
316.720148106686;48.7862120756571
316.741764285171;48.8177576164557
316.763380463657;48.8054293518034
316.784996642142;48.7531982589576
316.806612820627;48.6511421075921
316.828228999113;48.4999923668631
316.849845177598;48.3187298059652
316.871461356083;48.1216043320127
316.893077534569;47.9167288982398
316.914693713054;47.711558859616
316.936309891539;47.5095502581845
316.957926070025;47.3247726399508
316.97954224851;47.1691166696065
317.001158426995;47.0408555761867
317.022774605481;46.9501149856925
317.044390783966;46.9105570982027
317.066006962451;46.9254295437536
317.087623140937;46.9785818781684
317.109239319422;47.0566318477007
317.130855497907;47.1565313832197
317.152471676393;47.2831041275303
317.174087854878;47.4295648206471
317.195704033363;47.5836659089133
317.217320211849;47.7345777166928
317.238936390334;47.8711468590412
317.260552568819;47.9885192256789
317.282168747305;48.0914538331147
317.30378492579;48.1795852309244
317.325401104276;48.2528788720658
317.347017282761;48.3110019795755
317.368633461246;48.3540798427364
317.390249639732;48.38910719149
317.411865818217;48.4216387057268
317.433481996702;48.4494686176484
317.455098175188;48.4767996206187
317.476714353673;48.5088228590254
317.498330532158;48.5458949710335
317.519946710644;48.5891685813426
317.541562889129;48.6368809359764
317.563179067614;48.6844930571411
317.5847952461;48.7310822987095
317.606411424585;48.780490656799
317.62802760307;48.840237198451
317.649643781556;48.9174407581625
317.671259960041;49.0071111101395
317.692876138526;49.1066463061694
317.714492317012;49.2154261944288
317.736108495497;49.3309705062777
317.757724673982;49.4414111893731
317.779340852468;49.5360993922625
317.800957030953;49.6138449384888
317.822573209438;49.6762996524442
317.844189387924;49.7134584181875
317.865805566409;49.7067072696503
317.887421744894;49.655671281108
317.90903792338;49.5619518634648
317.930654101865;49.418603742824
317.95227028035;49.2259680915782
317.973886458836;48.9889464833947
317.995502637321;48.7089493022969
318.017118815806;48.4175611088754
318.038734994292;48.1535261051643
318.060351172777;47.926226813275
318.081967351262;47.7367006594512
318.103583529748;47.5900597847141
318.125199708233;47.4850864719281
318.146815886718;47.4187316455368
318.168432065204;47.3927941686626
318.190048243689;47.4103162770775
318.211664422174;47.4678534075117
318.23328060066;47.5535930823723
318.254896779145;47.6555479797551
318.27651295763;47.7664845128843
318.298129136116;47.8787438215118
318.319745314601;47.9798876300067
318.341361493086;48.0560355040061
318.362977671572;48.0954026227545
318.384593850057;48.0859841193482
318.406210028542;48.0185473602222
318.427826207028;47.8950369648986
318.449442385513;47.7228158683592
318.471058563998;47.4933775372566
318.492674742484;47.1895194661965
318.514290920969;46.8105173244618
318.535907099454;46.3934117757738
318.55752327794;45.9486264738968
318.579139456425;45.4942989599019
318.60075563491;45.0595514911736
318.622371813396;44.6587081646883
318.643987991881;44.2972078609656
318.665604170366;43.9774714012964
318.687220348852;43.7121069629988
318.708836527337;43.5126669102102
318.730452705822;43.3793969770536
318.752068884308;43.3172062343999
318.773685062793;43.3517825739751
318.795301241278;43.4665342119788
318.816917419764;43.6447265693241
318.838533598249;43.8762236094504
318.860149776734;44.1637019070079
318.88176595522;44.5122139704306
318.903382133705;44.8959472704607
318.92499831219;45.2930650486611
318.946614490676;45.6867889763407
318.968230669161;46.0675477211893
318.989846847646;46.4362572575281
319.011463026132;46.7902636095234
319.033079204617;47.114118895167
319.054695383102;47.3995618079207
319.076311561588;47.6474190878717
319.097927740073;47.8488467065817
319.119543918558;47.9959845451182
319.141160097044;48.0915519729673
319.162776275529;48.1390997207597
319.184392454014;48.1462209135536
319.2060086325;48.1286563541019
319.227624810985;48.0931640609151
319.24924098947;48.0537931793222
319.270857167956;48.0217232858605
319.292473346441;47.9923163946662
319.314089524926;47.9527634499389
319.335705703412;47.9084295009256
319.357321881897;47.8743555564953
319.378938060383;47.8462133549823
319.400554238868;47.8206589235244
319.422170417353;47.7898425177805
319.443786595839;47.7402200167336
319.465402774324;47.6684932863405
319.487018952809;47.5916971069001
319.508635131295;47.5158029167867
319.53025130978;47.4364176814934
319.551867488265;47.3612000712128
319.573483666751;47.3011303211969
319.595099845236;47.2552331157455
319.616716023721;47.2205291501829
319.638332202207;47.2086078488865
319.659948380692;47.2311486259419
319.681564559177;47.29121584726
319.703180737663;47.3871198525604
319.724796916148;47.5119466981828
319.746413094633;47.6573294713151
319.768029273119;47.8104677204686
319.789645451604;47.9592833606821
319.811261630089;48.0889959257549
319.832877808575;48.1818250492204
319.85449398706;48.2349331166352
319.876110165545;48.2511486424115
319.897726344031;48.2268891391649
319.919342522516;48.1574750815248
319.940958701001;48.0493958424428
319.962574879487;47.9072311806256
319.984191057972;47.7188421907847
320.005807236457;47.4865423675329
320.027423414943;47.2307985636601
320.049039593428;46.9707146955874
320.070655771913;46.7183760540464
320.092271950399;46.4747677469858
320.113888128884;46.2374073979671
320.135504307369;46.0123182006653
320.157120485855;45.8195486693683
320.17873666434;45.6733847098904
320.200352842825;45.5754657757143
320.221969021311;45.525643533417
320.243585199796;45.5299109147441
320.265201378281;45.5941127405652
320.286817556767;45.712761522979
320.308433735252;45.8809344586681
320.330049913737;46.103429597697
320.351666092223;46.3780841051638
320.373282270708;46.6888119742627
320.394898449193;47.0143289059713
320.416514627679;47.3429944309293
320.438130806164;47.6756184906052
320.459746984649;48.0136589711757
320.481363163135;48.3454332053205
320.50297934162;48.6587749483672
320.524595520105;48.9525826121023
320.546211698591;49.2337543776406
320.567827877076;49.4956115287291
320.589444055561;49.7175566931941
320.611060234047;49.8927224340293
320.632676412532;50.0277703447489
320.654292591017;50.1274860526028
320.675908769503;50.193003683084
320.697524947988;50.2186796146882
320.719141126473;50.1955436692702
320.740757304959;50.1341014089583
320.762373483444;50.0463067122035
320.783989661929;49.9390576140734
320.805605840415;49.81413522621
320.8272220189;49.6758851325856
320.848838197385;49.5310842914896
320.870454375871;49.3821045545867
320.892070554356;49.2298354483811
320.913686732841;49.0800729577114
320.935302911327;48.9453334677633
320.956919089812;48.8395271616331
320.978535268297;48.7734270663082
321.000151446783;48.7420814441135
321.021767625268;48.7391265098491
321.043383803753;48.7633719387529
321.064999982239;48.8120960629707
321.086616160724;48.8798403288373
321.10823233921;48.9532097663855
321.129848517695;49.0144722363018
321.15146469618;49.0559219981766
321.173080874666;49.0720137419044
321.194697053151;49.054206165777
321.216313231636;48.9931195518672
321.237929410122;48.8942330198817
321.259545588607;48.7700762157059
321.281161767092;48.6330336153501
321.302777945578;48.4886338455689
321.324394124063;48.3427987313687
321.346010302548;48.200352141692
321.367626481034;48.0672836640366
321.389242659519;47.9513060696921
321.410858838004;47.8539495612282
321.43247501649;47.7712197444455
321.454091194975;47.6969772461653
321.47570737346;47.6299182792728
321.497323551946;47.5710020567123
321.518939730431;47.5089786016756
321.540555908916;47.4255881830302
321.562172087402;47.3216148962287
321.583788265887;47.2008762123435
321.605404444372;47.0661919366047
321.627020622858;46.9184187136949
321.648636801343;46.7680428687225
321.670252979828;46.6207453316991
321.691869158314;46.472752411528
321.713485336799;46.3175635326401
321.735101515284;46.1578607387123
321.75671769377;46.0019802364206
321.778333872255;45.8641758565179
321.79995005074;45.7292478167675
321.821566229226;45.5777343526563
321.843182407711;45.3985443554458
321.864798586196;45.1906950879894
321.886414764682;44.9551120568638
321.908030943167;44.6857096852315
321.929647121652;44.3718320597018
321.951263300138;44.0226011161463
321.972879478623;43.6668537573287
321.994495657108;43.3097334188781
322.016111835594;42.9281971555249
322.037728014079;42.512205573059
322.059344192564;42.0919859297758
322.08096037105;41.6920012893872
322.102576549535;41.3354233220156
322.12419272802;41.0262556467706
322.145808906506;40.7665245970187
322.167425084991;40.5736621489083
322.189041263476;40.4745303320305
322.210657441962;40.4768215920575
322.232273620447;40.5672994508114
322.253889798932;40.7320764053732
322.275505977418;40.961097265704
322.297122155903;41.2443180842056
322.318738334388;41.5697045601719
322.340354512874;41.9303657545966
322.361970691359;42.2944128827861
322.383586869844;42.6304633001683
322.40520304833;42.9217002690902
322.426819226815;43.1701230712276
322.4484354053;43.3680945675552
322.470051583786;43.5154802921726
322.491667762271;43.6173510659454
322.513283940756;43.6643987333938
322.534900119242;43.6534478914801
322.556516297727;43.58659510552
322.578132476212;43.4815605324907
322.599748654698;43.3460321388662
322.621364833183;43.1753929602432
322.642981011668;42.9657113889536
322.664597190154;42.7242279013914
322.686213368639;42.4607723245659
322.707829547124;42.1814991977267
322.72944572561;41.8802733721271
322.751061904095;41.5532555561954
322.77267808258;41.2238420592895
322.794294261066;40.9136086533022
322.815910439551;40.6178001020672
322.837526618036;40.3462284430279
322.859142796522;40.1218390503052
322.880758975007;39.9478107702699
322.902375153492;39.8093156796025
322.923991331978;39.6979550400712
322.945607510463;39.6173166465091
322.967223688948;39.5740884778101
322.988839867434;39.552702984496
323.010456045919;39.5385497946692
323.032072224404;39.5286574301974
323.05368840289;39.5246326233572
323.075304581375;39.5274738615774
323.096920759861;39.5415593164311
323.118536938346;39.5699900321547
323.140153116831;39.6163884412423
323.161769295317;39.6806586340221
323.183385473802;39.7651942891544
323.205001652287;39.8776405168533
323.226617830773;40.0170119022464
323.248234009258;40.1723151569669
323.269850187743;40.334932223455
323.291466366229;40.5092814361496
323.313082544714;40.7005273730206
323.334698723199;40.9050236653793
323.356314901685;41.1219088884159
323.37793108017;41.352500699161
323.399547258655;41.5911640780908
323.421163437141;41.8305213337687
323.442779615626;42.0715007303487
323.464395794111;42.3057502575328
323.486011972597;42.5195655729287
323.507628151082;42.7105088289357
323.529244329567;42.8842432888759
323.550860508053;43.0476054286885
323.572476686538;43.198284250479
323.594092865023;43.3367494551194
323.615709043509;43.4581140226703
323.637325221994;43.5517475703175
323.658941400479;43.6222807207232
323.680557578965;43.6731428621524
323.70217375745;43.7056518288147
323.723789935935;43.7137823911475
323.745406114421;43.6894296939601
323.767022292906;43.6270763882851
323.788638471391;43.5238267005336
323.810254649877;43.3776955921277
323.831870828362;43.2058170596511
323.853487006847;43.0264925939688
323.875103185333;42.8427885831399
323.896719363818;42.6546886551726
323.918335542303;42.4657574773018
323.939951720789;42.2797783397816
323.961567899274;42.0964819998421
323.983184077759;41.9267423163357
324.004800256245;41.7800497233219
324.02641643473;41.6529843283704
324.048032613215;41.536106702374
324.069648791701;41.4303569567008
324.091264970186;41.3394460855877
324.112881148671;41.2589795321841
324.134497327157;41.1841752406808
324.156113505642;41.1117911821633
324.177729684127;41.042337205017
324.199345862613;40.9799826453928
324.220962041098;40.9306813923346
324.242578219583;40.8981783189162
324.264194398069;40.8832516533272
324.285810576554;40.8856231116934
324.307426755039;40.9054294728158
324.329042933525;40.942686136632
324.35065911201;40.9966709500033
324.372275290495;41.0641473050834
324.393891468981;41.1403472722832
324.415507647466;41.2173578013807
324.437123825951;41.2838866205693
324.458740004437;41.3290104990074
324.480356182922;41.3467106558493
324.501972361407;41.3279425967123
324.523588539893;41.2547880449803
324.545204718378;41.1194319373515
324.566820896863;40.9297541076005
324.588437075349;40.6860174318052
324.610053253834;40.3736982005677
324.631669432319;39.9828763404277
324.653285610805;39.5179436495772
324.67490178929;39.0370729307918
324.696517967775;38.5324354857818
324.718134146261;37.9889269880074
324.739750324746;37.4182454032336
324.761366503231;36.8600342962106
