Name;BF_ESR_01_1800s_Y_gon_0dg_result

Recipe
Accumulations;5;Number of accumulations
RetryCount;0;Number of retries on error
AbortOnError;True;Abort on error
EnableQFactorMeasurement;False;Enable/Disable q-Factor measurement
Bfrom;313;B from
Bto;363;B to
SweepTime;60;Sweep time
Modulation;0.2;Modulation
ModulationFreq;100;Modulation
BHoldEnabled;False;B hold enabled
BHold;0;B hold
MicrowavePower;2;Microwave power
MarkerEnabled;False;
MarkerStartField;0;
MarkerEndField;0;
Mode;;
KineticGFact;0;
KineticTotalTransientTime;0;
KineticTimeResolution;0;
TempFrom;5;
TempUseSlope;False;
TempTo;5;
TempdT;1;
TempSetupTime;0;
GonFrom;0;
GonTo;180;
GonSteps;20;
XRayEnabled;False;
XRayTime;3;
XRayVoltage;40;
XRayCurrent;0.5;
UVEnabled;False;
UVIntensity;0;
UVTime;0;
UVLeadTime;0;
UVWavelength;0;
PowSweepFrom;1;
PowSweepTo;5;
PowSweepSteps;5;
AmpModSweepFrom;0;
AmpModSweepTo;1;
AmpModSweepSteps;10;
ExtTriggerEnabled;False;
ExtTrigLeadTime;0;
ExtTrigOnTime;5;

Meas
BField [mT];MW_Absorption []
313.017008895874;69.323658431253
313.038612409527;68.902216893173
313.060215923179;68.3960185907049
313.081819436832;67.8077854394742
313.103422950484;67.1374636139781
313.125026464137;66.3871154554769
313.146629977789;65.5771002754912
313.168233491442;64.7263936753582
313.189837005094;63.8379572246703
313.211440518747;62.9228367880887
313.233044032399;62.0214451159065
313.254647546052;61.2203472384422
313.276251059704;60.5637049478571
313.297854573357;60.0513691006678
313.319458087009;59.6820061894178
313.341061600662;59.4606285342128
313.362665114314;59.3873810755842
313.384268627967;59.4547934206642
313.405872141619;59.6364779386904
313.427475655272;59.9095665617987
313.449079168924;60.2514851738131
313.470682682577;60.6208441422724
313.492286196229;60.9957768516264
313.513889709882;61.3551765170304
313.535493223534;61.6620289364417
313.557096737187;61.9027033869968
313.578700250839;62.0816729671694
313.600303764492;62.2010998322842
313.621907278144;62.2707574034274
313.643510791797;62.3085004136745
313.665114305449;62.3225687215789
313.686717819102;62.3113296249452
313.708321332754;62.2775028974517
313.729924846407;62.2197901644566
313.751528360059;62.1466353206606
313.773131873712;62.0700467436487
313.794735387364;61.9936408823745
313.816338901017;61.9179849316047
313.837942414669;61.838298632726
313.859545928322;61.7569508712552
313.881149441974;61.6829533870391
313.902752955627;61.6264377350982
313.924356469279;61.5918016402123
313.945959982932;61.580891330795
313.967563496584;61.5961524492548
313.989167010237;61.6383807798403
314.010770523889;61.7059249574358
314.032374037542;61.7964164325119
314.053977551194;61.9039917389205
314.075581064847;62.0199952046343
314.097184578499;62.1268004454818
314.118788092152;62.2141756804029
314.140391605804;62.2876827457385
314.161995119457;62.3427322250059
314.183598633109;62.3708279203972
314.205202146762;62.3710251218312
314.226805660414;62.3400155449077
314.248409174067;62.2765712018778
314.270012687719;62.1852033322682
314.291616201372;62.067266874435
314.313219715024;61.9238604205241
314.334823228677;61.759172535914
314.356426742329;61.5706503189773
314.378030255982;61.3608979566809
314.399633769634;61.148212639708
314.421237283287;60.9403752315519
314.442840796939;60.729898580033
314.464444310592;60.5219767297558
314.486047824244;60.3328389272595
314.507651337897;60.1686055777555
314.529254851549;60.0272340139942
314.550858365202;59.9114373376657
314.572461878854;59.8339623415251
314.594065392507;59.7959025282803
314.61566890616;59.7911275090603
314.637272419812;59.8185466453133
314.658875933465;59.8726323324668
314.680479447117;59.9409408326075
314.70208296077;60.0153137844354
314.723686474422;60.0878867254939
314.745289988075;60.1518085406357
314.766893501727;60.20057076359
314.78849701538;60.2239620487417
314.810100529032;60.2102229467894
314.831704042685;60.1724619112258
314.853307556337;60.1180605667151
314.87491106999;60.0336415033787
314.896514583642;59.9227270695758
314.918118097295;59.7944026214118
314.939721610947;59.6564816755729
314.9613251246;59.5193406007492
314.982928638252;59.3903002354393
315.004532151905;59.2770851264727
315.026135665557;59.1848991975438
315.04773917921;59.1160884721311
315.069342692862;59.0810401417043
315.090946206515;59.0860759867279
315.112549720167;59.1230907312401
315.13415323382;59.1804355937829
315.155756747472;59.2585768809398
315.177360261125;59.3720573326122
315.198963774777;59.5205797039009
315.22056728843;59.6681463382763
315.242170802082;59.781580704599
315.263774315735;59.8731076625066
315.285377829387;59.9605229433468
315.30698134304;60.0486748963734
315.328584856692;60.1233441850702
315.350188370345;60.1525217979958
315.371791883997;60.1324932720033
315.39339539765;60.0915026041038
315.414998911302;60.0318356196098
315.436602424955;59.9505106500458
315.458205938607;59.8438808883929
315.47980945226;59.6950256348124
315.501412965912;59.5027016019975
315.523016479565;59.308286788834
315.544619993217;59.1213133568829
315.56622350687;58.9328485687324
315.587827020522;58.7316469538267
315.609430534175;58.5219718449559
315.631034047827;58.3198828610677
315.65263756148;58.1237451438571
315.674241075132;57.9275923608969
315.695844588785;57.7378618502805
315.717448102437;57.5574223395115
315.73905161609;57.3851894781541
315.760655129742;57.2210691171398
315.782258643395;57.0625062715213
315.803862157047;56.9038878408709
315.8254656707;56.7554456002052
315.847069184352;56.6350095080466
315.868672698005;56.5431680828066
315.890276211657;56.4701786685326
315.91187972531;56.4186438915104
315.933483238962;56.3990740270218
315.955086752615;56.4090042759836
315.976690266267;56.4337349140181
315.99829377992;56.4618092686982
316.019897293572;56.4975820760733
316.041500807225;56.5577827189921
316.063104320877;56.6491936075761
316.08470783453;56.7714099823294
316.106311348182;56.9133995770605
316.127914861835;57.0579941275483
316.149518375487;57.2004787896251
316.17112188914;57.3510674000807
316.192725402792;57.518628120625
316.214328916445;57.7004482759094
316.235932430097;57.8880343996557
316.25753594375;58.07203559295
316.279139457402;58.2470309821381
316.300742971055;58.4110729031379
316.322346484708;58.5578118504442
316.34394999836;58.6774551180366
316.365553512013;58.7633537618145
316.387157025665;58.8071730653843
316.408760539318;58.7953801452586
316.43036405297;58.7212836942871
316.451967566623;58.5865498440526
316.473571080275;58.3954671530956
316.495174593928;58.1425093273594
316.51677810758;57.8176886931706
316.538381621233;57.4381551230735
316.559985134885;57.0131109368028
316.581588648538;56.5414009805729
316.60319216219;56.0267355893308
316.624795675843;55.4868270559621
316.646399189495;54.9542475707226
316.668002703148;54.4415867643993
316.6896062168;53.9452044303164
316.711209730453;53.4864024497967
316.732813244105;53.0826779413887
316.754416757758;52.7371571927343
316.77602027141;52.4619810559786
316.797623785063;52.2621066619978
316.819227298715;52.12367686233
316.840830812368;52.0455273599246
316.86243432602;52.0311783137306
316.884037839673;52.0817576384386
316.905641353325;52.1990481575204
316.927244866978;52.3605733766828
316.94884838063;52.5484430181761
316.970451894283;52.7570287811346
316.992055407935;52.9775604650892
317.013658921588;53.1928378303534
317.03526243524;53.3798751950472
317.056865948893;53.5325618275744
317.078469462545;53.646382943442
317.100072976198;53.7106102956357
317.12167648985;53.7228526696116
317.143280003503;53.6891884607679
317.164883517155;53.6143419181402
317.186487030808;53.5046789524447
317.20809054446;53.3706925230186
317.229694058113;53.2173495455791
317.251297571765;53.0466248931414
317.272901085418;52.8668896064548
317.29450459907;52.7078270026913
317.316108112723;52.5836027989378
317.337711626375;52.4911335243785
317.359315140028;52.4383092878524
317.38091865368;52.4414794529538
317.402522167333;52.4954392549892
317.424125680985;52.5887476147647
317.445729194638;52.7189682361801
317.46733270829;52.8776959232159
317.488936221943;53.0512066399707
317.510539735595;53.2352889595834
317.532143249248;53.4283778791151
317.5537467629;53.6158715177386
317.575350276553;53.7823219735675
317.596953790205;53.9213183044069
317.618557303858;54.0279467571086
317.64016081751;54.0996888456067
317.661764331163;54.1375734031129
317.683367844815;54.1358556862773
317.704971358468;54.0934011812773
317.72657487212;54.0205346689088
317.748178385773;53.9310585713361
317.769781899425;53.8300520805201
317.791385413078;53.7225181729225
317.81298892673;53.6157159731907
317.834592440383;53.5096801570644
317.856195954035;53.4031002117201
317.877799467688;53.2940068468615
317.89940298134;53.1810326305471
317.921006494993;53.0643569193573
317.942610008645;52.9495872170316
317.964213522298;52.8375464290284
317.985817035951;52.7247711846909
318.007420549603;52.6106968764614
318.029024063255;52.4947916831867
318.050627576908;52.3751097341114
318.07223109056;52.251607706
318.093834604213;52.1273291729456
318.115438117865;52.0022916231901
318.137041631518;51.877279228855
318.158645145171;51.7548187665366
318.180248658823;51.6423958127505
318.201852172476;51.5468485615791
318.223455686128;51.4758802184899
318.245059199781;51.43291356092
318.266662713433;51.4181167309755
318.288266227086;51.4225604626469
318.309869740738;51.436855436084
318.331473254391;51.4486347501557
318.353076768043;51.4545400215914
318.374680281696;51.4774493567257
318.396283795348;51.5230172147322
318.417887309001;51.5836358121146
318.439490822653;51.639945818183
318.461094336306;51.6876647383125
318.482697849958;51.7332952036765
318.504301363611;51.7846568697388
318.525904877263;51.8447296355692
318.547508390916;51.9091177966165
318.569111904568;51.9826362574256
318.590715418221;52.0707450641064
318.612318931873;52.1669719120399
318.633922445526;52.2595997372013
318.655525959178;52.3499037337667
318.677129472831;52.4440173574065
318.698732986483;52.5487509707098
318.720336500136;52.6606247763095
318.741940013788;52.7595269109502
318.763543527441;52.839467252329
318.785147041093;52.9030508685081
318.806750554746;52.9514336304898
318.828354068398;52.9845554936703
318.849957582051;53.0008611736541
318.871561095703;53.0016245356426
318.893164609356;52.9942898290864
318.914768123008;52.9858964342589
318.936371636661;52.9866389616603
318.957975150313;52.998148020294
318.979578663966;53.0191154190435
319.001182177618;53.0536079037159
319.022785691271;53.10520797542
319.044389204923;53.1758600729671
319.065992718576;53.2644300766141
319.087596232228;53.3570743713247
319.109199745881;53.4322720411623
319.130803259533;53.4849422352831
319.152406773186;53.5122373295479
319.174010286838;53.5149210875168
319.195613800491;53.4984738089025
319.217217314143;53.4639613971552
319.238820827796;53.4059587688761
319.260424341448;53.3220543550922
319.282027855101;53.2219846538858
319.303631368753;53.1211909885289
319.325234882406;53.0334586122748
319.346838396058;52.9635267236718
319.368441909711;52.907272102186
319.390045423363;52.8628013471793
319.411648937016;52.8253669298768
319.433252450668;52.7863130285422
319.454855964321;52.7436675413129
319.476459477973;52.6873416955052
319.498062991626;52.6030050836402
319.519666505278;52.4785924619377
319.541270018931;52.3093055074286
319.562873532583;52.0921767179931
319.584477046236;51.8207457102017
319.606080559888;51.5016068018445
319.627684073541;51.1629961369324
319.649287587193;50.8190735798086
319.670891100846;50.4602051110047
319.692494614498;50.0930697632443
319.714098128151;49.7424590922408
319.735701641803;49.415123532748
319.757305155456;49.1084569044239
319.778908669108;48.829766132886
319.800512182761;48.5912201238076
319.822115696414;48.3957110260923
319.843719210066;48.2360264161662
319.865322723719;48.1051570455213
319.886926237371;48.0045384560854
319.908529751024;47.9387833452115
319.930133264676;47.9049440802119
319.951736778329;47.890569501971
319.973340291981;47.881370001349
319.994943805634;47.8732797116304
320.016547319286;47.8610326822682
320.038150832939;47.8366408033105
320.059754346591;47.7930339502793
320.081357860244;47.7211475810306
320.102961373896;47.6132104476426
320.124564887549;47.4668142481148
320.146168401201;47.2895975842556
320.167771914854;47.0862896842382
320.189375428506;46.8636820727018
320.210978942159;46.6308339690905
320.232582455811;46.3971275232196
320.254185969464;46.173325738505
320.275789483116;45.9691434373601
320.297392996769;45.7947620192583
320.318996510421;45.6612224674383
320.340600024074;45.5737786100645
320.362203537726;45.533334342079
320.383807051379;45.5368720929061
320.405410565031;45.5756876818858
320.427014078684;45.6440259265027
320.448617592336;45.7346117722364
320.470221105989;45.83744570246
320.491824619641;45.9574913929208
320.513428133294;46.0918715207177
320.535031646946;46.2277001867544
320.556635160599;46.3537754661203
320.578238674251;46.4674680317339
320.599842187904;46.5704785949382
320.621445701556;46.6623477262732
320.643049215209;46.7432370783537
320.664652728861;46.8116081592301
320.686256242514;46.8695332219633
320.707859756166;46.9226764217764
320.729463269819;46.9690681172674
320.751066783471;47.0051025842833
320.772670297124;47.0332256339176
320.794273810776;47.0566094283676
320.815877324429;47.07939486257
320.837480838081;47.101558219727
320.859084351734;47.1129358316751
320.880687865386;47.1172003947776
320.902291379039;47.1207702914961
320.923894892691;47.1344539254799
320.945498406344;47.1589362626092
320.967101919996;47.1905272655799
320.988705433649;47.2276493457092
321.010308947301;47.2811701458482
321.031912460954;47.3614459834781
321.053515974606;47.4588496783631
321.075119488259;47.5699438794862
321.096723001911;47.69861856274
321.118326515564;47.8437200745642
321.139930029216;48.0032008440122
321.161533542869;48.1784073107365
321.183137056521;48.3677085469376
321.204740570174;48.5692653888793
321.226344083826;48.7637491855876
321.247947597479;48.9200096067098
321.269551111131;49.0460782758009
321.291154624784;49.155504509924
321.312758138436;49.2423958002672
321.334361652089;49.2896991388605
321.355965165741;49.3011774609307
321.377568679394;49.2811028029318
321.399172193046;49.2331138022406
321.420775706699;49.1572647342983
321.442379220351;49.0628972318017
321.463982734004;48.9489552404823
321.485586247657;48.811464007124
321.507189761309;48.6552880229738
321.528793274962;48.4823329115799
321.550396788614;48.2842769143506
321.572000302267;48.0606805571432
321.593603815919;47.8148729763017
321.615207329572;47.5408445792206
321.636810843224;47.2265129235915
321.658414356877;46.8793931991013
321.680017870529;46.5068248129915
321.701621384182;46.1240153118784
321.723224897834;45.7357382044838
321.744828411487;45.3351258553056
321.766431925139;44.9236649503472
321.788035438792;44.5354004912713
321.809638952444;44.1849283479744
321.831242466097;43.8617099378765
321.852845979749;43.5699043540368
321.874449493402;43.3100655763348
321.896053007054;43.0641673502658
321.917656520707;42.8165690081563
321.939260034359;42.577985334358
321.960863548012;42.3457270761919
321.982467061664;42.1019147556947
322.004070575317;41.8256204305111
322.025674088969;41.5136543685209
322.047277602622;41.1605600988862
322.068881116274;40.7604435616432
322.090484629927;40.3167878439039
322.112088143579;39.839498951859
322.133691657232;39.3485861129565
322.155295170884;38.8663291785028
322.176898684537;38.4094695988591
322.198502198189;37.9920568788954
322.220105711842;37.6459406053831
322.241709225494;37.3913859108834
322.263312739147;37.2312648604708
322.284916252799;37.1740781508531
322.306519766452;37.2173671372198
322.328123280104;37.36099865782
322.349726793757;37.5979555930401
322.371330307409;37.9046739614018
322.392933821062;38.2741449622683
322.414537334714;38.6902837709517
322.436140848367;39.1333402951304
322.457744362019;39.5817807518593
322.479347875672;40.0200343590042
322.500951389324;40.4434846073433
322.522554902977;40.8443761059308
322.544158416629;41.2168148919259
322.565761930282;41.5542064160635
322.587365443934;41.8502362611749
322.608968957587;42.1139777678757
322.630572471239;42.3436866063355
322.652175984892;42.5429983749004
322.673779498544;42.713779733339
322.695383012197;42.8569608169243
322.716986525849;42.9899115461491
322.738590039502;43.1248544736569
322.760193553154;43.2645311483597
322.781797066807;43.3971907290372
322.803400580459;43.5133122983831
322.825004094112;43.6178586433738
322.846607607764;43.7194569251772
322.868211121417;43.8215972407453
322.889814635069;43.9212843431389
322.911418148722;44.0118576475051
322.933021662374;44.0914634520188
322.954625176027;44.1558867369004
322.976228689679;44.1930749057878
322.997832203332;44.1877525318763
323.019435716984;44.1365297610006
323.041039230637;44.0409815357752
323.062642744289;43.9089205628384
323.084246257942;43.7666931012894
323.105849771594;43.6198982385646
323.127453285247;43.4741686654595
323.149056798899;43.3304210804514
323.170660312552;43.1891898581256
323.192263826205;43.0533861302154
323.213867339857;42.929368889727
323.23547085351;42.8273556833647
323.257074367162;42.7580270936158
323.278677880815;42.7081857688345
323.300281394467;42.6725610506269
323.32188490812;42.6473573928476
323.343488421772;42.6246378445227
323.365091935425;42.5923115117517
323.386695449077;42.5406900282707
323.40829896273;42.4592397175938
323.429902476382;42.3341986647001
323.451505990035;42.1590471909674
323.473109503687;41.9335498460493
323.49471301734;41.6642524714718
323.516316530992;41.360491152307
323.537920044645;41.0248380124595
323.559523558297;40.6603543836387
323.58112707195;40.2916234913878
323.602730585602;39.9372311742026
323.624334099255;39.6093573214904
323.645937612907;39.3212009285286
323.66754112656;39.078019384252
323.689144640212;38.8857068333725
323.710748153865;38.7559574123724
323.732351667517;38.6895638091983
323.75395518117;38.6840351917731
323.775558694822;38.7401356939189
323.797162208475;38.8549552786839
323.818765722127;39.0186905391292
323.84036923578;39.2153732724475
323.861972749432;39.4320604526878
323.883576263085;39.6522157948536
323.905179776737;39.8604033160603
323.92678329039;40.0443504820356
323.948386804042;40.1942839130344
323.969990317695;40.2966955791561
323.991593831347;40.3340071401143
324.013197345;40.3041717864894
324.034800858652;40.2121415524134
324.056404372305;40.065135673832
324.078007885957;39.8719548766751
324.09961139961;39.6362599449144
324.121214913262;39.3609306385852
324.142818426915;39.0690807044591
324.164421940567;38.7929677841076
324.18602545422;38.5431847339899
324.207628967872;38.3141878329596
324.229232481525;38.1045508709931
324.250835995177;37.9270277707005
324.27243950883;37.7979179871465
324.294043022482;37.716506816846
324.315646536135;37.6763018065926
324.337250049787;37.6754779314275
324.35885356344;37.710418232355
324.380457077092;37.7740535199126
324.402060590745;37.8592155900438
324.423664104397;37.955084576182
324.44526761805;38.0489316382752
324.466871131702;38.1359552084138
324.488474645355;38.2118749973907
324.510078159007;38.2699060344841
324.53168167266;38.3078487679177
324.553285186312;38.3277237962829
324.574888699965;38.3270556550165
324.596492213617;38.3057317757518
324.61809572727;38.2614639592593
324.639699240922;38.1936687979551
324.661302754575;38.1028863009959
324.682906268227;37.989070847631
324.70450978188;37.8550233875099
324.726113295532;37.7079606724638
324.747716809185;37.5517544568883
324.769320322837;37.3831613075587
