Name;BF_ESR_01_3602s_Z_gon_40dg_result

Recipe
Accumulations;5;Number of accumulations
RetryCount;0;Number of retries on error
AbortOnError;True;Abort on error
EnableQFactorMeasurement;False;Enable/Disable q-Factor measurement
Bfrom;313;B from
Bto;363;B to
SweepTime;60;Sweep time
Modulation;0.2;Modulation
ModulationFreq;100;Modulation
BHoldEnabled;False;B hold enabled
BHold;0;B hold
MicrowavePower;2;Microwave power
MarkerEnabled;False;
MarkerStartField;0;
MarkerEndField;0;
Mode;;
KineticGFact;0;
KineticTotalTransientTime;0;
KineticTimeResolution;0;
TempFrom;5;
TempUseSlope;False;
TempTo;5;
TempdT;1;
TempSetupTime;0;
GonFrom;0;
GonTo;180;
GonSteps;20;
XRayEnabled;False;
XRayTime;3;
XRayVoltage;40;
XRayCurrent;0.5;
UVEnabled;False;
UVIntensity;0;
UVTime;0;
UVLeadTime;0;
UVWavelength;0;
PowSweepFrom;1;
PowSweepTo;5;
PowSweepSteps;5;
AmpModSweepFrom;0;
AmpModSweepTo;1;
AmpModSweepSteps;10;
ExtTriggerEnabled;False;
ExtTrigLeadTime;0;
ExtTrigOnTime;5;

Meas
BField [mT];MW_Absorption []
313.019457015991;105.159240308049
313.041063152236;104.678217873871
313.06266928848;104.222160505209
313.084275424725;103.787575230303
313.105881560969;103.376208923231
313.127487697214;102.976925485409
313.149093833458;102.586313848495
313.170699969703;102.207932559026
313.192306105947;101.83773279376
313.213912242192;101.470901185765
313.235518378436;101.104338313966
313.257124514681;100.745507907605
313.278730650925;100.397716222084
313.30033678717;100.072712105857
313.321942923414;99.7718605902272
313.343549059659;99.4926119817457
313.365155195903;99.2371928014949
313.386761332148;99.0006927654457
313.408367468392;98.77683688661
313.429973604637;98.5744839026794
313.451579740881;98.4150726293539
313.473185877126;98.2939552443222
313.49479201337;98.2053882518649
313.516398149615;98.1497564115303
313.538004285859;98.1326236575526
313.559610422104;98.1482666717134
313.581216558348;98.1812735757998
313.602822694593;98.2174876579307
313.624428830837;98.2469944302763
313.646034967082;98.2653037490184
313.667641103326;98.2653058635097
313.689247239571;98.2398807273851
313.710853375815;98.1852524670291
313.73245951206;98.0994752912336
313.754065648304;97.9973388507046
313.775671784549;97.8794011837799
313.797277920793;97.7464725195142
313.818884057038;97.6113354009779
313.840490193282;97.486503254996
313.862096329527;97.3745314734498
313.883702465771;97.2807082601264
313.905308602016;97.2052030372559
313.92691473826;97.1385252840411
313.948520874505;97.0773590764357
313.970127010749;97.0230895309924
313.991733146994;96.9784203540162
314.013339283239;96.9391367569343
314.034945419483;96.8947880591818
314.056551555728;96.8376507684345
314.078157691972;96.7778441863773
314.099763828217;96.728410460079
314.121369964461;96.6881864861048
314.142976100706;96.6493599053646
314.16458223695;96.6203517032507
314.186188373195;96.6098350787852
314.207794509439;96.6216777739692
314.229400645684;96.6575997166325
314.251006781928;96.7176555045785
314.272612918173;96.8111301246773
314.294219054417;96.9388773787024
314.315825190662;97.0797433866095
314.337431326906;97.2259531939013
314.359037463151;97.3843830940928
314.380643599395;97.5506458696039
314.40224973564;97.7034924886656
314.423855871884;97.8277493749443
314.445462008129;97.9117750277885
314.467068144373;97.9532165601748
314.488674280618;97.9530813332839
314.510280416862;97.8807312758422
314.531886553107;97.7297652873107
314.553492689351;97.5021200555429
314.575098825596;97.2099808121214
314.59670496184;96.8826618317265
314.618311098085;96.5323283971096
314.639917234329;96.1531802409619
314.661523370574;95.7574693517881
314.683129506818;95.3843822242555
314.704735643063;95.0435674229636
314.726341779307;94.7427800164496
314.747947915552;94.4751119155604
314.769554051796;94.2226810469768
314.791160188041;93.981536632457
314.812766324285;93.8187714723619
314.83437246053;93.7124178627121
314.855978596774;93.6446387131885
314.877584733019;93.6136374415403
314.899190869263;93.6079386746248
314.920797005508;93.6027357512483
314.942403141752;93.5849523137346
314.964009277997;93.5569983538093
314.985615414241;93.5317960763689
315.007221550486;93.5139671970561
315.02882768673;93.4970620786012
315.050433822975;93.4838947533946
315.072039959219;93.4791982013806
315.093646095464;93.4888969508353
315.115252231708;93.5257401377597
315.136858367953;93.5953900586248
315.158464504197;93.6939955726017
315.180070640442;93.812622353959
315.201676776686;93.9561838222758
315.223282912931;94.130272155709
315.244889049175;94.3315887468538
315.26649518542;94.561003319219
315.288101321664;94.8210023006144
315.309707457909;95.0957839553805
315.331313594153;95.3601022538728
315.352919730398;95.6046569905771
315.374525866642;95.8355445532937
315.396132002887;96.0502254817648
315.417738139131;96.2327647509911
315.439344275376;96.3629234030971
315.460950411621;96.4334216818076
315.482556547865;96.4559296002544
315.504162684109;96.4427294671997
315.525768820354;96.3958510044366
315.547374956599;96.310150694143
315.568981092843;96.1906995234842
315.590587229088;96.0546434843855
315.612193365332;95.9192775710266
315.633799501577;95.7879930254746
315.655405637821;95.6592713347249
315.677011774066;95.5395608968073
315.69861791031;95.4439506058728
315.720224046555;95.3734326869501
315.741830182799;95.3146893150803
315.763436319044;95.2667350865806
315.785042455288;95.2300830447532
315.806648591533;95.200154376373
315.828254727777;95.1677175876133
315.849860864022;95.1361723940572
315.871467000266;95.1170368727823
315.893073136511;95.1083044909484
315.914679272755;95.1004392899801
315.936285409;95.0898318872898
315.957891545244;95.0831303828915
315.979497681489;95.0923574318844
316.001103817733;95.1357722135072
316.022709953978;95.2024817887595
316.044316090222;95.2679173230094
316.065922226467;95.3270787911303
316.087528362711;95.3905588882637
316.109134498956;95.4526309494538
316.1307406352;95.5085344264616
316.152346771445;95.5508373568508
316.173952907689;95.5588055650703
316.195559043934;95.5164159144719
316.217165180178;95.4186168960241
316.238771316423;95.2610776561501
316.260377452667;95.0413258927549
316.281983588912;94.7800114896034
316.303589725156;94.4901857374243
316.325195861401;94.1612607555528
316.346801997645;93.7890828078603
316.36840813389;93.3751723992593
316.390014270134;92.9508575005633
316.411620406379;92.5539858238161
316.433226542623;92.1770886789394
316.454832678868;91.8102993578621
316.476438815112;91.4511254957569
316.498044951357;91.0928912066243
316.519651087601;90.7263317403655
316.541257223846;90.3563706104745
316.56286336009;90.0224046550694
316.584469496335;89.7439432127826
316.606075632579;89.5210150315548
316.627681768824;89.3404810143158
316.649287905068;89.1918240386695
316.670894041313;89.0740794100255
316.692500177557;88.9941777848653
316.714106313802;88.9553346504061
316.735712450046;88.9533844577473
316.757318586291;88.9789708535384
316.778924722535;89.018626529606
316.80053085878;89.0640074764915
316.822136995024;89.1053027599066
316.843743131269;89.1326740970275
316.865349267513;89.1512884071529
316.886955403758;89.1703569992852
316.908561540002;89.1910720575064
316.930167676247;89.2102587023729
316.951773812491;89.2136941204765
316.973379948736;89.2029168597415
316.994986084981;89.1916364752917
317.016592221225;89.1881199438233
317.03819835747;89.1945431673617
317.059804493714;89.224608534525
317.081410629959;89.2865502835059
317.103016766203;89.3802766874273
317.124622902448;89.5075114590635
317.146229038692;89.6735612377913
317.167835174937;89.8661303585894
317.189441311181;90.0687844437518
317.211047447426;90.2732802027424
317.23265358367;90.4676254425118
317.254259719915;90.6354305844927
317.275865856159;90.7630285367513
317.297471992404;90.8384241744871
317.319078128648;90.8522121907016
317.340684264893;90.7979003179651
317.362290401137;90.6805254169015
317.383896537382;90.5123496733912
317.405502673626;90.2986836020806
317.427108809871;90.037031850103
317.448714946115;89.7351385282747
317.47032108236;89.4203141287921
317.491927218604;89.1203755446139
317.513533354849;88.8431666961882
317.535139491093;88.5788921031285
317.556745627338;88.3147027632475
317.578351763582;88.060955116512
317.599957899827;87.8373503042037
317.621564036071;87.6280549080631
317.643170172316;87.407569103509
317.66477630856;87.1590624344521
317.686382444805;86.8694473924437
317.707988581049;86.5447012324021
317.729594717294;86.1995120657621
317.751200853538;85.8375397622042
317.772806989783;85.4504443612021
317.794413126027;85.0595723420809
317.816019262272;84.6888573220597
317.837625398516;84.3476179955607
317.859231534761;84.0307895013501
317.880837671005;83.7249276872132
317.90244380725;83.4411580370054
317.924049943494;83.1978034991344
317.945656079739;82.9990770427671
317.967262215983;82.8450287058849
317.988868352228;82.7309453475474
318.010474488472;82.6516245816
318.032080624717;82.6035353485898
318.053686760961;82.582441572442
318.075292897206;82.5820561072092
318.09689903345;82.5898559639911
318.118505169695;82.5928319104945
318.140111305939;82.5861888479152
318.161717442184;82.5679636563293
318.183323578428;82.5355531008965
318.204929714673;82.4870069082865
318.226535850917;82.4252053591595
318.248141987162;82.3525585096141
318.269748123406;82.2657627345436
318.291354259651;82.1673751196108
318.312960395895;82.06882076185
318.33456653214;81.980497759272
318.356172668384;81.9015846918182
318.377778804629;81.8255873251684
318.399384940873;81.7481184995216
318.420991077118;81.6703990733176
318.442597213362;81.5905079649075
318.464203349607;81.4971722179131
318.485809485851;81.3785237043544
318.507415622096;81.2325181420664
318.52902175834;81.0612937719427
318.550627894585;80.8644307495574
318.57223403083;80.6383960600091
318.593840167074;80.3819718015695
318.615446303319;80.1054045533028
318.637052439563;79.8225275276445
318.658658575808;79.5379591415206
318.680264712052;79.2508149604909
318.701870848297;78.965899688577
318.723476984541;78.693852800649
318.745083120786;78.4504474637326
318.76668925703;78.248274907921
318.788295393275;78.0822355030647
318.809901529519;77.9557912364059
318.831507665764;77.877691460964
318.853113802008;77.850693298382
318.874719938253;77.8634106743875
318.896326074497;77.9043963019354
318.917932210742;77.9687738608083
318.939538346986;78.0571165730806
318.961144483231;78.1602322890438
318.982750619475;78.2609800303305
319.00435675572;78.3620423208915
319.025962891964;78.4638945312906
319.047569028209;78.5441837298874
319.069175164453;78.5867946317394
319.090781300698;78.597668904187
319.112387436942;78.5885414968862
319.133993573187;78.5620483475926
319.155599709431;78.5149435130175
319.177205845676;78.453267473954
319.19881198192;78.3825548749595
319.220418118165;78.300725575606
319.242024254409;78.2046319004157
319.263630390654;78.0993307946575
319.285236526898;77.9895834027988
319.306842663143;77.87303638471
319.328448799387;77.744838426259
319.350054935632;77.6064890372443
319.371661071876;77.4525002214158
319.393267208121;77.2706232545005
319.414873344365;77.0552827633847
319.43647948061;76.8127595461335
319.458085616854;76.5421652355326
319.479691753099;76.236089783955
319.501297889343;75.8840915464159
319.522904025588;75.4852555529628
319.544510161832;75.0456330130849
319.566116298077;74.5803254645156
319.587722434321;74.0998984417175
319.609328570566;73.5995111724754
319.63093470681;73.0662606045541
319.652540843055;72.501245466395
319.674146979299;71.9368647229923
319.695753115544;71.3896158197384
319.717359251788;70.870491391563
319.738965388033;70.4024171259016
319.760571524277;70.0080447139122
319.782177660522;69.7099676776451
319.803783796766;69.4916563976469
319.825389933011;69.3448990188932
319.846996069255;69.2703956148138
319.8686022055;69.2680032597022
319.890208341744;69.3403570877179
319.911814477989;69.4743217593735
319.933420614233;69.6476573906706
319.955026750478;69.8424294004487
319.976632886722;70.0475096837854
319.998239022967;70.2583055417961
320.019845159211;70.4656938116512
320.041451295456;70.6650943087781
320.0630574317;70.8519077135975
320.084663567945;71.0221316496331
320.10626970419;71.1772082287002
320.127875840434;71.3242090489196
320.149481976679;71.4693325990132
320.171088112923;71.6153630181369
320.192694249168;71.7579976141917
320.214300385412;71.9058150651773
320.235906521657;72.0723879663656
320.257512657901;72.2636030658248
320.279118794146;72.468892014396
320.30072493039;72.6712241330799
320.322331066635;72.8645248585248
320.343937202879;73.047974833681
320.365543339124;73.2170385240993
320.387149475368;73.3680171492333
320.408755611613;73.4975520216723
320.430361747857;73.5975825810945
320.451967884102;73.656088926986
320.473574020346;73.6626739733098
320.495180156591;73.6234431699868
320.516786292835;73.5448601834403
320.53839242908;73.4182659460632
320.559998565324;73.2368405717147
320.581604701569;72.9991183139859
320.603210837813;72.7070873105293
320.624816974058;72.3666411881624
320.646423110302;71.985841843619
320.668029246547;71.5719085777386
320.689635382791;71.1302556104154
320.711241519036;70.6692950001834
320.73284765528;70.181766739494
320.754453791525;69.6589977767462
320.776059927769;69.120210500675
320.797666064014;68.5970189516465
320.819272200258;68.1158548248747
320.840878336503;67.6852639495857
320.862484472747;67.2969064964672
320.884090608992;66.9404507832185
320.905696745236;66.6077467731663
320.927302881481;66.2968608727508
320.948909017725;66.0194948505734
320.97051515397;65.7755327988595
320.992121290214;65.5433227972614
321.013727426459;65.3038814742499
321.035333562703;65.0575800219029
321.056939698948;64.8114287754383
321.078545835192;64.5647679577394
321.100151971437;64.310067028604
321.121758107681;64.0424734874488
321.143364243926;63.7669392017089
321.16497038017;63.4918326893646
321.186576516415;63.2189441016956
321.208182652659;62.9516679610881
321.229788788904;62.6977554741294
321.251394925148;62.4557378444954
321.273001061393;62.2258980424046
321.294607197637;62.0106479836613
321.316213333882;61.810413754716
321.337819470126;61.6255192696629
321.359425606371;61.4496412441857
321.381031742615;61.2707696964071
321.40263787886;61.0843437511546
321.424244015104;60.8983037418116
321.445850151349;60.7120577062922
321.467456287593;60.5151131179748
321.489062423838;60.3084672004215
321.510668560082;60.1082698341748
321.532274696327;59.923013328134
321.553880832572;59.7489348508486
321.575486968816;59.5846539909501
321.59709310506;59.4411025678984
321.618699241305;59.332677961274
321.64030537755;59.2707661286895
321.661911513794;59.2577611673991
321.683517650039;59.2927440036001
321.705123786283;59.3777739743476
321.726729922528;59.5100439990839
321.748336058772;59.6740122839801
321.769942195017;59.8627808389211
321.791548331261;60.0834143690138
321.813154467506;60.3386964022988
321.83476060375;60.6083661750329
321.856366739995;60.8696722103503
321.877972876239;61.1278989754973
321.899579012484;61.3783510641077
321.921185148728;61.6058958648803
321.942791284973;61.8109318794838
321.964397421217;62.0008255066114
321.986003557462;62.182737099946
322.007609693706;62.358620995276
322.029215829951;62.5258874142555
322.050821966195;62.6863521449661
322.07242810244;62.8309715061454
322.094034238684;62.9537347503112
322.115640374929;63.0605197402656
322.137246511173;63.1576695020487
322.158852647418;63.2392587753876
322.180458783662;63.2958751994722
322.202064919907;63.3163359243809
322.223671056151;63.2935990539239
322.245277192396;63.2245978823676
322.26688332864;63.112511107612
322.288489464885;62.9602320803699
322.310095601129;62.771489152577
322.331701737374;62.5504935175718
322.353307873618;62.290593204179
322.374914009863;61.9894715262874
322.396520146107;61.651106704778
322.418126282352;61.2893504919631
322.439732418596;60.9226843737088
322.461338554841;60.5558791662339
322.482944691085;60.1905371738355
322.50455082733;59.8383620202415
322.526156963574;59.5152051037545
322.547763099819;59.228111448416
322.569369236063;58.972015282376
322.590975372308;58.7383381663755
322.612581508552;58.5180146030711
322.634187644797;58.2998177402483
322.655793781041;58.0775531865689
322.677399917286;57.845705076563
322.69900605353;57.6026995312324
322.720612189775;57.3515740061252
322.742218326019;57.0917856988103
322.763824462264;56.820236757688
322.785430598508;56.5271817175493
322.807036734753;56.2092689296008
322.828642870997;55.8785082342628
322.850249007242;55.5464514670405
322.871855143486;55.2163861446694
322.893461279731;54.8965975855289
322.915067415975;54.6035140334323
322.93667355222;54.33301408654
322.958279688464;54.0838367859954
322.979885824709;53.8698385687637
323.001491960953;53.6974546190944
323.023098097198;53.5614615376488
323.044704233442;53.4556956835198
323.066310369687;53.3573265562722
323.087916505932;53.2574732144498
323.109522642176;53.1607470919938
323.131128778421;53.0680765252138
323.152734914665;52.9617639414914
323.17434105091;52.8327166320566
323.195947187154;52.6750816295691
323.217553323399;52.4727717075128
323.239159459643;52.215412019966
323.260765595888;51.905737158817
323.282371732132;51.5571911596821
323.303977868377;51.1764339850719
323.325584004621;50.7749482698655
323.347190140866;50.3675729869828
323.36879627711;49.96832877892
323.390402413355;49.5952166976837
323.412008549599;49.2665432296144
323.433614685844;48.997645918785
323.455220822088;48.8024850025525
323.476826958333;48.6822486474572
323.498433094577;48.6416728012737
323.520039230822;48.6941112241883
323.541645367066;48.8466899582582
323.563251503311;49.0819650643747
323.584857639555;49.3857759150504
323.6064637758;49.7439725678373
323.628069912044;50.1381701662985
323.649676048289;50.549640116914
323.671282184533;50.9569426474647
323.692888320778;51.3398728840363
323.714494457022;51.6967100453361
323.736100593267;52.0282231512222
323.757706729511;52.3260945713252
323.779312865756;52.5836114536869
323.800919002;52.8023283049148
323.822525138245;52.986456628976
323.844131274489;53.1380147090743
323.865737410734;53.2613294745651
323.887343546978;53.3673088740288
323.908949683223;53.4620552365322
323.930555819467;53.5426760886109
323.952161955712;53.6109715232096
323.973768091956;53.6713842281218
323.995374228201;53.7265590718079
324.016980364445;53.7774391948899
324.03858650069;53.8156094656915
324.060192636934;53.8312542740745
324.081798773179;53.8155753968515
324.103404909423;53.757699967895
324.125011045668;53.6644004831754
324.146617181912;53.5516687223102
324.168223318157;53.4169962165664
324.189829454401;53.245484182374
324.211435590646;53.0288302794383
324.23304172689;52.7734230835759
324.254647863135;52.4968138430321
324.276253999379;52.1979066004863
324.297860135624;51.8783050153652
324.319466271868;51.5451438784068
324.341072408113;51.190412684883
324.362678544357;50.798260090514
324.384284680602;50.3640662022188
324.405890816846;49.9134467436758
324.427496953091;49.4591027484408
324.449103089335;48.9892553048613
324.47070922558;48.509104184783
324.492315361824;48.0320726578959
324.513921498069;47.5561693616407
324.535527634314;47.0791048407829
324.557133770558;46.6224341100941
324.578739906802;46.2039375775038
324.600346043047;45.8239369008448
324.621952179292;45.4804807610592
324.643558315536;45.1673705904409
324.665164451781;44.8763634541255
324.686770588025;44.5997143721354
324.70837672427;44.3285589323757
324.729982860514;44.0530609367412
324.751588996759;43.7603372184628
324.773195133003;43.4316136040071
