Name;BF_ESR_01_14400s_X_gon_180dg_result

Recipe
Accumulations;5;Number of accumulations
RetryCount;0;Number of retries on error
AbortOnError;True;Abort on error
EnableQFactorMeasurement;False;Enable/Disable q-Factor measurement
Bfrom;313;B from
Bto;363;B to
SweepTime;60;Sweep time
Modulation;0.2;Modulation
ModulationFreq;100;Modulation
BHoldEnabled;False;B hold enabled
BHold;0;B hold
MicrowavePower;2;Microwave power
MarkerEnabled;False;
MarkerStartField;0;
MarkerEndField;0;
Mode;;
KineticGFact;0;
KineticTotalTransientTime;0;
KineticTimeResolution;0;
TempFrom;5;
TempUseSlope;False;
TempTo;5;
TempdT;1;
TempSetupTime;0;
GonFrom;0;
GonTo;180;
GonSteps;20;
XRayEnabled;False;
XRayTime;3;
XRayVoltage;40;
XRayCurrent;0.5;
UVEnabled;False;
UVIntensity;0;
UVTime;0;
UVLeadTime;0;
UVWavelength;0;
PowSweepFrom;1;
PowSweepTo;5;
PowSweepSteps;5;
AmpModSweepFrom;0;
AmpModSweepTo;1;
AmpModSweepSteps;10;
ExtTriggerEnabled;False;
ExtTrigLeadTime;0;
ExtTrigOnTime;5;

Meas
BField [mT];MW_Absorption []
313.010243606567;111.370113572813
313.031857482554;111.604554720516
313.05347135854;111.851644509157
313.075085234527;112.103932383485
313.096699110513;112.361334756168
313.118312986499;112.609129601121
313.139926862486;112.82790028449
313.161540738472;113.007712467256
313.183154614458;113.141563154181
313.204768490445;113.230367584485
313.226382366431;113.277230197475
313.247996242418;113.27738236221
313.269610118404;113.22818778843
313.29122399439;113.146821772577
313.312837870377;113.049619718012
313.334451746363;112.941071634043
313.35606562235;112.828835619492
313.377679498336;112.715821564994
313.399293374322;112.594549720489
313.420907250309;112.455568761603
313.442521126295;112.288590385402
313.464135002281;112.085043662077
313.485748878268;111.841152630998
313.507362754254;111.546531237947
313.528976630241;111.192074713614
313.550590506227;110.791779039442
313.572204382213;110.35844236128
313.5938182582;109.8930163802
313.615432134186;109.390864712142
313.637046010173;108.860743586772
313.658659886159;108.324979660233
313.680273762145;107.818526999408
313.701887638132;107.353674057714
313.723501514118;106.934277367951
313.745115390104;106.574182984685
313.766729266091;106.282390639513
313.788343142077;106.057002670211
313.809957018064;105.886394845912
313.83157089405;105.765361708423
313.853184770036;105.687345945541
313.874798646023;105.639385688937
313.896412522009;105.618998935482
313.918026397996;105.613797800503
313.939640273982;105.593060269303
313.961254149968;105.526873473614
313.982868025955;105.413931663054
314.004481901941;105.272046879673
314.026095777927;105.107278300871
314.047709653914;104.912229537592
314.0693235299;104.682049496933
314.090937405887;104.417533008905
314.112551281873;104.127115674343
314.134165157859;103.826051490406
314.155779033846;103.52809136196
314.177392909832;103.243204571804
314.199006785818;102.974504427687
314.220620661805;102.736676657299
314.242234537791;102.53896122031
314.263848413778;102.370189732812
314.285462289764;102.22854060893
314.30707616575;102.128935069124
314.328690041737;102.075155145321
314.350303917723;102.048676661379
314.37191779371;102.038878436152
314.393531669696;102.040714964317
314.415145545682;102.045462642659
314.436759421669;102.046098592939
314.458373297655;102.040123296003
314.479987173641;102.01178664044
314.501601049628;101.941793145549
314.523214925614;101.848875170522
314.544828801601;101.735819050096
314.566442677587;101.585143269386
314.588056553573;101.389547546276
314.60967042956;101.162627912358
314.631284305546;100.914280292278
314.652898181533;100.662606556324
314.674512057519;100.4268940765
314.696125933505;100.214445361114
314.717739809492;100.018083250803
314.739353685478;99.8306724255145
314.760967561464;99.6632064825402
314.782581437451;99.5322070560858
314.804195313437;99.4320863846883
314.825809189424;99.3557277734591
314.84742306541;99.3021881279623
314.869036941396;99.268416815563
314.890650817383;99.2527967237241
314.912264693369;99.2613449607983
314.933878569356;99.2970223565224
314.955492445342;99.3567488021411
314.977106321328;99.4364777083919
314.998720197315;99.5348438767394
315.020334073301;99.6546000599889
315.041947949287;99.7949119269114
315.063561825274;99.9492242971412
315.08517570126;100.117687812857
315.106789577247;100.29300682907
315.128403453233;100.441166043493
315.150017329219;100.556833892769
315.171631205206;100.65384612423
315.193245081192;100.733062287806
315.214858957178;100.784063398565
315.236472833165;100.79700902809
315.258086709151;100.775360032626
315.279700585138;100.724247488235
315.301314461124;100.645642427983
315.32292833711;100.543187501922
315.344542213097;100.423144964103
315.366156089083;100.286966863487
315.38776996507;100.137559252113
315.409383841056;99.9822150520517
315.430997717042;99.8052148027218
315.452611593029;99.5837703170069
315.474225469015;99.3284279805212
315.495839345001;99.0637112919957
315.517453220988;98.7937352228817
315.539067096974;98.5158954405679
315.560680972961;98.2373512330094
315.582294848947;97.9726317057817
315.603908724933;97.7229193125786
315.62552260092;97.4812256975284
315.647136476906;97.2409810701661
315.668750352893;97.0094690477276
315.690364228879;96.8016024181059
315.711978104865;96.619491470795
315.733591980852;96.462202692466
315.755205856838;96.3259520075427
315.776819732824;96.2029877935293
315.798433608811;96.0871219996823
315.820047484797;95.9747697433993
315.841661360784;95.8624227907043
315.86327523677;95.7597060096794
315.884889112756;95.6693900497606
315.906502988743;95.5788020714832
315.928116864729;95.4830757729695
315.949730740715;95.3894743200811
315.971344616702;95.3021387840205
315.992958492688;95.2144439327947
316.014572368675;95.1187794347264
316.036186244661;95.0187018171819
316.057800120647;94.9172651466628
316.079413996634;94.8107324151898
316.10102787262;94.6970203230305
316.122641748607;94.5774636272449
316.144255624593;94.4568636032812
316.165869500579;94.3392757614409
316.187483376566;94.2305720099799
316.209097252552;94.1413357666643
316.230711128538;94.0763967790878
316.252325004525;94.0429437841586
316.273938880511;94.0349324742769
316.295552756498;94.0416411524421
316.317166632484;94.0581425821737
316.33878050847;94.0875057687101
316.360394384457;94.1292263186856
316.382008260443;94.1702789113489
316.40362213643;94.2039144657883
316.425236012416;94.2319799474771
316.446849888402;94.2568649608661
316.468463764389;94.2778657632682
316.490077640375;94.2918779571933
316.511691516361;94.3012814998273
316.533305392348;94.3054652370072
316.554919268334;94.2974003291149
316.576533144321;94.2747113567349
316.598147020307;94.2417408970432
316.619760896293;94.1920721452613
316.64137477228;94.1123765592794
316.662988648266;93.993557371756
316.684602524253;93.8336817122296
316.706216400239;93.6360320310212
316.727830276225;93.4025243141412
316.749444152212;93.1299877187007
316.771058028198;92.8170142974339
316.792671904184;92.4749184692845
316.814285780171;92.1336855733155
316.835899656157;91.8061086676809
316.857513532144;91.4945945555667
316.87912740813;91.2037823214984
316.900741284116;90.9556279362163
316.922355160103;90.771719497742
316.943969036089;90.6563570437509
316.965582912076;90.6005032857673
316.987196788062;90.5984205864587
317.008810664048;90.6363213154003
317.030424540035;90.7054525043752
317.052038416021;90.7976492556721
317.073652292007;90.9059405581858
317.095266167994;91.0217789741689
317.11688004398;91.1350046982534
317.138493919967;91.2360922343775
317.160107795953;91.3187292965758
317.181721671939;91.381019898143
317.203335547926;91.4220180763093
317.224949423912;91.4356081060361
317.246563299899;91.4248903094401
317.268177175885;91.4115359271677
317.289791051871;91.4106422940296
317.311404927858;91.4233279097007
317.333018803844;91.4463810595136
317.35463267983;91.4703580915014
317.376246555817;91.4917599039999
317.397860431803;91.5176234454087
317.41947430779;91.566335087089
317.441088183776;91.6493911291304
317.462702059762;91.7519908830303
317.484315935749;91.8577923429489
317.505929811735;91.9754779069771
317.527543687722;92.1165919348547
317.549157563708;92.2627682071972
317.570771439694;92.397029080677
317.592385315681;92.5155263492741
317.613999191667;92.6203004636684
317.635613067653;92.697031863212
317.65722694364;92.7216801541827
317.678840819626;92.6998808570688
317.700454695613;92.6422778020863
317.722068571599;92.5360586454881
317.743682447585;92.3583376199625
317.765296323572;92.1043954234285
317.786910199558;91.7787270877838
317.808524075544;91.3949766494707
317.830137951531;90.9742050964275
317.851751827517;90.5278925681855
317.873365703504;90.0620625066146
317.89497957949;89.5973273121578
317.916593455476;89.1599182361618
317.938207331463;88.7594053053055
317.959821207449;88.3934986404059
317.981435083436;88.0600178531814
318.003048959422;87.7557482486068
318.024662835408;87.4993379653857
318.046276711395;87.3043431344867
318.067890587381;87.1724510659504
318.089504463367;87.0966259050177
318.111118339354;87.0693036186875
318.13273221534;87.0868198651289
318.154346091327;87.1467821038816
318.175959967313;87.2408412352088
318.197573843299;87.3637953635672
318.219187719286;87.5196406284886
318.240801595272;87.7093807496644
318.262415471259;87.9299452030544
318.284029347245;88.1817886115503
318.305643223231;88.4638240578884
318.327257099218;88.7612584287998
318.348870975204;89.0544400374389
318.37048485119;89.3425850280105
318.392098727177;89.6314042966249
318.413712603163;89.9177729506027
318.43532647915;90.1890025267365
318.456940355136;90.4417005216835
318.478554231122;90.6826985506567
318.500168107109;90.9083104194652
318.521781983095;91.1227596510117
318.543395859082;91.3327707393864
318.565009735068;91.5335651309078
318.586623611054;91.7213051314321
318.608237487041;91.9020620441432
318.629851363027;92.0817947534744
318.651465239013;92.2656837676786
318.673079115;92.4533056094207
318.694692990986;92.6265331821873
318.716306866973;92.7793939523472
318.737920742959;92.9178066757113
318.759534618945;93.0367501904811
318.781148494932;93.1199425890044
318.802762370918;93.156653242613
318.824376246904;93.1428301305342
318.845990122891;93.0787990649357
318.867603998877;92.9643050314299
318.889217874864;92.8067058221157
318.91083175085;92.6164371280166
318.932445626836;92.4016548323579
318.954059502823;92.171893879379
318.975673378809;91.9396760409659
318.997287254796;91.7152345780669
319.018901130782;91.5050571917472
319.040515006768;91.3167422694907
319.062128882755;91.1563154051845
319.083742758741;91.0344281323527
319.105356634727;90.9584548341641
319.126970510714;90.9246591586838
319.1485843867;90.919914835391
319.170198262687;90.9384400891096
319.191812138673;90.9771928411521
319.213426014659;91.029446415193
319.235039890646;91.092566731884
319.256653766632;91.1606605864167
319.278267642619;91.2239769829331
319.299881518605;91.2745439337757
319.321495394591;91.304546461051
319.343109270578;91.3094545731678
319.364723146564;91.2907854370535
319.38633702255;91.2612515560151
319.407950898537;91.227993884638
319.429564774523;91.1913057035611
319.45117865051;91.1655219553104
319.472792526496;91.1790014314383
319.494406402482;91.2424484554019
319.516020278469;91.3387530811985
319.537634154455;91.4606489466233
319.559248030441;91.6181493228234
319.580861906428;91.8082910528984
319.602475782414;92.0199587728753
319.624089658401;92.2398747400994
319.645703534387;92.4544000660011
319.667317410373;92.6453050392692
319.68893128636;92.8075055149348
319.710545162346;92.942979963037
319.732159038333;93.0450436970336
319.753772914319;93.0947803173305
319.775386790305;93.0919165484868
319.797000666292;93.0529580774417
319.818614542278;92.9901099794783
319.840228418264;92.9160861609928
319.861842294251;92.8297056169105
319.883456170237;92.7306586735791
319.905070046224;92.6336229293532
319.92668392221;92.5547152641583
319.948297798196;92.4941606806789
319.969911674183;92.4459589795892
319.991525550169;92.4067824483969
320.013139426156;92.3812223006987
320.034753302142;92.3803332078494
320.056367178128;92.4087245605047
320.077981054115;92.4739222881214
320.099594930101;92.5794290499712
320.121208806087;92.7293542578062
320.142822682074;92.9233476742068
320.16443655806;93.1562708062685
320.186050434047;93.4267059560128
320.207664310033;93.7357856968596
320.229278186019;94.0820843865327
320.250892062006;94.4600497618637
320.272505937992;94.8549018915884
320.294119813979;95.2455447115161
320.315733689965;95.6168288194128
320.337347565951;95.9567805818689
320.358961441938;96.2546902448968
320.380575317924;96.4978817804792
320.40218919391;96.6836501921389
320.423803069897;96.8103438586303
320.445416945883;96.8584704538445
320.46703082187;96.8209443010551
320.488644697856;96.7093542510537
320.510258573842;96.5304007564685
320.531872449829;96.2862778719074
320.553486325815;95.9889055318772
320.575100201801;95.6432016180132
320.596714077788;95.2685874651594
320.618327953774;94.8876720278092
320.639941829761;94.5100661244809
320.661555705747;94.1462220122819
320.683169581733;93.8045517807762
320.70478345772;93.4885880375526
320.726397333706;93.2097207707536
320.748011209693;92.9888806659407
320.769625085679;92.8350416745949
320.791238961665;92.7408501497249
320.812852837652;92.6967916487044
320.834466713638;92.6978791650063
320.856080589624;92.7397273627926
320.877694465611;92.813952288896
320.899308341597;92.905894119891
320.920922217584;92.9976752837513
320.94253609357;93.071236820751
320.964149969556;93.1069321974406
320.985763845543;93.0898103704229
321.007377721529;93.0154424002448
321.028991597516;92.8906882052295
321.050605473502;92.7098318268497
321.072219349488;92.4542446965054
321.093833225475;92.1228159450773
321.115447101461;91.7137705116475
321.137060977447;91.2215298313321
321.158674853434;90.6676336293503
321.18028872942;90.0685691952835
321.201902605407;89.4230518405747
321.223516481393;88.7383310171288
321.245130357379;88.0347751009216
321.266744233366;87.3447184117553
321.288358109352;86.7075904302163
321.309971985339;86.1405614272413
321.331585861325;85.6420372712671
321.353199737311;85.228885955353
321.374813613298;84.9172768467457
321.396427489284;84.7091933043231
321.41804136527;84.5977736516472
321.439655241257;84.5781777964549
321.461269117243;84.6496560568703
321.48288299323;84.8025561432583
321.504496869216;85.0094989585277
321.526110745202;85.2450771360395
321.547724621189;85.4940192210195
321.569338497175;85.7579879297931
321.590952373161;86.0383693226448
321.612566249148;86.3141305090961
321.634180125134;86.5526906371748
321.655794001121;86.7459426895866
321.677407877107;86.9076750477354
321.699021753093;87.0472891777854
321.72063562908;87.1571127262437
321.742249505066;87.2352686604059
321.763863381053;87.2856148144236
321.785477257039;87.3121722957335
321.807091133025;87.323774651543
321.828705009012;87.3252373977899
321.850318884998;87.3240909166141
321.871932760984;87.3232391855964
321.893546636971;87.3169530431481
321.915160512957;87.2992485362043
321.936774388944;87.2770366623065
321.95838826493;87.2571646419401
321.980002140916;87.2428613769048
322.001616016903;87.2345370273749
322.023229892889;87.2324554283269
322.044843768876;87.2343775458634
322.066457644862;87.2383670611673
322.088071520848;87.2437450458277
322.109685396835;87.2494849140241
322.131299272821;87.2557029079668
322.152913148807;87.2642294547531
322.174527024794;87.271616521307
322.19614090078;87.2681121915996
322.217754776767;87.253223418243
322.239368652753;87.2336670162352
322.260982528739;87.2143623695096
322.282596404726;87.1973247327912
322.304210280712;87.1895825470698
322.325824156699;87.1992661274371
322.347438032685;87.231392554096
322.369051908671;87.2893056532208
322.390665784658;87.3709541262866
322.412279660644;87.4735016068849
322.43389353663;87.5975820698521
322.455507412617;87.7354969857119
322.477121288603;87.8701990799954
322.49873516459;87.9869860927388
322.520349040576;88.0801023469267
322.541962916562;88.1424598872312
322.563576792549;88.1656388632112
322.585190668535;88.1403763099847
322.606804544521;88.062555356984
322.628418420508;87.9351238054446
322.650032296494;87.7596676149031
322.671646172481;87.5472730171159
322.693260048467;87.3264856075818
322.714873924453;87.1088729937352
322.73648780044;86.8898220519912
322.758101676426;86.6676764439069
322.779715552413;86.4477013806208
322.801329428399;86.2503269549647
322.822943304385;86.0912634943896
322.844557180372;85.9617320566742
322.866171056358;85.8495280371814
322.887784932344;85.737541287036
322.909398808331;85.6091169023572
322.931012684317;85.4487348219331
322.952626560304;85.2407659774696
322.97424043629;84.9843732784106
322.995854312276;84.6866980779307
323.017468188263;84.3599321723911
323.039082064249;83.9922757561788
323.060695940236;83.5683746660996
323.082309816222;83.1106641958609
323.103923692208;82.6645043935582
323.125537568195;82.2380967256199
323.147151444181;81.8133921381059
323.168765320167;81.3917548657503
323.190379196154;81.0005039979393
323.21199307214;80.6512287275782
323.233606948127;80.3482842867517
323.255220824113;80.1017697299245
323.276834700099;79.9225491385229
323.298448576086;79.8132644095657
323.320062452072;79.7666231391269
323.341676328059;79.7683379067624
323.363290204045;79.8191375872648
323.384904080031;79.9125550303637
323.406517956018;80.043358596993
323.428131832004;80.1988835338967
323.44974570799;80.3627758830278
323.471359583977;80.5204949400966
323.492973459963;80.6639854648092
323.51458733595;80.7993334356769
323.536201211936;80.9220825565879
323.557815087922;81.0272983244407
323.579428963909;81.1116656870312
323.601042839895;81.171574705539
323.622656715881;81.2134707617106
323.644270591868;81.242842069793
323.665884467854;81.2599284919147
323.687498343841;81.2602569082615
323.709112219827;81.2442370063825
323.730726095813;81.2149735458842
323.7523399718;81.1759002526695
323.773953847786;81.1265277832601
323.795567723773;81.06257405058
323.817181599759;80.9887996822718
323.838795475745;80.9189172849574
323.860409351732;80.8643650516157
323.882023227718;80.827696105033
323.903637103704;80.8095315359615
323.925250979691;80.8149382236042
323.946864855677;80.8468081987143
323.968478731664;80.8982851392871
323.99009260765;80.9596935865302
324.011706483636;81.0249351040455
324.033320359623;81.0933496556963
324.054934235609;81.1663588534759
324.076548111596;81.2383734154163
324.098161987582;81.3035350851341
324.119775863568;81.3619541939572
324.141389739555;81.4109220632334
324.163003615541;81.4428932533244
324.184617491527;81.4451192455051
324.206231367514;81.4002860788032
324.2278452435;81.3067821087314
324.249459119487;81.175843210769
324.271072995473;81.0146499721831
324.292686871459;80.8200074035231
324.314300747446;80.5883247563
324.335914623432;80.3181065839717
324.357528499418;80.0295157461724
324.379142375405;79.7400712867002
324.400756251391;79.4435329325105
324.422370127378;79.1379406769315
324.443984003364;78.8568717742955
324.46559787935;78.6124699666988
324.487211755337;78.383550473969
324.508825631323;78.1479962978141
324.53043950731;77.8922286297118
324.552053383296;77.610097248926
324.573667259282;77.2879440100378
324.595281135269;76.9071429356853
324.616895011255;76.4578262108956
324.638508887241;75.9501659942663
324.660122763228;75.3930379042013
324.681736639214;74.7813386118575
324.703350515201;74.1145964173593
324.724964391187;73.408665863733
324.746578267173;72.6805164507565
