Name;BF_ESR_01_1800s_Z_gon_60dg_result

Recipe
Accumulations;5;Number of accumulations
RetryCount;0;Number of retries on error
AbortOnError;True;Abort on error
EnableQFactorMeasurement;False;Enable/Disable q-Factor measurement
Bfrom;313;B from
Bto;363;B to
SweepTime;60;Sweep time
Modulation;0.2;Modulation
ModulationFreq;100;Modulation
BHoldEnabled;False;B hold enabled
BHold;0;B hold
MicrowavePower;2;Microwave power
MarkerEnabled;False;
MarkerStartField;0;
MarkerEndField;0;
Mode;;
KineticGFact;0;
KineticTotalTransientTime;0;
KineticTimeResolution;0;
TempFrom;5;
TempUseSlope;False;
TempTo;5;
TempdT;1;
TempSetupTime;0;
GonFrom;0;
GonTo;180;
GonSteps;20;
XRayEnabled;False;
XRayTime;3;
XRayVoltage;40;
XRayCurrent;0.5;
UVEnabled;False;
UVIntensity;0;
UVTime;0;
UVLeadTime;0;
UVWavelength;0;
PowSweepFrom;1;
PowSweepTo;5;
PowSweepSteps;5;
AmpModSweepFrom;0;
AmpModSweepTo;1;
AmpModSweepSteps;10;
ExtTriggerEnabled;False;
ExtTrigLeadTime;0;
ExtTrigOnTime;5;

Meas
BField [mT];MW_Absorption []
313.007733001709;67.5569485442529
313.029341017991;67.4866026880726
313.050949034272;67.3575100952898
313.072557050554;67.1805560553213
313.094165066836;66.964407504496
313.115773083117;66.7181994091245
313.137381099399;66.4470792999213
313.158989115681;66.1601661429769
313.180597131963;65.8760444502643
313.202205148244;65.6280935710975
313.223813164526;65.4346379551084
313.245421180808;65.2941467530737
313.267029197089;65.2024010029315
313.288637213371;65.157538038657
313.310245229653;65.1555729294684
313.331853245934;65.1881691348666
313.353461262216;65.2412489430614
313.375069278498;65.3005962349907
313.396677294779;65.3560266709595
313.418285311061;65.4024546629007
313.439893327343;65.4375360175537
313.461501343624;65.4569406528355
313.483109359906;65.453811382784
313.504717376188;65.4295300968547
313.52632539247;65.3883175465845
313.547933408751;65.3333634184971
313.569541425033;65.271260652507
313.591149441315;65.2076336671528
313.612757457596;65.151936655162
313.634365473878;65.1068041909501
313.65597349016;65.0753526290965
313.677581506441;65.0623253283687
313.699189522723;65.0757953616614
313.720797539005;65.1308343040647
313.742405555286;65.2320102842504
313.764013571568;65.3826159217947
313.78562158785;65.5730739204421
313.807229604132;65.7926420490255
313.828837620413;66.0236554942777
313.850445636695;66.259285653749
313.872053652977;66.4952884692597
313.893661669258;66.7343079802033
313.91526968554;66.9666888258173
313.936877701822;67.1778221253778
313.958485718103;67.3609095859217
313.980093734385;67.5130761104273
314.001701750667;67.6328652524868
314.023309766948;67.7207457190671
314.04491778323;67.7750625142145
314.066525799512;67.7957406054909
314.088133815793;67.7792106445487
314.109741832075;67.7183077254217
314.131349848357;67.6146564643302
314.152957864639;67.4849965942371
314.17456588092;67.3443252701536
314.196173897202;67.2038663964339
314.217781913484;67.0697965581406
314.239389929765;66.946039137106
314.260997946047;66.8382855893136
314.282605962329;66.7512370187431
314.30421397861;66.6914761913289
314.325821994892;66.661485875142
314.347430011174;66.6551545406966
314.369038027455;66.6590105144763
314.390646043737;66.6612707266856
314.412254060019;66.6516260830665
314.433862076301;66.6231053618388
314.455470092582;66.5699356244175
314.477078108864;66.4893081167346
314.498686125146;66.3874908433389
314.520294141427;66.2732758449576
314.541902157709;66.1521635366207
314.563510173991;66.0193773934059
314.585118190272;65.8734412828533
314.606726206554;65.7197212037424
314.628334222836;65.5718892425343
314.649942239117;65.4352100690489
314.671550255399;65.3001201749638
314.693158271681;65.1472711395892
314.714766287962;64.9620624336941
314.736374304244;64.7345271308316
314.757982320526;64.4567954916082
314.779590336807;64.1350882282044
314.801198353089;63.7950738604541
314.822806369371;63.4487079553235
314.844414385653;63.0959047102288
314.866022401934;62.757694629658
314.887630418216;62.4383227407041
314.909238434498;62.1518865688338
314.930846450779;61.9257344252771
314.952454467061;61.7695258601746
314.974062483343;61.6850728722203
314.995670499624;61.675830041875
315.017278515906;61.7498146118286
315.038886532188;61.9077071903204
315.060494548469;62.1300968087137
315.082102564751;62.3994764264162
315.103710581033;62.7116458188294
315.125318597315;63.0651965247369
315.146926613596;63.4556440477155
315.168534629878;63.8589798788843
315.19014264616;64.2512611185202
315.211750662441;64.6232059093838
315.233358678723;64.9639461223709
315.254966695005;65.2686969081957
315.276574711286;65.5346153465628
315.298182727568;65.7524480376092
315.31979074385;65.9117824483097
315.341398760131;66.0221584142242
315.363006776413;66.1005961314037
315.384614792695;66.1516629058145
315.406222808976;66.1638943649754
315.427830825258;66.1265117944372
315.44943884154;66.0694144045198
315.471046857822;66.0112249665612
315.492654874103;65.9586506434586
315.514262890385;65.9089965581431
315.535870906667;65.8600694290576
315.557478922948;65.8135477913262
315.57908693923;65.7704340199099
315.600694955512;65.7259888598517
315.622302971793;65.676794500379
315.643910988075;65.6256117244833
315.665519004357;65.5661297596037
315.687127020638;65.4964830196285
315.70873503692;65.4149489005878
315.730343053202;65.314307711046
315.751951069483;65.1988663093119
315.773559085765;65.0757680659698
315.795167102047;64.9417168074768
315.816775118329;64.7833479474312
315.83838313461;64.6008562546502
315.859991150892;64.4173627487804
315.881599167174;64.2424751110583
315.903207183455;64.0691121117834
315.924815199737;63.8960876471453
315.946423216019;63.7413412530603
315.9680312323;63.6213887029548
315.989639248582;63.5340062695476
316.011247264864;63.4771277008497
316.032855281145;63.459056113995
316.054463297427;63.4791233175716
316.076071313709;63.5297459104452
316.097679329991;63.6095989413956
316.119287346272;63.7148849709169
316.140895362554;63.8351059586441
316.162503378836;63.9601554166244
316.184111395117;64.0871124821053
316.205719411399;64.214654689198
316.227327427681;64.3334494178623
316.248935443962;64.4406756616969
316.270543460244;64.5441133925057
316.292151476526;64.6465362080558
316.313759492807;64.7354721956241
316.335367509089;64.8044486402108
316.356975525371;64.8524822347143
316.378583541652;64.8791803455923
316.400191557934;64.8828707419842
316.421799574216;64.8621751866606
316.443407590498;64.8205562912528
316.465015606779;64.7680981821929
316.486623623061;64.7062484639664
316.508231639343;64.6320698998994
316.529839655624;64.5414895102311
316.551447671906;64.4333216490953
316.573055688188;64.3120223714556
316.594663704469;64.1890662028132
316.616271720751;64.0778474741596
316.637879737033;63.9794892449163
316.659487753314;63.8825851491113
316.681095769596;63.7799781587501
316.702703785878;63.6745138187772
316.724311802159;63.5707442683096
316.745919818441;63.4708816404075
316.767527834723;63.367367724376
316.789135851005;63.248728773895
316.810743867286;63.1249912482616
316.832351883568;62.9998573782142
316.85395989985;62.859290949613
316.875567916131;62.6957846499971
316.897175932413;62.5125598848996
316.918783948695;62.3134957419193
316.940391964976;62.1027337966924
316.961999981258;61.889655907966
316.98360799754;61.6867542291785
317.005216013821;61.4990665553784
317.026824030103;61.3348027802094
317.048432046385;61.1973920795127
317.070040062666;61.0797000320206
317.091648078948;60.9884487504973
317.11325609523;60.9433735946237
317.134864111512;60.948816030529
317.156472127793;60.9937860533551
317.178080144075;61.076159765502
317.199688160357;61.1870913692094
317.221296176638;61.3168918501308
317.24290419292;61.4598012646876
317.264512209202;61.612630602706
317.286120225483;61.7684573451776
317.307728241765;61.9134379052696
317.329336258047;62.04065005177
317.350944274328;62.1582663813194
317.37255229061;62.2681262155195
317.394160306892;62.3626414020868
317.415768323174;62.4353147872869
317.437376339455;62.4835925147586
317.458984355737;62.5061761329074
317.480592372019;62.4959490316314
317.5022003883;62.4583642366119
317.523808404582;62.3931811330686
317.545416420864;62.2884636792057
317.567024437145;62.146423234423
317.588632453427;61.9754152153403
317.610240469709;61.7736130409193
317.63184848599;61.5346527328111
317.653456502272;61.2580028182729
317.675064518554;60.9504070008109
317.696672534835;60.6128267667735
317.718280551117;60.2543000080746
317.739888567399;59.8994171413731
317.761496583681;59.5578338026753
317.783104599962;59.2309935921959
317.804712616244;58.9288309602757
317.826320632526;58.6659635376063
317.847928648807;58.4503947429363
317.869536665089;58.2908030044694
317.891144681371;58.1933203665376
317.912752697652;58.1472704010921
317.934360713934;58.1457441617268
317.955968730216;58.1911217061836
317.977576746497;58.2688901101152
317.999184762779;58.3570341978768
318.020792779061;58.4404920168929
318.042400795342;58.5101629828689
318.064008811624;58.5535512864845
318.085616827906;58.5432146697651
318.107224844188;58.4751178580848
318.128832860469;58.3629093745959
318.150440876751;58.208095807334
318.172048893033;58.0023331146714
318.193656909314;57.7446194454402
318.215264925596;57.4486052948661
318.236872941878;57.1341623580227
318.258480958159;56.8152835671928
318.280088974441;56.5012414841658
318.301696990723;56.2037353298489
318.323305007004;55.9364603199795
318.344913023286;55.7097980796619
318.366521039568;55.5279305784065
318.38812905585;55.3904467751116
318.409737072131;55.2997263414446
318.431345088413;55.2618762410869
318.452953104695;55.2779584395395
318.474561120976;55.3396840206146
318.496169137258;55.436201353099
318.51777715354;55.5636044969214
318.539385169821;55.7185710641138
318.560993186103;55.8932704586463
318.582601202385;56.0753748437586
318.604209218666;56.2510520147106
318.625817234948;56.4103971419472
318.64742525123;56.5483585645298
318.669033267511;56.6608038067513
318.690641283793;56.7446141701656
318.712249300075;56.7958211422044
318.733857316357;56.8099792440727
318.755465332638;56.7924657307918
318.77707334892;56.7571858837481
318.798681365202;56.7025928673551
318.820289381483;56.6303597574408
318.841897397765;56.5642045892512
318.863505414047;56.5128644187032
318.885113430328;56.4727431920244
318.90672144661;56.4449061675006
318.928329462892;56.4362911732866
318.949937479173;56.4514585442358
318.971545495455;56.4890762926492
318.993153511737;56.5453850471556
319.014761528018;56.6116954761585
319.0363695443;56.6877573907772
319.057977560582;56.7730726349664
319.079585576864;56.8652516480419
319.101193593145;56.9636373215281
319.122801609427;57.0679627197843
319.144409625709;57.1672661891479
319.16601764199;57.2544055396252
319.187625658272;57.3347209311334
319.209233674554;57.4141481603258
319.230841690835;57.4784033432535
319.252449707117;57.5176981114326
319.274057723399;57.5296712127228
319.29566573968;57.5182064356392
319.317273755962;57.4952108153838
319.338881772244;57.4700874731015
319.360489788526;57.4429100343732
319.382097804807;57.4166073938776
319.403705821089;57.3970919423316
319.425313837371;57.384770597991
319.446921853652;57.3789997590449
319.468529869934;57.3835295286036
319.490137886216;57.3979330292416
319.511745902497;57.4251646739934
319.533353918779;57.4715693269901
319.554961935061;57.5284073217213
319.576569951342;57.5779164090962
319.598177967624;57.6160461046624
319.619785983906;57.6482613818726
319.641394000187;57.6768021527152
319.663002016469;57.7113267359384
319.684610032751;57.7547675298155
319.706218049032;57.8040446825085
319.727826065314;57.8567146340241
319.749434081596;57.9053590455162
319.771042097878;57.940532956512
319.792650114159;57.9652658215719
319.814258130441;57.9823752030026
319.835866146723;57.98569685387
319.857474163004;57.9600954491555
319.879082179286;57.8920445415758
319.900690195568;57.7742277456748
319.922298211849;57.6040678418353
319.943906228131;57.3909342721982
319.965514244413;57.1471087848352
319.987122260694;56.8792324286903
320.008730276976;56.5914115580009
320.030338293258;56.2935610481249
320.05194630954;55.9980671781598
320.073554325821;55.7167592299328
320.095162342103;55.4571943508482
320.116770358385;55.2247426431973
320.138378374666;55.0318901821433
320.159986390948;54.8917431914589
320.18159440723;54.8075731348905
320.203202423511;54.7764318561549
320.224810439793;54.8040661717287
320.246418456075;54.9014222249597
320.268026472356;55.058163405345
320.289634488638;55.2640616510716
320.31124250492;55.5132362493618
320.332850521201;55.7972035397863
320.354458537483;56.1103817905653
320.376066553765;56.4339763615982
320.397674570047;56.7462243207043
320.419282586328;57.0349044048903
320.44089060261;57.2913719269222
320.462498618892;57.5076127698161
320.484106635173;57.6691491441817
320.505714651455;57.7615031012855
320.527322667737;57.7855617814984
320.548930684018;57.7517209812037
320.5705387003;57.6614226606088
320.592146716582;57.521255764975
320.613754732863;57.3470582591312
320.635362749145;57.1458152650792
320.656970765427;56.9117332981738
320.678578781709;56.6424217700775
320.70018679799;56.3519930838533
320.721794814272;56.0554598961179
320.743402830554;55.7785424558337
320.765010846835;55.5474260466082
320.786618863117;55.3615273560141
320.808226879399;55.2062350171131
320.82983489568;55.0727237791894
320.851442911962;54.9584458380811
320.873050928244;54.8622203211434
320.894658944525;54.7801767973985
320.916266960807;54.7048244246051
320.937874977089;54.6273704156808
320.95948299337;54.5407279791754
320.981091009652;54.4474100860019
321.002699025934;54.3548399663422
321.024307042216;54.2590797046995
321.045915058497;54.1409619512269
321.067523074779;53.9869552339125
321.089131091061;53.8001633282032
321.110739107342;53.58734839909
321.132347123624;53.3516012470815
321.153955139906;53.0859811581353
321.175563156187;52.7798934455935
321.197171172469;52.4322284937362
321.218779188751;52.0502751302056
321.240387205032;51.6390617218511
321.261995221314;51.1962770020588
321.283603237596;50.724419401232
321.305211253877;50.2361135763037
321.326819270159;49.7457630599843
321.348427286441;49.2548242285094
321.370035302723;48.7579115028836
321.391643319004;48.2561014481119
321.413251335286;47.7837793221838
321.434859351568;47.3586306601228
321.456467367849;46.9837482589121
321.478075384131;46.6742322289217
321.499683400413;46.4368945311629
321.521291416694;46.2595634768259
321.542899432976;46.1246228368198
321.564507449258;46.026768602182
321.586115465539;45.9710966682397
321.607723481821;45.9518493489189
321.629331498103;45.959900703372
321.650939514385;45.9967605603172
321.672547530666;46.0732448132491
321.694155546948;46.1910880969667
321.71576356323;46.342946954609
321.737371579511;46.5161177480871
321.758979595793;46.7058441154808
321.780587612075;46.913490665438
321.802195628356;47.1378695110886
321.823803644638;47.3748570707794
321.84541166092;47.6225197186247
321.867019677201;47.8848527379055
321.888627693483;48.1709397057764
321.910235709765;48.4906587909061
321.931843726046;48.8511442291205
321.953451742328;49.2462830631849
321.97505975861;49.6492579304546
321.996667774891;50.0472569690915
322.018275791173;50.454219968294
322.039883807455;50.8658963352754
322.061491823737;51.2604631954255
322.083099840018;51.6224868635827
322.1047078563;51.9439643998485
322.126315872582;52.2194806206665
322.147923888863;52.4515761778087
322.169531905145;52.64097087888
322.191139921427;52.7642068651142
322.212747937708;52.8082760841639
322.23435595399;52.7780477725697
322.255963970272;52.6830666365905
322.277571986553;52.5298152646173
322.299180002835;52.3229038024707
322.320788019117;52.0623208563316
322.342396035399;51.7572210915971
322.36400405168;51.4222583725387
322.385612067962;51.0698605401616
322.407220084244;50.7221791385166
322.428828100525;50.389684233559
322.450436116807;50.0701397889685
322.472044133089;49.7675392199417
322.49365214937;49.5013992347649
322.515260165652;49.2751270376511
322.536868181934;49.0796350878474
322.558476198215;48.9030402228338
322.580084214497;48.7330254057858
322.601692230779;48.5579397501804
322.62330024706;48.368423375734
322.644908263342;48.1588525329254
322.666516279624;47.9216054415351
322.688124295906;47.6545447702714
322.709732312187;47.3697579210576
322.731340328469;47.0665071866011
322.752948344751;46.7399819943467
322.774556361032;46.3883112186496
322.796164377314;46.0180517334506
322.817772393596;45.64541035142
322.839380409877;45.2846955010984
322.860988426159;44.9548216632227
322.882596442441;44.6657167068682
322.904204458722;44.4168395742322
322.925812475004;44.2039301042663
322.947420491286;44.0205877182848
322.969028507567;43.8837121915925
322.990636523849;43.7956823072821
323.012244540131;43.7531912657056
323.033852556413;43.7616975537345
323.055460572694;43.8190587295029
323.077068588976;43.9074351128197
323.098676605258;44.0128787107869
323.120284621539;44.1298583253241
323.141892637821;44.2489323137068
323.163500654103;44.3543114312735
323.185108670384;44.437260061531
323.206716686666;44.5034552580129
323.228324702948;44.5522620497051
323.249932719229;44.5665315524778
323.271540735511;44.5399818233326
323.293148751793;44.4804572722948
323.314756768075;44.4019940247559
323.336364784356;44.3088586362294
323.357972800638;44.1975468395918
323.37958081692;44.0603047332444
323.401188833201;43.8997364223877
323.422796849483;43.7233740504096
323.444404865765;43.5301450964928
323.466012882046;43.3252988653025
323.487620898328;43.1326060354971
323.50922891461;42.9668041473922
323.530836930891;42.8280519008788
323.552444947173;42.7152446822632
323.574052963455;42.6266149424471
323.595660979736;42.5606588449845
323.617268996018;42.5158415272411
323.6388770123;42.4864344346361
323.660485028582;42.4655302249988
323.682093044863;42.4604379191923
323.703701061145;42.4837673857487
323.725309077427;42.548878720703
323.746917093708;42.6577809790183
323.76852510999;42.7872568320282
323.790133126272;42.9197671456148
323.811741142553;43.0508218582683
323.833349158835;43.1846513630698
323.854957175117;43.3306656044703
323.876565191398;43.474394557714
323.89817320768;43.605072067289
323.919781223962;43.7205190005377
323.941389240244;43.8193386158227
323.962997256525;43.8896448906025
323.984605272807;43.9169560081699
324.006213289089;43.8933211461831
324.02782130537;43.8172745247975
324.049429321652;43.6922942918098
324.071037337934;43.5048973685721
324.092645354215;43.2531279152655
324.114253370497;42.9390931498923
324.135861386779;42.5651885419796
324.15746940306;42.1465334338001
324.179077419342;41.6975489456257
324.200685435624;41.2270049663779
324.222293451905;40.7438031815291
324.243901468187;40.2477115067094
324.265509484469;39.7346732473231
324.28711750075;39.2414165744182
324.308725517032;38.7884886597225
324.330333533314;38.3688795329519
324.351941549596;37.9855140505451
324.373549565877;37.6480452601762
324.395157582159;37.3432961882222
324.416765598441;37.0672637290104
324.438373614722;36.8189279901814
324.459981631004;36.5960941775817
324.481589647286;36.3879212087839
324.503197663567;36.1809012695645
324.524805679849;35.9663593921128
324.546413696131;35.7384251607273
324.568021712412;35.4963848898468
324.589629728694;35.2443543813788
324.611237744976;34.9793727971943
324.632845761258;34.7027075255208
324.654453777539;34.4254367080649
324.676061793821;34.1555472608828
324.697669810103;33.8993096942652
324.719277826384;33.6571208134294
324.740885842666;33.4345553172429
