Name;BF_ESR_01_3602s_Z_gon_160dg_result

Recipe
Accumulations;5;Number of accumulations
RetryCount;0;Number of retries on error
AbortOnError;True;Abort on error
EnableQFactorMeasurement;False;Enable/Disable q-Factor measurement
Bfrom;313;B from
Bto;363;B to
SweepTime;60;Sweep time
Modulation;0.2;Modulation
ModulationFreq;100;Modulation
BHoldEnabled;False;B hold enabled
BHold;0;B hold
MicrowavePower;2;Microwave power
MarkerEnabled;False;
MarkerStartField;0;
MarkerEndField;0;
Mode;;
KineticGFact;0;
KineticTotalTransientTime;0;
KineticTimeResolution;0;
TempFrom;5;
TempUseSlope;False;
TempTo;5;
TempdT;1;
TempSetupTime;0;
GonFrom;0;
GonTo;180;
GonSteps;20;
XRayEnabled;False;
XRayTime;3;
XRayVoltage;40;
XRayCurrent;0.5;
UVEnabled;False;
UVIntensity;0;
UVTime;0;
UVLeadTime;0;
UVWavelength;0;
PowSweepFrom;1;
PowSweepTo;5;
PowSweepSteps;5;
AmpModSweepFrom;0;
AmpModSweepTo;1;
AmpModSweepSteps;10;
ExtTriggerEnabled;False;
ExtTrigLeadTime;0;
ExtTrigOnTime;5;

Meas
BField [mT];MW_Absorption []
313.027798919678;56.9075851674839
313.049406725016;57.0493632695073
313.071014530353;57.2162519284547
313.092622335691;57.4091532087638
313.114230141029;57.6307530248476
313.135837946367;57.868832471253
313.157445751705;58.1169233876892
313.179053557043;58.374684464585
313.200661362381;58.630416432873
313.222269167719;58.8745095776874
313.243876973056;59.1104037942448
313.265484778394;59.3409724138082
313.287092583732;59.5619642255948
313.30870038907;59.7615409274963
313.330308194408;59.9256527084889
313.351915999746;60.0448711801066
313.373523805084;60.1206437569433
313.395131610422;60.1522178712198
313.416739415759;60.1305858063194
313.438347221097;60.0527194062653
313.459955026435;59.9302130512908
313.481562831773;59.7694317262379
313.503170637111;59.5644330262377
313.524778442449;59.3300726103363
313.546386247787;59.0921526960533
313.567994053125;58.8598497976406
313.589601858462;58.628650659977
313.6112096638;58.3975398452834
313.632817469138;58.1765430731531
313.654425274476;57.9806723738073
313.676033079814;57.8114356916562
313.697640885152;57.6648306871884
313.71924869049;57.5349879235842
313.740856495828;57.4126469578767
313.762464301165;57.2900881848319
313.784072106503;57.1747791990869
313.805679911841;57.0700425475252
313.827287717179;56.9658716150181
313.848895522517;56.8542243346026
313.870503327855;56.7314839338477
313.892111133193;56.5920206827701
313.913718938531;56.4344508604769
313.935326743868;56.2764563721115
313.956934549206;56.1165478239551
313.978542354544;55.9526614455729
314.000150159882;55.7929166307681
314.02175796522;55.6445263464834
314.043365770558;55.5090449557774
314.064973575896;55.3919828193955
314.086581381233;55.2964190467885
314.108189186571;55.2183860945833
314.129796991909;55.1608039129466
314.151404797247;55.1392815762795
314.173012602585;55.1540006410299
314.194620407923;55.1982700203464
314.216228213261;55.2662711471524
314.237836018599;55.3632094798195
314.259443823936;55.486895272731
314.281051629274;55.6287092788741
314.302659434612;55.7837598785506
314.32426723995;55.948297470537
314.345875045288;56.1166427585472
314.367482850626;56.2881456366219
314.389090655964;56.4609694496671
314.410698461302;56.6257522334465
314.432306266639;56.7744916062681
314.453914071977;56.9163882074754
314.475521877315;57.0619185754578
314.497129682653;57.2088430990169
314.518737487991;57.3520439365547
314.540345293329;57.4968625538323
314.561953098667;57.6398018908223
314.583560904005;57.7692864398358
314.605168709342;57.8808656481646
314.62677651468;57.9859106870207
314.648384320018;58.0862064364165
314.669992125356;58.1714613309611
314.691599930694;58.2411021064922
314.713207736032;58.3018996789708
314.73481554137;58.3586276466122
314.756423346708;58.4119156951836
314.778031152045;58.4641232108892
314.799638957383;58.5171580913197
314.821246762721;58.5742110849855
314.842854568059;58.6373527409707
314.864462373397;58.7035733274515
314.886070178735;58.765302662467
314.907677984073;58.8190135531607
314.929285789411;58.864343734153
314.950893594748;58.9036757245707
314.972501400086;58.9365034145067
314.994109205424;58.9580250899812
315.015717010762;58.961179911082
315.0373248161;58.9470330319953
315.058932621438;58.9230442722425
315.080540426776;58.8966060628116
315.102148232114;58.8680676592205
315.123756037451;58.8384593304817
315.145363842789;58.8132683239138
315.166971648127;58.7993366642062
315.188579453465;58.8063126518282
315.210187258803;58.8332931237475
315.231795064141;58.8696880589646
315.253402869479;58.911169783491
315.275010674816;58.9568151346417
315.296618480154;59.0081478142024
315.318226285492;59.0685897423264
315.33983409083;59.137938991547
315.361441896168;59.2122544201011
315.383049701506;59.2898220556895
315.404657506844;59.3680988653747
315.426265312182;59.4361924212681
315.447873117519;59.4973128282408
315.469480922857;59.5615073879676
315.491088728195;59.6347201465704
315.512696533533;59.7252840426241
315.534304338871;59.8464583143277
315.555912144209;59.9954745597485
315.577519949547;60.1534236944912
315.599127754885;60.3149788512307
315.620735560222;60.4806440067716
315.64234336556;60.6559826833864
315.663951170898;60.8436155106151
315.685558976236;61.0309935522562
315.707166781574;61.2038423055888
315.728774586912;61.352963337888
315.75038239225;61.4670142882839
315.771990197588;61.5361944414265
315.793598002925;61.5545449558923
315.815205808263;61.5151084498008
315.836813613601;61.4207548970891
315.858421418939;61.2703928915618
315.880029224277;61.057656791904
315.901637029615;60.7890259947906
315.923244834953;60.475525926966
315.944852640291;60.1326226030144
315.966460445628;59.7796379829778
315.988068250966;59.4308472085075
316.009676056304;59.0995585927199
316.031283861642;58.7973373856824
316.05289166698;58.5343226955688
316.074499472318;58.3139907265906
316.096107277656;58.1346490210524
316.117715082994;58.0029261840584
316.139322888331;57.9297410247485
316.160930693669;57.9143391448415
316.182538499007;57.9401082141131
316.204146304345;57.9947582659572
316.225754109683;58.0703235077279
316.247361915021;58.1710897211081
316.268969720359;58.2974900364589
316.290577525697;58.4412305139819
316.312185331034;58.5980223465462
316.333793136372;58.7677700839305
316.35540094171;58.9465527686294
316.377008747048;59.1330007224978
316.398616552386;59.3248964089586
316.420224357724;59.4916320114217
316.441832163062;59.6241679383956
316.463439968399;59.7325919078019
316.485047773737;59.8117823262777
316.506655579075;59.8637811841409
316.528263384413;59.8931846171785
316.549871189751;59.8938774323145
316.571478995089;59.8536149770645
316.593086800427;59.7805078965451
316.614694605765;59.6908184194918
316.636302411102;59.5909698200526
316.65791021644;59.4745897402727
316.679518021778;59.3363304572442
316.701125827116;59.1692646569925
316.722733632454;58.9790023898775
316.744341437792;58.7851760558641
316.76594924313;58.5864836229901
316.787557048468;58.3701285436612
316.809164853805;58.1391821192024
316.830772659143;57.8971969074964
316.852380464481;57.6435878272134
316.873988269819;57.388262727185
316.895596075157;57.141180764787
316.917203880495;56.9034074746641
316.938811685833;56.6812645440079
316.960419491171;56.5060676203867
316.982027296508;56.3861809455089
317.003635101846;56.3239003234766
317.025242907184;56.3263894496032
317.046850712522;56.3930615902305
317.06845851786;56.5078523322649
317.090066323198;56.6628715396289
317.111674128536;56.8505160338668
317.133281933874;57.055045868275
317.154889739211;57.2619631807082
317.176497544549;57.4738476066079
317.198105349887;57.6850925285954
317.219713155225;57.8880973385336
317.241320960563;58.0860093335968
317.262928765901;58.2677332971197
317.284536571239;58.4272031248051
317.306144376577;58.5801214650801
317.327752181914;58.7642747861658
317.349359987252;58.9808607604736
317.37096779259;59.2215602512563
317.392575597928;59.4759969627919
317.414183403266;59.7415315931253
317.435791208604;60.0344143982817
317.457399013942;60.3516222233481
317.47900681928;60.672836731902
317.500614624617;60.9779594351752
317.522222429955;61.2666253607957
317.543830235293;61.5510543154487
317.565438040631;61.8378266963324
317.587045845969;62.1163174041846
317.608653651307;62.3651697360571
317.630261456645;62.5664470474063
317.651869261982;62.7091818373152
317.67347706732;62.7931060563264
317.695084872658;62.8165965896769
317.716692677996;62.784256101472
317.738300483334;62.7009727796264
317.759908288672;62.566412687961
317.78151609401;62.3829955861684
317.803123899348;62.1556075830701
317.824731704686;61.8901681651669
317.846339510023;61.591880121576
317.867947315361;61.2878498778349
317.889555120699;61.0016643993675
317.911162926037;60.737823512958
317.932770731375;60.4894994644921
317.954378536713;60.2522572018575
317.975986342051;60.0303221318649
317.997594147389;59.8339286759474
318.019201952726;59.6720796270237
318.040809758064;59.5461627051661
318.062417563402;59.4560823721111
318.08402536874;59.4061207630633
318.105633174078;59.3952484208971
318.127240979416;59.4168691447006
318.148848784754;59.4676382666775
318.170456590091;59.5469050669579
318.192064395429;59.6516510028683
318.213672200767;59.76940821005
318.235280006105;59.8753433708621
318.256887811443;59.9606299300494
318.278495616781;60.0303277035947
318.300103422119;60.0852259657959
318.321711227457;60.1187895280199
318.343319032794;60.1240612913558
318.364926838132;60.1038568085985
318.38653464347;60.0630250126758
318.408142448808;60.0023595229352
318.429750254146;59.9304058639981
318.451358059484;59.8594149751979
318.472965864822;59.7987924205343
318.49457367016;59.7547816748108
318.516181475497;59.7323535060385
318.537789280835;59.7353937357217
318.559397086173;59.7775273630818
318.581004891511;59.8716371357816
318.602612696849;60.0291063111156
318.624220502187;60.2466057792288
318.645828307525;60.5015737197949
318.667436112863;60.7826617104524
318.6890439182;61.0971846402297
318.710651723538;61.4474822121725
318.732259528876;61.8161631093551
318.753867334214;62.1695970956079
318.775475139552;62.4842549566029
318.79708294489;62.7627609968752
318.818690750228;62.9928248248132
318.840298555566;63.1462319860247
318.861906360903;63.2101191913926
318.883514166241;63.1803633215932
318.905121971579;63.0648498700034
318.926729776917;62.8696707386738
318.948337582255;62.5888917095679
318.969945387593;62.2217613555591
318.991553192931;61.7803432254721
319.013160998269;61.2604681061156
319.034768803606;60.6879400355238
319.056376608944;60.1184350490419
319.077984414282;59.5636828772823
319.09959221962;59.0237200922422
319.121200024958;58.5175723363302
319.142807830296;58.0744111887261
319.164415635634;57.6911144806719
319.186023440972;57.3458680664319
319.207631246309;57.0280410753824
319.229239051647;56.7335059913566
319.250846856985;56.4578525642805
319.272454662323;56.1966965781984
319.294062467661;55.951327231315
319.315670272999;55.7157726981761
319.337278078337;55.4828012882043
319.358885883674;55.2424074946952
319.380493689012;55.0154948161306
319.40210149435;54.8371295099637
319.423709299688;54.7083284539075
319.445317105026;54.6218209772237
319.466924910364;54.5802795692192
319.488532715702;54.5994392410602
319.51014052104;54.6873213698101
319.531748326377;54.8319955919576
319.553356131715;55.0259135616716
319.574963937053;55.2688537046723
319.596571742391;55.5607048775499
319.618179547729;55.8613570644578
319.639787353067;56.141209806828
319.661395158405;56.4020473016772
319.683002963743;56.648790435611
319.70461076908;56.8767764218236
319.726218574418;57.0758508706821
319.747826379756;57.2436205080122
319.769434185094;57.386906915052
319.791041990432;57.5059106031031
319.81264979577;57.5883584931753
319.834257601108;57.6354163468575
319.855865406446;57.6655533097451
319.877473211783;57.6907440575939
319.899081017121;57.7127689202062
319.920688822459;57.7307317329619
319.942296627797;57.7476167509271
319.963904433135;57.7723907862697
319.985512238473;57.8127275329711
320.007120043811;57.8753170924893
320.028727849149;57.9654683018063
320.050335654486;58.0885037021308
320.071943459824;58.2475661531694
320.093551265162;58.4403766166218
320.1151590705;58.6585201577195
320.136766875838;58.895594538865
320.158374681176;59.149804280666
320.179982486514;59.4122570654102
320.201590291852;59.6706540261819
320.223198097189;59.9263841113477
320.244805902527;60.1964566877564
320.266413707865;60.4873563339058
320.288021513203;60.7898698183372
320.309629318541;61.0941824992982
320.331237123879;61.3936355142963
320.352844929217;61.6934812346365
320.374452734555;62.0024998532636
320.396060539892;62.3159978746251
320.41766834523;62.619957255227
320.439276150568;62.9200600993517
320.460883955906;63.208726486353
320.482491761244;63.4665818183574
320.504099566582;63.6814065023032
320.52570737192;63.8545006722573
320.547315177257;63.9727258737932
320.568922982595;64.0241190884117
320.590530787933;64.0135662267407
320.612138593271;63.9483775165162
320.633746398609;63.8329061977737
320.655354203947;63.669258653273
320.676962009285;63.4622287165327
320.698569814623;63.2180796294324
320.72017761996;62.9390373376472
320.741785425298;62.6384556752127
320.763393230636;62.3342113229956
320.785001035974;62.0305869944772
320.806608841312;61.7229073815095
320.82821664665;61.4082168143935
320.849824451988;61.0849406019312
320.871432257326;60.7464585000045
320.893040062663;60.3870492119057
320.914647868001;60.0041294652147
320.936255673339;59.5855159961684
320.957863478677;59.1397954068817
320.979471284015;58.7005495057343
321.001079089353;58.2671173597381
321.022686894691;57.8288819330575
321.044294700029;57.3840480186671
321.065902505366;56.941995298688
321.087510310704;56.5150389060343
321.109118116042;56.1135189999857
321.13072592138;55.7396765042089
321.152333726718;55.3910842816347
321.173941532056;55.0598579472437
321.195549337394;54.7325395882149
321.217157142732;54.4076994599585
321.238764948069;54.0898026665833
321.260372753407;53.7711044339423
321.281980558745;53.4378829307013
321.303588364083;53.0915977448398
321.325196169421;52.7457915105025
321.346803974759;52.4080295922982
321.368411780097;52.0916280843572
321.390019585435;51.8220082402849
321.411627390772;51.6075271314208
321.43323519611;51.4530595220206
321.454843001448;51.3805225283166
321.476450806786;51.403373052779
321.498058612124;51.5177306913584
321.519666417462;51.7148471322914
321.5412742228;51.9818542553176
321.562882028137;52.3013541963542
321.584489833475;52.6587145356333
321.606097638813;53.0412137940791
321.627705444151;53.4391537138762
321.649313249489;53.8480490304136
321.670921054827;54.2560778262979
321.692528860165;54.6324563916056
321.714136665503;54.9499119591695
321.73574447084;55.1950528863043
321.757352276178;55.3608667537699
321.778960081516;55.4475048777264
321.800567886854;55.4631753019502
321.822175692192;55.412219454714
321.84378349753;55.2985380517414
321.865391302868;55.1192259433085
321.886999108206;54.8841360030969
321.908606913543;54.6162673219304
321.930214718881;54.3349998543524
321.951822524219;54.0505211622129
321.973430329557;53.7668579969747
321.995038134895;53.4852004829725
322.016645940233;53.2096507110936
322.038253745571;52.9558884554692
322.059861550909;52.7332359156255
322.081469356246;52.5382214273434
322.103077161584;52.3682772686644
322.124684966922;52.2162919400362
322.14629277226;52.0761164983532
322.167900577598;51.9502655860403
322.189508382936;51.8476552310967
322.211116188274;51.777483941979
322.232723993612;51.7381838577891
322.254331798949;51.7228150586148
322.275939604287;51.7277283103894
322.297547409625;51.7506568369841
322.319155214963;51.7897946033577
322.340763020301;51.8408717661362
322.362370825639;51.8885274978528
322.383978630977;51.9299792657012
322.405586436315;51.9685742337571
322.427194241652;51.9967337266788
322.44880204699;51.9943916137192
322.470409852328;51.9476671808429
322.492017657666;51.8477594068781
322.513625463004;51.6944477128317
322.535233268342;51.5045724025833
322.55684107368;51.2849979386625
322.578448879018;51.0317714880218
322.600056684355;50.7485793911239
322.621664489693;50.4580050356436
322.643272295031;50.1675162800026
322.664880100369;49.8754296521812
322.686487905707;49.5917456458426
322.708095711045;49.3363166975548
322.729703516383;49.1204689344466
322.75131132172;48.9517091606754
322.772919127058;48.8392995170078
322.794526932396;48.7771105795819
322.816134737734;48.7584175248407
322.837742543072;48.7893338621356
322.85935034841;48.8716816643689
322.880958153748;48.9954669282661
322.902565959086;49.156776200425
322.924173764423;49.3629487434906
322.945781569761;49.6283571282375
322.967389375099;49.9569165126318
322.988997180437;50.3348325848028
323.010604985775;50.740162673153
323.032212791113;51.158965906618
323.053820596451;51.5931745215316
323.075428401789;52.0548071323288
323.097036207127;52.5443683413391
323.118644012464;53.0292419305901
323.140251817802;53.4745733356468
323.16185962314;53.8813051331215
323.183467428478;54.2538872429863
323.205075233816;54.5948000343735
323.226683039154;54.8969574943988
323.248290844492;55.1510346641007
323.269898649829;55.3547239644691
323.291506455167;55.5094231039791
323.313114260505;55.611072242645
323.334722065843;55.6596795453717
323.356329871181;55.6603217385666
323.377937676519;55.620285951441
323.399545481857;55.5521149954112
323.421153287195;55.4556373054252
323.442761092532;55.3246276846273
323.46436889787;55.1580530574732
323.485976703208;54.9622357033605
323.507584508546;54.7428779556528
323.529192313884;54.5043164601343
323.550800119222;54.2503323757499
323.57240792456;53.9855933434071
323.594015729898;53.720938023799
323.615623535235;53.4648312936216
323.637231340573;53.214211452526
323.658839145911;52.9503828715188
323.680446951249;52.6569175546849
323.702054756587;52.3490079300621
323.723662561925;52.0386151106294
323.745270367263;51.7339691426205
323.766878172601;51.4436193099421
323.788485977938;51.1727762328534
323.810093783276;50.9274635231163
323.831701588614;50.7153403856153
323.853309393952;50.5359253335401
323.87491719929;50.3897037208605
323.896525004628;50.2844134971949
323.918132809966;50.2231495905733
323.939740615304;50.2076331580415
323.961348420641;50.2268454754979
323.982956225979;50.2746494625317
324.004564031317;50.342809622645
324.026171836655;50.4241164740311
324.047779641993;50.5198144419955
324.069387447331;50.6266261905068
324.090995252669;50.7335862622735
324.112603058007;50.829752314939
324.134210863344;50.9132450708891
324.155818668682;50.9812568372887
324.17742647402;51.0272185433669
324.199034279358;51.0446950634187
324.220642084696;51.0391384451738
324.242249890034;51.0055505206384
324.263857695372;50.9348750380154
324.28546550071;50.8217525170049
324.307073306047;50.67344573402
324.328681111385;50.4937428477725
324.350288916723;50.2848978239028
324.371896722061;50.0463978663347
324.393504527399;49.7853969662689
324.415112332737;49.5133139867453
324.436720138075;49.2345135217288
324.458327943412;48.9461378516413
324.47993574875;48.6614833770984
324.501543554088;48.4025224008844
324.523151359426;48.1780139420002
324.544759164764;47.9822970984366
324.566366970102;47.8042397852374
324.58797477544;47.6336969487705
324.609582580778;47.4743085538388
324.631190386115;47.3304097287894
324.652798191453;47.2047484031527
324.674405996791;47.0949537087871
324.696013802129;46.9917800184922
324.717621607467;46.8805671063234
324.739229412805;46.7554324931327
324.760837218143;46.6237547269228
