Name;BF_ESR_01_360s_X_gon_0dg_result

Recipe
Accumulations;5;Number of accumulations
RetryCount;0;Number of retries on error
AbortOnError;True;Abort on error
EnableQFactorMeasurement;False;Enable/Disable q-Factor measurement
Bfrom;313;B from
Bto;363;B to
SweepTime;60;Sweep time
Modulation;0.2;Modulation
ModulationFreq;100;Modulation
BHoldEnabled;False;B hold enabled
BHold;0;B hold
MicrowavePower;2;Microwave power
MarkerEnabled;False;
MarkerStartField;0;
MarkerEndField;0;
Mode;;
KineticGFact;0;
KineticTotalTransientTime;0;
KineticTimeResolution;0;
TempFrom;5;
TempUseSlope;False;
TempTo;5;
TempdT;1;
TempSetupTime;0;
GonFrom;0;
GonTo;180;
GonSteps;20;
XRayEnabled;False;
XRayTime;3;
XRayVoltage;40;
XRayCurrent;0.5;
UVEnabled;False;
UVIntensity;0;
UVTime;0;
UVLeadTime;0;
UVWavelength;0;
PowSweepFrom;1;
PowSweepTo;5;
PowSweepSteps;5;
AmpModSweepFrom;0;
AmpModSweepTo;1;
AmpModSweepSteps;10;
ExtTriggerEnabled;False;
ExtTrigLeadTime;0;
ExtTrigOnTime;5;

Meas
BField [mT];MW_Absorption []
313.020958328247;125.349100043225
313.042574377584;125.399152110234
313.064190426921;125.479414270894
313.085806476258;125.56936214244
313.107422525595;125.655318592777
313.129038574932;125.725759308936
313.150654624269;125.763328014164
313.172270673606;125.758525859665
313.193886722943;125.713037588568
313.21550277228;125.632646807813
313.237118821617;125.523405477043
313.258734870954;125.391472492002
313.280350920291;125.236700304115
313.301966969627;125.061394448558
313.323583018964;124.881529535152
313.345199068301;124.714513504673
313.366815117638;124.560032469706
313.388431166975;124.417679218928
313.410047216312;124.289056674973
313.431663265649;124.169601812614
313.453279314986;124.054566216131
313.474895364323;123.937543004572
313.49651141366;123.806679436117
313.518127462997;123.661957393253
313.539743512334;123.525413318365
313.561359561671;123.404301348658
313.582975611008;123.283983330663
313.604591660345;123.144631908647
313.626207709682;122.976581572222
313.647823759019;122.814229563696
313.669439808356;122.677391767513
313.691055857693;122.540670860975
313.71267190703;122.391146722436
313.734287956367;122.240998373131
313.755904005703;122.088979619875
313.77752005504;121.919800137646
313.799136104377;121.720882322601
313.820752153714;121.500308007896
313.842368203051;121.262630225174
313.863984252388;121.009738516473
313.885600301725;120.737787955065
313.907216351062;120.442898020571
313.928832400399;120.126489908606
313.950448449736;119.795259187429
313.972064499073;119.456912090014
313.99368054841;119.108210432921
314.015296597747;118.745702161281
314.036912647084;118.375857852419
314.058528696421;118.010691435992
314.080144745758;117.65162244195
314.101760795095;117.304490925925
314.123376844432;116.97597512329
314.144992893769;116.663196574926
314.166608943106;116.358071845653
314.188224992443;116.05762439516
314.20984104178;115.768339072016
314.231457091116;115.503684690532
314.253073140453;115.27049736813
314.27468918979;115.061427282174
314.296305239127;114.865734419259
314.317921288464;114.682435975912
314.339537337801;114.520700773833
314.361153387138;114.390708343417
314.382769436475;114.291801833562
314.404385485812;114.212905043441
314.426001535149;114.154892432132
314.447617584486;114.132068650541
314.469233633823;114.147418967104
314.49084968316;114.202209041033
314.512465732497;114.300187490879
314.534081781834;114.439811796331
314.555697831171;114.606491205828
314.577313880508;114.79356404427
314.598929929845;115.007536248387
314.620545979182;115.26161823085
314.642162028519;115.548462853214
314.663778077856;115.855797755622
314.685394127192;116.179691247044
314.707010176529;116.519210940452
314.728626225866;116.864186601054
314.750242275203;117.208595242325
314.77185832454;117.54998639112
314.793474373877;117.875529526779
314.815090423214;118.180742555824
314.836706472551;118.469150664511
314.858322521888;118.734112943878
314.879938571225;118.966843435983
314.901554620562;119.173889047647
314.923170669899;119.355647466725
314.944786719236;119.504959762734
314.966402768573;119.621207348485
314.98801881791;119.708969574145
315.009634867247;119.782324829603
315.031250916584;119.852799269559
315.052866965921;119.917961634334
315.074483015258;119.974118985147
315.096099064595;120.020180956611
315.117715113932;120.066667873606
315.139331163269;120.122969793411
315.160947212605;120.182000329819
315.182563261942;120.241449243125
315.204179311279;120.313603238339
315.225795360616;120.397675584492
315.247411409953;120.489667684719
315.26902745929;120.582935718217
315.290643508627;120.679965549663
315.312259557964;120.781361021546
315.333875607301;120.883544636455
315.355491656638;120.983479433964
315.377107705975;121.077558814644
315.398723755312;121.170123317017
315.420339804649;121.254351352914
315.441955853986;121.318377760391
315.463571903323;121.352809355415
315.48518795266;121.358403453043
315.506804001997;121.342130350615
315.528420051334;121.296165173757
315.550036100671;121.218191197381
315.571652150008;121.117729318342
315.593268199345;120.996750915669
315.614884248682;120.861754961067
315.636500298018;120.729458834955
315.658116347355;120.60774261404
315.679732396692;120.495046326575
315.701348446029;120.390466748768
315.722964495366;120.299788273139
315.744580544703;120.231664089591
315.76619659404;120.192974092446
315.787812643377;120.18851862646
315.809428692714;120.214008767678
315.831044742051;120.255939320485
315.852660791388;120.302754887857
315.874276840725;120.352303157653
315.895892890062;120.406046171053
315.917508939399;120.466241776685
315.939124988736;120.535585137075
315.960741038073;120.611006640984
315.98235708741;120.678145777479
316.003973136747;120.729218060058
316.025589186084;120.774006463277
316.047205235421;120.820747541501
316.068821284758;120.869037449819
316.090437334094;120.909983766652
316.112053383431;120.942059787278
316.133669432768;120.973104722889
316.155285482105;121.007896341967
316.176901531442;121.040084098189
316.198517580779;121.070201027707
316.220133630116;121.102702744328
316.241749679453;121.138209831997
316.26336572879;121.171392295737
316.284981778127;121.193805722223
316.306597827464;121.194769580851
316.328213876801;121.165525446287
316.349829926138;121.10696579334
316.371445975475;121.021826438502
316.393062024812;120.905431521915
316.414678074149;120.751524622197
316.436294123486;120.556176203042
316.457910172823;120.30872280657
316.47952622216;120.011836389924
316.501142271497;119.67888237587
316.522758320834;119.311306368099
316.544374370171;118.912868390552
316.565990419508;118.495894410632
316.587606468844;118.05700400345
316.609222518181;117.601280123289
316.630838567518;117.152493499778
316.652454616855;116.727860863367
316.674070666192;116.309480584057
316.695686715529;115.882588999368
316.717302764866;115.466363808937
316.738918814203;115.092124065935
316.76053486354;114.762255196613
316.782150912877;114.470940836686
316.803766962214;114.230723008807
316.825383011551;114.025987963013
316.846999060888;113.841773318517
316.868615110225;113.70222374511
316.890231159562;113.620903289496
316.911847208899;113.587077760815
316.933463258236;113.586606848616
316.955079307573;113.618719672792
316.97669535691;113.692522289876
316.998311406247;113.809793207806
317.019927455584;113.96364575902
317.04154350492;114.146214047378
317.063159554257;114.347663659856
317.084775603594;114.557646371419
317.106391652931;114.770451450064
317.128007702268;114.980751831547
317.149623751605;115.182074954078
317.171239800942;115.360933021438
317.192855850279;115.50668846911
317.214471899616;115.619608921951
317.236087948953;115.700385743485
317.25770399829;115.751394835438
317.279320047627;115.777094950475
317.300936096964;115.779441189425
317.322552146301;115.76561100631
317.344168195638;115.742254107538
317.365784244975;115.712873666538
317.387400294312;115.683944723121
317.409016343649;115.668105998752
317.430632392986;115.672406594351
317.452248442323;115.689229556557
317.47386449166;115.716757354588
317.495480540996;115.759275426354
317.517096590333;115.814818116826
317.53871263967;115.871746684063
317.560328689007;115.923782004651
317.581944738344;115.97164718182
317.603560787681;116.018119344391
317.625176837018;116.065025516618
317.646792886355;116.112467108199
317.668408935692;116.159645256273
317.690024985029;116.204219964279
317.711641034366;116.242018983304
317.733257083703;116.269698718924
317.75487313304;116.284338644298
317.776489182377;116.284128143944
317.798105231714;116.275002922345
317.819721281051;116.261874409124
317.841337330388;116.237721435781
317.862953379725;116.200674155928
317.884569429062;116.153003120622
317.906185478399;116.091566232064
317.927801527736;116.014192518994
317.949417577073;115.927024622345
317.971033626409;115.831993591904
317.992649675746;115.732975661226
318.014265725083;115.633717738926
318.03588177442;115.536330760215
318.057497823757;115.44666201995
318.079113873094;115.362068749458
318.100729922431;115.272903176874
318.122345971768;115.171547352869
318.143962021105;115.067581706234
318.165578070442;114.963296604354
318.187194119779;114.853859473776
318.208810169116;114.739439312611
318.230426218453;114.621332764802
318.25204226779;114.511166915726
318.273658317127;114.412417070106
318.295274366464;114.320583842826
318.316890415801;114.23200157355
318.338506465138;114.147606791794
318.360122514475;114.071092353911
318.381738563812;114.017849940395
318.403354613149;113.982901671004
318.424970662486;113.955715473733
318.446586711822;113.928514396855
318.468202761159;113.896743486886
318.489818810496;113.866579629095
318.511434859833;113.846070940586
318.53305090917;113.83674854126
318.554666958507;113.835139706129
318.576283007844;113.836023438709
318.597899057181;113.841724292944
318.619515106518;113.858394345156
318.641131155855;113.88076647224
318.662747205192;113.896480879036
318.684363254529;113.902059958918
318.705979303866;113.896632499354
318.727595353203;113.885097676841
318.74921140254;113.876845965717
318.770827451877;113.890806188556
318.792443501214;113.939434779857
318.814059550551;114.013646157994
318.835675599888;114.102582997544
318.857291649225;114.206384817504
318.878907698562;114.32979281815
318.900523747898;114.472333668893
318.922139797235;114.628945131184
318.943755846572;114.798380597454
318.965371895909;114.974728479759
318.986987945246;115.14124634191
319.008603994583;115.286574219301
319.03022004392;115.407650261381
319.051836093257;115.500640750293
319.073452142594;115.556142301705
319.095068191931;115.565639094848
319.116684241268;115.529873034245
319.138300290605;115.460842218046
319.159916339942;115.3601872143
319.181532389279;115.220236205086
319.203148438616;115.047195048444
319.224764487953;114.852695088472
319.24638053729;114.638032804678
319.267996586627;114.401513011531
319.289612635964;114.147674537196
319.311228685301;113.875321617649
319.332844734638;113.581533704359
319.354460783975;113.272610057322
319.376076833311;112.970376801336
319.397692882648;112.673797206857
319.419308931985;112.376112108044
319.440924981322;112.081898665295
319.462541030659;111.807617849141
319.484157079996;111.559086333969
319.505773129333;111.331194352559
319.52738917867;111.121650821482
319.549005228007;110.922092359067
319.570621277344;110.718517884642
319.592237326681;110.49793461489
319.613853376018;110.268854691228
319.635469425355;110.04396843258
319.657085474692;109.821782408862
319.678701524029;109.593834544681
319.700317573366;109.35319951093
319.721933622703;109.104241262776
319.74354967204;108.855483658948
319.765165721377;108.608890704917
319.786781770714;108.37491701253
319.808397820051;108.174510811967
319.830013869387;108.012931298369
319.851629918724;107.879291273768
319.873245968061;107.762482745325
319.894862017398;107.659321891887
319.916478066735;107.573324381531
319.938094116072;107.508939165199
319.959710165409;107.468134391259
319.981326214746;107.452499007477
320.002942264083;107.46580450825
320.02455831342;107.515815893366
320.046174362757;107.611640544056
320.067790412094;107.75284927058
320.089406461431;107.939165917754
320.111022510768;108.180226275176
320.132638560105;108.480872574398
320.154254609442;108.835935662306
320.175870658779;109.231046161266
320.197486708116;109.646322974948
320.219102757453;110.077954323612
320.24071880679;110.526129628287
320.262334856127;110.972237254656
320.283950905464;111.396604779963
320.305566954801;111.777945662448
320.327183004137;112.092644943786
320.348799053474;112.344529500088
320.370415102811;112.540835573382
320.392031152148;112.66979448277
320.413647201485;112.709958076435
320.435263250822;112.662708826005
320.456879300159;112.55137062692
320.478495349496;112.378509237976
320.500111398833;112.142347287758
320.52172744817;111.852944705982
320.543343497507;111.533475436799
320.564959546844;111.200175474603
320.586575596181;110.855792280812
320.608191645518;110.503972862464
320.629807694855;110.160781982509
320.651423744192;109.840626728297
320.673039793529;109.546229565494
320.694655842866;109.281992036545
320.716271892203;109.059030087969
320.73788794154;108.879634289353
320.759503990877;108.736925523202
320.781120040213;108.62702863204
320.80273608955;108.552285253329
320.824352138887;108.502187953178
320.845968188224;108.451849106539
320.867584237561;108.3854194234
320.889200286898;108.291350019431
320.910816336235;108.155751049923
320.932432385572;107.958764391401
320.954048434909;107.684894669239
320.975664484246;107.343500998539
320.997280533583;106.947571885298
321.01889658292;106.499980936465
321.040512632257;106.006268432874
321.062128681594;105.457512203837
321.083744730931;104.851608907761
321.105360780268;104.207863666108
321.126976829605;103.550477648782
321.148592878942;102.899731716359
321.170208928279;102.265515428408
321.191824977616;101.648778974223
321.213441026953;101.056162753084
321.235057076289;100.493997070466
321.256673125626;99.9627574277726
321.278289174963;99.4571225299173
321.2999052243;98.973593590147
321.321521273637;98.5292177011063
321.343137322974;98.141381644297
321.364753372311;97.8095207338487
321.386369421648;97.5244615276457
321.407985470985;97.2981401684741
321.429601520322;97.131127935692
321.451217569659;97.0104937023625
321.472833618996;96.9225454512613
321.494449668333;96.863131771463
321.51606571767;96.8255622579278
321.537681767007;96.7986002679311
321.559297816344;96.7756029009813
321.580913865681;96.751155038576
321.602529915018;96.7195599353508
321.624145964355;96.6753085741614
321.645762013692;96.6111741304027
321.667378063029;96.5154325184895
321.688994112366;96.3902013049725
321.710610161703;96.23045748648
321.732226211039;96.035576474486
321.753842260376;95.8041912388798
321.775458309713;95.5464867686142
321.79707435905;95.2821294675571
321.818690408387;95.0186945684459
321.840306457724;94.7566737815856
321.861922507061;94.496086022388
321.883538556398;94.2394571375324
321.905154605735;94.0022615650402
321.926770655072;93.7935379173597
321.948386704409;93.6104545990159
321.970002753746;93.4397022955809
321.991618803083;93.2740852777933
322.01323485242;93.1099380345304
322.034850901757;92.9385435652462
322.056466951094;92.7522625672267
322.078083000431;92.5466057682311
322.099699049768;92.3163161330691
322.121315099105;92.0606407139621
322.142931148442;91.7862295059935
322.164547197779;91.5032058226425
322.186163247115;91.2121925146894
322.207779296452;90.8842343314857
322.229395345789;90.5241190346081
322.251011395126;90.1931112411219
322.272627444463;89.8862460233728
322.2942434938;89.5915527699125
322.315859543137;89.2995699035231
322.337475592474;89.0083635129847
322.359091641811;88.7163455506707
322.380707691148;88.4213685637563
322.402323740485;88.1267281452528
322.423939789822;87.842561123757
322.445555839159;87.5564247744267
322.467171888496;87.2488842022725
322.488787937833;86.9371234211952
322.51040398717;86.6463769515337
322.532020036507;86.3646337622243
322.553636085844;86.0680718849745
322.575252135181;85.7574063130614
322.596868184518;85.4430975215329
322.618484233855;85.1260516406397
322.640100283191;84.7958886102576
322.661716332528;84.4398273407106
322.683332381865;84.0568159180427
322.704948431202;83.6438877233389
322.726564480539;83.2011565231615
322.748180529876;82.7441797247233
322.769796579213;82.2881644010653
322.79141262855;81.8333653575098
322.813028677887;81.3766611243128
322.834644727224;80.9206384884027
322.856260776561;80.4699187987406
322.877876825898;80.0380125295337
322.899492875235;79.6506073415367
322.921108924572;79.3164597511979
322.942724973909;79.0333894506299
322.964341023246;78.7992585079987
322.985957072583;78.60431957557
323.00757312192;78.440779422961
323.029189171257;78.304158864679
323.050805220594;78.1838768549663
323.072421269931;78.0661352255397
323.094037319268;77.9377751018028
323.115653368604;77.777945664964
323.137269417941;77.5693285793812
323.158885467278;77.3161995590718
323.180501516615;77.021600737367
323.202117565952;76.6891138661483
323.223733615289;76.3322586284682
323.245349664626;75.9601121102576
323.266965713963;75.5741066043732
323.2885817633;75.1766742158641
323.310197812637;74.7791942375903
323.331813861974;74.394335445636
323.353429911311;74.0285619172373
323.375045960648;73.6921131372146
323.396662009985;73.3933784080887
323.418278059322;73.1505621329897
323.439894108659;72.9590666065396
323.461510157996;72.8010260136625
323.483126207333;72.6681033943961
323.50474225667;72.5570113845504
323.526358306007;72.4594575847917
323.547974355344;72.3700038511618
323.569590404681;72.2875039323593
323.591206454017;72.2078926348738
323.612822503354;72.1233285201978
323.634438552691;72.0202928065809
323.656054602028;71.9010485844918
323.677670651365;71.7731640142247
323.699286700702;71.6401499293594
323.720902750039;71.5052013117215
323.742518799376;71.370204184151
323.764134848713;71.238607807868
323.78575089805;71.1159835505358
323.807366947387;70.995908468746
323.828982996724;70.8654860699974
323.850599046061;70.730720690769
323.872215095398;70.6045491785944
323.893831144735;70.4882848298222
323.915447194072;70.3702741945699
323.937063243409;70.2415160898536
323.958679292746;70.1006739304933
323.980295342083;69.9480097023061
324.00191139142;69.7856695752812
324.023527440757;69.6219417838618
324.045143490093;69.4485779889852
324.06675953943;69.2529682378432
324.088375588767;69.0369714261546
324.109991638104;68.8080500574181
324.131607687441;68.5712679020309
324.153223736778;68.3192652113201
324.174839786115;68.0383448707008
324.196455835452;67.7287538866665
324.218071884789;67.4024040086348
324.239687934126;67.063991589384
324.261303983463;66.7101021293541
324.2829200328;66.3406951896679
324.304536082137;65.9615007060011
324.326152131474;65.5790382317754
324.347768180811;65.1935638455785
324.369384230148;64.7975853689102
324.391000279485;64.3963246356441
324.412616328822;64.0025784110013
324.434232378159;63.6068363219848
324.455848427496;63.1941557128734
324.477464476833;62.7618144556739
324.49908052617;62.3071016328128
324.520696575506;61.835745813589
324.542312624843;61.3590358577421
324.56392867418;60.879145725274
324.585544723517;60.3856285722886
324.607160772854;59.8687507279201
324.628776822191;59.3428390734818
324.650392871528;58.8368147215828
324.672008920865;58.3542621842993
324.693624970202;57.8827341638943
324.715241019539;57.4075342270095
324.736857068876;56.929789770185
324.758473118213;56.4714771635911
324.78008916755;56.0476744443524
