Name;BF_ESR_01_Natural_Y_gon_20dg_result

Recipe
Accumulations;5;Number of accumulations
RetryCount;0;Number of retries on error
AbortOnError;True;Abort on error
EnableQFactorMeasurement;False;Enable/Disable q-Factor measurement
Bfrom;313;B from
Bto;363;B to
SweepTime;60;Sweep time
Modulation;0.2;Modulation
ModulationFreq;100;Modulation
BHoldEnabled;False;B hold enabled
BHold;0;B hold
MicrowavePower;2;Microwave power
MarkerEnabled;False;
MarkerStartField;0;
MarkerEndField;0;
Mode;;
KineticGFact;0;
KineticTotalTransientTime;0;
KineticTimeResolution;0;
TempFrom;5;
TempUseSlope;False;
TempTo;5;
TempdT;1;
TempSetupTime;0;
GonFrom;0;
GonTo;180;
GonSteps;20;
XRayEnabled;False;
XRayTime;3;
XRayVoltage;40;
XRayCurrent;0.5;
UVEnabled;False;
UVIntensity;0;
UVTime;0;
UVLeadTime;0;
UVWavelength;0;
PowSweepFrom;1;
PowSweepTo;5;
PowSweepSteps;5;
AmpModSweepFrom;0;
AmpModSweepTo;1;
AmpModSweepSteps;10;
ExtTriggerEnabled;False;
ExtTrigLeadTime;0;
ExtTrigOnTime;5;

Meas
BField [mT];MW_Absorption []
313.014459686279;62.7375775095144
313.036071478009;62.2386611638918
313.057683269738;61.5985042090017
313.079295061468;60.9166555860526
313.100906853197;60.1889299411618
313.122518644927;59.388297955044
313.144130436656;58.5232949271478
313.165742228386;57.6483061205602
313.187354020115;56.7992422996928
313.208965811845;55.9831923093846
313.230577603574;55.2209443499788
313.252189395304;54.5451592028528
313.273801187033;53.9631128171561
313.295412978763;53.4671177428419
313.317024770492;53.0615180297477
313.338636562222;52.7775818573196
313.360248353952;52.6353113044024
313.381860145681;52.6032040151048
313.403471937411;52.6584501558361
313.42508372914;52.7824301513024
313.44669552087;52.9666082591945
313.468307312599;53.2021659166084
313.489919104329;53.4705996204749
313.511530896058;53.762270322362
313.533142687788;54.0756214112072
313.554754479517;54.3997588067402
313.576366271247;54.723709077614
313.597978062976;55.0455215947748
313.619589854706;55.3719527453464
313.641201646435;55.709087907246
313.662813438165;56.0523721448108
313.684425229894;56.3775057115495
313.706037021624;56.6656752786692
313.727648813353;56.9192977221031
313.749260605083;57.1409091802334
313.770872396812;57.3304544588329
313.792484188542;57.4775372514461
313.814095980271;57.5646350421163
313.835707772001;57.5798590622138
313.85731956373;57.5189018193597
313.87893135546;57.3943347625378
313.900543147189;57.2226476772979
313.922154938919;57.0002188526394
313.943766730648;56.721613775768
313.965378522378;56.4076538106172
313.986990314107;56.0884468514981
314.008602105837;55.7812934137368
314.030213897566;55.4885624394104
314.051825689296;55.2064145311732
314.073437481026;54.9480659030753
314.095049272755;54.7268509483704
314.116661064485;54.5438366044063
314.138272856214;54.414071809528
314.159884647944;54.3574122585418
314.181496439673;54.3660823298376
314.203108231403;54.4180244550942
314.224720023132;54.5090326815695
314.246331814862;54.6329481877468
314.267943606591;54.7748334491227
314.289555398321;54.9249707255613
314.31116719005;55.0750742888238
314.33277898178;55.2064081899024
314.354390773509;55.2976880421414
314.376002565239;55.329311944068
314.397614356968;55.2922713075207
314.419226148698;55.187228729469
314.440837940427;55.0218900129024
314.462449732157;54.8097184953347
314.484061523886;54.5451752780082
314.505673315616;54.2359056247893
314.527285107345;53.8968777067494
314.548896899075;53.5329031326651
314.570508690804;53.1498501407673
314.592120482534;52.7593416792785
314.613732274263;52.3591219187796
314.635344065993;51.9520599901914
314.656955857722;51.5520429697822
314.678567649452;51.1694014753639
314.700179441181;50.8128637440457
314.721791232911;50.4924105645101
314.74340302464;50.2049278916642
314.76501481637;49.9442585671642
314.786626608099;49.7115527723286
314.808238399829;49.522346038937
314.829850191558;49.3963885481108
314.851461983288;49.3332717954245
314.873073775018;49.3218052242413
314.894685566747;49.3601867580996
314.916297358477;49.4547986999644
314.937909150206;49.60336643211
314.959520941936;49.7909690489244
314.981132733665;50.0102390625353
315.002744525395;50.2532774919754
315.024356317124;50.4895885551878
315.045968108854;50.7133266113544
315.067579900583;50.9324392642793
315.089191692313;51.1440246910102
315.110803484042;51.3182134943102
315.132415275772;51.4369659068555
315.154027067501;51.4953955733844
315.175638859231;51.4935843796002
315.19725065096;51.4296877725236
315.21886244269;51.3083042384881
315.240474234419;51.1475673797121
315.262086026149;50.9558469787285
315.283697817878;50.7294222247668
315.305309609608;50.4766461683349
315.326921401337;50.2112343098713
315.348533193067;49.9473879829212
315.370144984796;49.6996244427768
315.391756776526;49.4744565231362
315.413368568255;49.2629346769241
315.434980359985;49.0611868251986
315.456592151714;48.8739873287684
315.478203943444;48.7001029860294
315.499815735173;48.5282442981624
315.521427526903;48.3518008233504
315.543039318633;48.1742156101703
315.564651110362;47.9972273489192
315.586262902092;47.8214269492542
315.607874693821;47.6486740753699
315.629486485551;47.4841946358053
315.65109827728;47.3291051636292
315.67271006901;47.1826545288093
315.694321860739;47.0452201227085
315.715933652469;46.9177616337841
315.737545444198;46.8093500586029
315.759157235928;46.7231763525913
315.780769027657;46.6501327512709
315.802380819387;46.586959703764
315.823992611116;46.530370844313
315.845604402846;46.4864718680285
315.867216194575;46.4710153020666
315.888827986305;46.4928066614651
315.910439778034;46.5577021430631
315.932051569764;46.6664600321622
315.953663361493;46.8184885594356
315.975275153223;47.003862484713
315.996886944952;47.212271447831
316.018498736682;47.4358670250408
316.040110528411;47.6655789535139
316.061722320141;47.8766091222653
316.08333411187;48.0486201233199
316.1049459036;48.1691190175547
316.126557695329;48.2251883906936
316.148169487059;48.2128272660896
316.169781278788;48.1704646588221
316.191393070518;48.1036644043762
316.213004862247;47.9988256322109
316.234616653977;47.8582822303757
316.256228445706;47.700852487669
316.277840237436;47.53777534332
316.299452029165;47.3916081705065
316.321063820895;47.2686741479514
316.342675612625;47.1584460405658
316.364287404354;47.0497087686502
316.385899196084;46.9358714997548
316.407510987813;46.8304997664513
316.429122779543;46.7320201415078
316.450734571272;46.6364270856787
316.472346363002;46.537096924887
316.493958154731;46.4219731852567
316.515569946461;46.2891558463912
316.53718173819;46.152254219267
316.55879352992;46.0136531691934
316.580405321649;45.8746505280392
316.602017113379;45.7493059447353
316.623628905108;45.637307835482
316.645240696838;45.5326837626149
316.666852488567;45.4435302085809
316.688464280297;45.3752087250981
316.710076072026;45.3129165926846
316.731687863756;45.2424625286448
316.753299655485;45.1590164476582
316.774911447215;45.0594013729685
316.796523238944;44.9442248904586
316.818135030674;44.8086163937728
316.839746822403;44.6335292945358
316.861358614133;44.4046707039239
316.882970405862;44.1363719998824
316.904582197592;43.8454709731992
316.926193989321;43.5417707503258
316.947805781051;43.2322866494291
316.96941757278;42.9178229027309
316.99102936451;42.606035305049
317.012641156239;42.3147774119368
317.034252947969;42.0576812645547
317.055864739699;41.8284077970278
317.077476531428;41.6175839526317
317.099088323158;41.4232849342796
317.120700114887;41.2512966580314
317.142311906617;41.1098925525486
317.163923698346;40.9973741688895
317.185535490076;40.9083938161947
317.207147281805;40.8379963600866
317.228759073535;40.7824524006921
317.250370865264;40.7426340428131
317.271982656994;40.7257789762857
317.293594448723;40.7393286942931
317.315206240453;40.7802219887889
317.336818032182;40.8380954515181
317.358429823912;40.9164912477274
317.380041615641;41.0218530056173
317.401653407371;41.1521698333303
317.4232651991;41.2998974057486
317.44487699083;41.447004306403
317.466488782559;41.5849198972656
317.488100574289;41.7112188808329
317.509712366018;41.8239682265897
317.531324157748;41.9211600974952
317.552935949477;42.0057481955749
317.574547741207;42.0788201188604
317.596159532936;42.1199882714763
317.617771324666;42.1094529853856
317.639383116395;42.0555173365595
317.660994908125;41.9667475738632
317.682606699854;41.8415483503982
317.704218491584;41.6888834047793
317.725830283313;41.5186459475002
317.747442075043;41.3340729778879
317.769053866772;41.1366579597111
317.790665658502;40.9308355989595
317.812277450232;40.7228623833696
317.833889241961;40.5211614948803
317.855501033691;40.3385028935605
317.87711282542;40.1801282538999
317.89872461715;40.0417404576329
317.920336408879;39.9244587250825
317.941948200609;39.8313829882986
317.963559992338;39.756519178928
317.985171784068;39.6895930470016
318.006783575797;39.6273972901854
318.028395367527;39.5728205557743
318.050007159256;39.5211774838645
318.071618950986;39.471168508829
318.093230742715;39.4186144050509
318.114842534445;39.3623228319837
318.136454326174;39.3051298546337
318.158066117904;39.2604335300474
318.179677909633;39.2388076393485
318.201289701363;39.2373013850033
318.222901493092;39.2486125439603
318.244513284822;39.2684134785577
318.266125076551;39.2991782080369
318.287736868281;39.3538263881567
318.30934866001;39.4388389877248
318.33096045174;39.5433079436096
318.352572243469;39.6549525790035
318.374184035199;39.7678855771386
318.395795826928;39.8789262871337
318.417407618658;39.9856527870527
318.439019410387;40.091081719419
318.460631202117;40.190685455698
318.482242993846;40.2810772822691
318.503854785576;40.3659186553694
318.525466577306;40.4453298043631
318.547078369035;40.511890722601
318.568690160765;40.5643460495836
318.590301952494;40.6117883796325
318.611913744224;40.6583428846637
318.633525535953;40.6958727384263
318.655137327683;40.7161499067045
318.676749119412;40.7159599432977
318.698360911142;40.6891371711353
318.719972702871;40.6305073938926
318.741584494601;40.5390256565955
318.76319628633;40.4210597519335
318.78480807806;40.287261185446
318.806419869789;40.1424116286212
318.828031661519;39.9922309769849
318.849643453248;39.8504932404357
318.871255244978;39.7302325228274
318.892867036707;39.6361639838042
318.914478828437;39.5740262881785
318.936090620166;39.5477520247416
318.957702411896;39.553089725651
318.979314203625;39.5881315790326
319.000925995355;39.6565177658751
319.022537787084;39.7522886882321
319.044149578814;39.8639322445919
319.065761370543;39.9815342061035
319.087373162273;40.0950137772226
319.108984954002;40.1950202221955
319.130596745732;40.2707652832648
319.152208537461;40.3156512893866
319.173820329191;40.3347948280479
319.19543212092;40.3297696377642
319.21704391265;40.2820423415873
319.238655704379;40.1708285595131
319.260267496109;40.0102353499319
319.281879287839;39.8284403639012
319.303491079568;39.625717501394
319.325102871298;39.3961882291253
319.346714663027;39.1520165921372
319.368326454757;38.8990989320775
319.389938246486;38.6410205524688
319.411550038216;38.3958110253255
319.433161829945;38.1843456533687
319.454773621675;38.0039221260321
319.476385413404;37.8507496735401
319.497997205134;37.7296199881252
319.519608996863;37.6448145271787
319.541220788593;37.5913758865051
319.562832580322;37.5600310188654
319.584444372052;37.5423143450673
319.606056163781;37.5304432756567
319.627667955511;37.5120278277301
319.64927974724;37.4742685341693
319.67089153897;37.4034897731532
319.692503330699;37.2941835674005
319.714115122429;37.1522013677997
319.735726914158;36.9813017823485
319.757338705888;36.7861139407855
319.778950497617;36.5661478742036
319.800562289347;36.3216918239973
319.822174081076;36.0598072623708
319.843785872806;35.7933179666445
319.865397664535;35.5378735993356
319.887009456265;35.3045340016462
319.908621247994;35.0943089721608
319.930233039724;34.9053429046292
319.951844831453;34.7444234705869
319.973456623183;34.6209908100175
319.995068414913;34.5424541288616
320.016680206642;34.5037739190373
320.038291998372;34.4942829029033
320.059903790101;34.5133403055769
320.081515581831;34.5665156468067
320.10312737356;34.6589214351911
320.12473916529;34.7809266818456
320.146350957019;34.9230972104444
320.167962748749;35.0840503820839
320.189574540478;35.2573921883476
320.211186332208;35.4297446027303
320.232798123937;35.5829447831636
320.254409915667;35.7052093392401
320.276021707396;35.7925428586954
320.297633499126;35.844442171217
320.319245290855;35.8617942787551
320.340857082585;35.8424988320842
320.362468874314;35.7904995732995
320.384080666044;35.7163466344313
320.405692457773;35.6424729952142
320.427304249503;35.5733244601807
320.448916041232;35.5052139401333
320.470527832962;35.4400471422963
320.492139624691;35.3904904992561
320.513751416421;35.3627754990689
320.53536320815;35.3604712824984
320.55697499988;35.3757958560248
320.578586791609;35.3938279667474
320.600198583339;35.4150661027512
320.621810375068;35.4430570880492
320.643422166798;35.4763091356602
320.665033958527;35.5154972444423
320.686645750257;35.5623708005157
320.708257541986;35.6027687060692
320.729869333716;35.6282897218841
320.751481125445;35.6323463967586
320.773092917175;35.6092961020512
320.794704708905;35.5638581899326
320.816316500634;35.5113056078927
320.837928292364;35.4651647844097
320.859540084093;35.4258444971516
320.881151875823;35.3929737989264
320.902763667552;35.3680474601112
320.924375459282;35.361018349526
320.945987251011;35.3857475481889
320.967599042741;35.4418771292439
320.98921083447;35.5260038690625
321.0108226262;35.6298451565202
321.032434417929;35.7460810495556
321.054046209659;35.8760469392752
321.075658001388;36.0203181901415
321.097269793118;36.1558135996756
321.118881584847;36.2701952401039
321.140493376577;36.3670056914524
321.162105168306;36.4486728212902
321.183716960036;36.5169687970957
321.205328751765;36.5767721949276
321.226940543495;36.6353367582596
321.248552335224;36.6982124639099
321.270164126954;36.7689056124138
321.291775918683;36.8508996669526
321.313387710413;36.9399113881989
321.334999502142;37.0212918464786
321.356611293872;37.0889616515535
321.378223085601;37.1366878520208
321.399834877331;37.1561880469743
321.42144666906;37.1408483275379
321.44305846079;37.0863702060058
321.464670252519;36.9825905499555
321.486282044249;36.8248351317069
321.507893835979;36.6242729395896
321.529505627708;36.3932424213485
321.551117419438;36.1395092222188
321.572729211167;35.8737169882954
321.594341002897;35.6059759919004
321.615952794626;35.3417558748608
321.637564586356;35.0826095773333
321.659176378085;34.8308278785471
321.680788169815;34.5919614093228
321.702399961544;34.3697586911579
321.724011753274;34.1607316669391
321.745623545003;33.967700196722
321.767235336733;33.7986542472841
321.788847128462;33.6502490186059
321.810458920192;33.5143777445064
321.832070711921;33.3904711067638
321.853682503651;33.2838732483131
321.87529429538;33.1920300250569
321.89690608711;33.1100634979979
321.918517878839;33.03436283225
321.940129670569;32.9606553648092
321.961741462298;32.8893670056955
321.983353254028;32.8220310944048
322.004965045757;32.7524179498007
322.026576837487;32.6666087150018
322.048188629216;32.5684991496055
322.069800420946;32.4438367839262
322.091412212675;32.2793607875651
322.113024004405;32.0844185080634
322.134635796134;31.8620255153189
322.156247587864;31.6089442338845
322.177859379593;31.3230201474015
322.199471171323;31.0047162189289
322.221082963052;30.6573411754819
322.242694754782;30.2932352508616
322.264306546512;29.9367791033318
322.285918338241;29.6149868898361
322.307530129971;29.3399666693479
322.3291419217;29.1097533458996
322.35075371343;28.9204712710448
322.372365505159;28.77339386899
322.393977296889;28.6657919660765
322.415589088618;28.5886846108743
322.437200880348;28.528936114617
322.458812672077;28.4734067929305
322.480424463807;28.412555210582
322.502036255536;28.3436263614433
322.523648047266;28.2616965215139
322.545259838995;28.1595341173069
322.566871630725;28.0354296603409
322.588483422454;27.9033244091594
322.610095214184;27.7788116028588
322.631707005913;27.65864461097
322.653318797643;27.5471327022801
322.674930589372;27.4660444565193
322.696542381102;27.4297694397622
322.718154172831;27.4437145739782
322.739765964561;27.512961285426
322.76137775629;27.639113958812
322.78298954802;27.8176197834185
322.804601339749;28.0429554752719
322.826213131479;28.3094014383131
322.847824923208;28.6092628199672
322.869436714938;28.931429277279
322.891048506667;29.2501863557938
322.912660298397;29.5456851746996
322.934272090126;29.806962109435
322.955883881856;30.0281403725892
322.977495673586;30.2135255969527
322.999107465315;30.359884492728
323.020719257045;30.4490052286724
323.042331048774;30.4622250772573
323.063942840504;30.4015922571786
323.085554632233;30.2816861359683
323.107166423963;30.1005593679873
323.128778215692;29.8616818405896
323.150390007422;29.5845320014052
323.172001799151;29.2777657463006
323.193613590881;28.938016147613
323.21522538261;28.5642902999031
323.23683717434;28.1530490255895
323.258448966069;27.7060655905587
323.280060757799;27.2376880412085
323.301672549528;26.7664897935815
323.323284341258;26.3224014080943
323.344896132987;25.9155968593136
323.366507924717;25.5344802766346
323.388119716446;25.177952072335
323.409731508176;24.8522035146379
323.431343299905;24.5542617003172
323.452955091635;24.2836385030513
323.474566883364;24.0433027070228
323.496178675094;23.8325147824381
323.517790466823;23.6535359262323
323.539402258553;23.5163310695678
323.561014050282;23.4192429235873
323.582625842012;23.3570314605503
323.604237633741;23.3302819696274
323.625849425471;23.3478923393635
323.6474612172;23.4166410060055
323.66907300893;23.5334991776275
323.690684800659;23.6885591770808
323.712296592389;23.8813956451185
323.733908384119;24.120599289172
323.755520175848;24.4005099397667
323.777131967578;24.6871676381952
323.798743759307;24.9575276617641
323.820355551037;25.2158892914645
323.841967342766;25.4678609126487
323.863579134496;25.7060365969574
323.885190926225;25.9274972221247
323.906802717955;26.1272521607926
323.928414509684;26.2942252593084
323.950026301414;26.4219660188642
323.971638093143;26.5152927534971
323.993249884873;26.5858090761893
324.014861676602;26.6356843314563
324.036473468332;26.6660963931062
324.058085260061;26.6735194650433
324.079697051791;26.6515190292299
324.10130884352;26.6015659389808
324.12292063525;26.5207111374425
324.144532426979;26.4001905780924
324.166144218709;26.2471169627651
324.187756010438;26.0784932671199
324.209367802168;25.8970823848914
324.230979593897;25.7026444903236
324.252591385627;25.5118024382993
324.274203177356;25.3394795690223
324.295814969086;25.1851592341446
324.317426760815;25.0415462743124
324.339038552545;24.9008725323555
324.360650344274;24.7637512722133
324.382262136004;24.6407347879584
324.403873927733;24.5377055060152
324.425485719463;24.4562190564715
324.447097511193;24.3990582669606
324.468709302922;24.3664030633918
324.490321094652;24.3589935049723
324.511932886381;24.3785195197002
324.533544678111;24.4305749063258
324.55515646984;24.524719194521
324.57676826157;24.6656381886927
324.598380053299;24.8508259962521
324.619991845029;25.0729221754422
324.641603636758;25.3317203888307
324.663215428488;25.6155212114564
324.684827220217;25.9099446735504
324.706439011947;26.2126037982724
324.728050803676;26.5205739036572
324.749662595406;26.8173964870377
