Name;BF_ESR_01_90s_Y_gon_60dg_result

Recipe
Accumulations;5;Number of accumulations
RetryCount;0;Number of retries on error
AbortOnError;True;Abort on error
EnableQFactorMeasurement;False;Enable/Disable q-Factor measurement
Bfrom;313;B from
Bto;363;B to
SweepTime;60;Sweep time
Modulation;0.2;Modulation
ModulationFreq;100;Modulation
BHoldEnabled;False;B hold enabled
BHold;0;B hold
MicrowavePower;2;Microwave power
MarkerEnabled;False;
MarkerStartField;0;
MarkerEndField;0;
Mode;;
KineticGFact;0;
KineticTotalTransientTime;0;
KineticTimeResolution;0;
TempFrom;5;
TempUseSlope;False;
TempTo;5;
TempdT;1;
TempSetupTime;0;
GonFrom;0;
GonTo;180;
GonSteps;20;
XRayEnabled;False;
XRayTime;3;
XRayVoltage;40;
XRayCurrent;0.5;
UVEnabled;False;
UVIntensity;0;
UVTime;0;
UVLeadTime;0;
UVWavelength;0;
PowSweepFrom;1;
PowSweepTo;5;
PowSweepSteps;5;
AmpModSweepFrom;0;
AmpModSweepTo;1;
AmpModSweepSteps;10;
ExtTriggerEnabled;False;
ExtTrigLeadTime;0;
ExtTrigOnTime;5;

Meas
BField [mT];MW_Absorption []
313.007350158691;66.5829058949291
313.028957372056;66.2583176295444
313.050564585421;65.8717461588288
313.072171798785;65.4301320733478
313.09377901215;64.9211180337091
313.115386225514;64.3589290152469
313.136993438879;63.7554463712425
313.158600652244;63.1014824195575
313.180207865608;62.3958909180906
313.201815078973;61.657927033373
313.223422292337;60.9113274257391
313.245029505702;60.1725459244344
313.266636719067;59.4522420346389
313.288243932431;58.7719643143777
313.309851145796;58.1505974988959
313.33145835916;57.6031573983848
313.353065572525;57.1452426364439
313.37467278589;56.7783095888873
313.396279999254;56.5043051353739
313.417887212619;56.3354108831842
313.439494425983;56.2910275708355
313.461101639348;56.3500202415068
313.482708852713;56.494019297018
313.504316066077;56.7084337074679
313.525923279442;56.9917714167893
313.547530492807;57.3474250541678
313.569137706171;57.7679860562252
313.590744919536;58.2094448060525
313.6123521329;58.6257931231237
313.633959346265;59.0084969765273
313.65556655963;59.3634810840134
313.677173772994;59.6976573326903
313.698780986359;60.0082397151688
313.720388199723;60.2861377405636
313.741995413088;60.5217454292783
313.763602626453;60.7047383724654
313.785209839817;60.8372117321007
313.806817053182;60.9298889732928
313.828424266546;60.9906571305437
313.850031479911;61.0189036958658
313.871638693276;61.0124666610607
313.89324590664;60.9814917887876
313.914853120005;60.9257307414591
313.936460333369;60.8367761702626
313.958067546734;60.7225456527406
313.979674760099;60.601080680956
314.001281973463;60.4780387671958
314.022889186828;60.3496903941746
314.044496400192;60.212598968799
314.066103613557;60.0696876642563
314.087710826922;59.9260084232083
314.109318040286;59.7786444930918
314.130925253651;59.620037336716
314.152532467015;59.4563376317156
314.17413968038;59.3140857662971
314.195746893745;59.2070852907319
314.217354107109;59.1290044466376
314.238961320474;59.0743851966542
314.260568533838;59.0440863936707
314.282175747203;59.0297874066856
314.303782960568;59.0304409575649
314.325390173932;59.0485464952599
314.346997387297;59.0767616962723
314.368604600661;59.0981584984743
314.390211814026;59.0968033289449
314.411819027391;59.0810087893896
314.433426240755;59.0696776300306
314.45503345412;59.0579344264378
314.476640667484;59.0253100614375
314.498247880849;58.9630613200956
314.519855094214;58.8750330865468
314.541462307578;58.7661513921643
314.563069520943;58.634182448501
314.584676734307;58.4807985760744
314.606283947672;58.3065039351678
314.627891161037;58.1145858864969
314.649498374401;57.9096530956697
314.671105587766;57.6973607359424
314.69271280113;57.4892469474811
314.714320014495;57.2909831000679
314.73592722786;57.105302750702
314.757534441224;56.9404456127504
314.779141654589;56.8057330124825
314.800748867954;56.713262183872
314.822356081318;56.667916008618
314.843963294683;56.6641495214652
314.865570508047;56.6970230714618
314.887177721412;56.7620209254294
314.908784934777;56.8565576427082
314.930392148141;56.9760452169757
314.951999361506;57.1051361675609
314.97360657487;57.2306754557034
314.995213788235;57.3443191479844
315.0168210016;57.4494449493062
315.038428214964;57.5451912015276
315.060035428329;57.621546101469
315.081642641693;57.6691712079645
315.103249855058;57.6924767710866
315.124857068423;57.6993029123452
315.146464281787;57.689317063495
315.168071495152;57.6616361050138
315.189678708516;57.6221237855136
315.211285921881;57.5778100486723
315.232893135246;57.5317348068876
315.25450034861;57.4839899704585
315.276107561975;57.4370564876831
315.297714775339;57.3925358845824
315.319321988704;57.3589598738035
315.340929202069;57.3386276621294
315.362536415433;57.329217510955
315.384143628798;57.3300018962947
315.405750842162;57.3436605803844
315.427358055527;57.3626350880674
315.448965268892;57.3765928103103
315.470572482256;57.3789610504236
315.492179695621;57.3644372603188
315.513786908985;57.3287009803393
315.53539412235;57.2658639661292
315.557001335715;57.1712987803598
315.578608549079;57.0388198729395
315.600215762444;56.8701885952634
315.621822975808;56.6781096773183
315.643430189173;56.4739761358668
315.665037402538;56.2616507428802
315.686644615902;56.0261948624081
315.708251829267;55.7518094247916
315.729859042632;55.4431289718018
315.751466255996;55.1180393088423
315.773073469361;54.7902187059218
315.794680682725;54.4767493092331
315.81628789609;54.1778220513244
315.837895109455;53.8833865588905
315.859502322819;53.5970019391842
315.881109536184;53.3304181654107
315.902716749548;53.0847712351915
315.924323962913;52.8604516673466
315.945931176278;52.6710981113601
315.967538389642;52.5347230104133
315.989145603007;52.4532147825956
316.010752816371;52.42230837413
316.032360029736;52.4447445493201
316.053967243101;52.5271868774202
316.075574456465;52.6622274470944
316.09718166983;52.8372295904533
316.118788883194;53.0476743409076
316.140396096559;53.2916256660637
316.162003309924;53.5620395230363
316.183610523288;53.8393083001404
316.205217736653;54.0980567763469
316.226824950017;54.317918825714
316.248432163382;54.488884479148
316.270039376747;54.6100921392107
316.291646590111;54.6792966092227
316.313253803476;54.6888837449874
316.33486101684;54.6336885470343
316.356468230205;54.5144617889887
316.37807544357;54.3432154278004
316.399682656934;54.1376186942742
316.421289870299;53.9107749946777
316.442897083663;53.667409080285
316.464504297028;53.4210271360064
316.486111510393;53.1965008566558
316.507718723757;53.0065237395672
316.529325937122;52.8426010544922
316.550933150486;52.6942428247624
316.572540363851;52.5602299256746
316.594147577216;52.4470670921303
316.61575479058;52.3453459618024
316.637362003945;52.2389228348236
316.658969217309;52.1129727821402
316.680576430674;51.9479336610534
316.702183644039;51.7432401686333
316.723790857403;51.5212030564489
316.745398070768;51.2947356366981
316.767005284132;51.0700828991049
316.788612497497;50.8528109416379
316.810219710862;50.6421758255382
316.831826924226;50.4310064136784
316.853434137591;50.2193263278765
316.875041350956;50.0135270063537
316.89664856432;49.8228219641004
316.918255777685;49.6453998208304
316.939862991049;49.4754251182124
316.961470204414;49.3202962610706
316.983077417779;49.1830207001404
317.004684631143;49.0584791704589
317.026291844508;48.956653058268
317.047899057872;48.882099623543
317.069506271237;48.8313958331248
317.091113484602;48.8013573904224
317.112720697966;48.7968422437072
317.134327911331;48.8230257220564
317.155935124695;48.8774340236965
317.17754233806;48.9546201213184
317.199149551425;49.0587487731731
317.220756764789;49.1923010545646
317.242363978154;49.3489094581261
317.263971191518;49.5295707737708
317.285578404883;49.7388824804301
317.307185618248;49.9695406548944
317.328792831612;50.2035496676755
317.350400044977;50.4316802733098
317.372007258341;50.6573746032801
317.393614471706;50.8692413779219
317.415221685071;51.0499532142212
317.436828898435;51.1888944681518
317.4584361118;51.2859280923946
317.480043325164;51.3424571621426
317.501650538529;51.3507503479352
317.523257751894;51.3053273747638
317.544864965258;51.2172064641204
317.566472178623;51.1009645639306
317.588079391987;50.9571009516426
317.609686605352;50.7835193544931
317.631293818717;50.5918976291665
317.652901032081;50.4009377845866
317.674508245446;50.2167566049902
317.69611545881;50.0356872468779
317.717722672175;49.8549468167761
317.73932988554;49.6705088677477
317.760937098904;49.4681919131701
317.782544312269;49.2354437076816
317.804151525633;48.9758367111
317.825758738998;48.703365393221
317.847365952363;48.4228739071663
317.868973165727;48.1415219926627
317.890580379092;47.8635390676419
317.912187592457;47.5989282793718
317.933794805821;47.3638330747926
317.955402019186;47.1657556981559
317.97700923255;47.0122541612616
317.998616445915;46.9014789298205
318.02022365928;46.8289704755964
318.041830872644;46.7982848371426
318.063438086009;46.8115299141741
318.085045299373;46.8608358854456
318.106652512738;46.9373272226479
318.128259726103;47.025989015348
318.149866939467;47.1188518405184
318.171474152832;47.2246649372612
318.193081366196;47.3515544419451
318.214688579561;47.4895297285683
318.236295792926;47.6270293289618
318.25790300629;47.7780681598202
318.279510219655;47.9505283219988
318.301117433019;48.134486031031
318.322724646384;48.3280347650465
318.344331859749;48.5363579402286
318.365939073113;48.7571689539766
318.387546286478;48.9871062716049
318.409153499842;49.2292252394346
318.430760713207;49.4841794748806
318.452367926572;49.7364970374795
318.473975139936;49.9638603520856
318.495582353301;50.1624231281668
318.517189566665;50.3345961587523
318.53879678003;50.476298048031
318.560403993395;50.5819136123785
318.582011206759;50.6445495638288
318.603618420124;50.6592257855884
318.625225633488;50.622981833483
318.646832846853;50.5325583532934
318.668440060218;50.3946042339276
318.690047273582;50.2250136717411
318.711654486947;50.0301166004551
318.733261700311;49.8087577203129
318.754868913676;49.5625995030513
318.776476127041;49.3032443162636
318.798083340405;49.0683551574922
318.81969055377;48.8750596892204
318.841297767135;48.7270347349454
318.862904980499;48.6296329414167
318.884512193864;48.597658386538
318.906119407228;48.6452220414223
318.927726620593;48.7586365907577
318.949333833958;48.9289319357437
318.970941047322;49.1594301843746
318.992548260687;49.4226863286693
319.014155474051;49.6946458529838
319.035762687416;49.9688288014
319.057369900781;50.2381386167268
319.078977114145;50.4962625924199
319.10058432751;50.7096767131835
319.122191540874;50.8692496642639
319.143798754239;50.9780785411682
319.165405967604;51.0207503820142
319.187013180968;50.9836187879278
319.208620394333;50.8822203480439
319.230227607697;50.7391031109818
319.251834821062;50.5538367562568
319.273442034427;50.3266373254383
319.295049247791;50.070084471612
319.316656461156;49.810594898501
319.33826367452;49.5681555567708
319.359870887885;49.3510070784095
319.38147810125;49.1630435826832
319.403085314614;48.9907572748836
319.424692527979;48.8264424928935
319.446299741343;48.6956279817922
319.467906954708;48.6033935894408
319.489514168073;48.543806914843
319.511121381437;48.5055471507538
319.532728594802;48.4702424215282
319.554335808166;48.4230921907336
319.575943021531;48.3575554212061
319.597550234896;48.2642969327536
319.61915744826;48.1346201693988
319.640764661625;47.9545461590091
319.662371874989;47.716333876184
319.683979088354;47.4308499620571
319.705586301719;47.1152040936021
319.727193515083;46.778266878435
319.748800728448;46.4173761240842
319.770407941812;46.0289283185784
319.792015155177;45.6269604289545
319.813622368542;45.2317193067995
319.835229581906;44.8392941071768
319.856836795271;44.4424034227563
319.878444008635;44.0543546205412
319.900051222;43.6958487498596
319.921658435365;43.365816837767
319.943265648729;43.048471207539
319.964872862094;42.7273711094714
319.986480075458;42.4012936279876
320.008087288823;42.0967432112052
320.029694502188;41.8295514292183
320.051301715552;41.5851435401899
320.072908928917;41.3504916608891
320.094516142282;41.1220509907412
320.116123355646;40.9007317288563
320.137730569011;40.6934353508789
320.159337782375;40.5127432963043
320.18094499574;40.3667271673293
320.202552209105;40.2549788708664
320.224159422469;40.1762220657733
320.245766635834;40.1330079965429
320.267373849198;40.1208413531332
320.288981062563;40.1248108949147
320.310588275928;40.1358679618528
320.332195489292;40.1504372959868
320.353802702657;40.1645352336708
320.375409916021;40.1728983934357
320.397017129386;40.163068024935
320.418624342751;40.1312392952003
320.440231556115;40.0833475835127
320.46183876948;40.0217984199394
320.483445982844;39.9449758072228
320.505053196209;39.8562533615319
320.526660409574;39.7661582314663
320.548267622938;39.6930961515529
320.569874836303;39.654419139356
320.591482049667;39.6452052066651
320.613089263032;39.6556116459887
320.634696476397;39.6919274750704
320.656303689761;39.7559698941651
320.677910903126;39.8424583842529
320.69951811649;39.9491067315233
320.721125329855;40.0785326481505
320.74273254322;40.22998673372
320.764339756584;40.3962788529743
320.785946969949;40.5672090119383
320.807554183313;40.7421283948127
320.829161396678;40.9263402594576
320.850768610043;41.1237509710282
320.872375823407;41.3221474498198
320.893983036772;41.5036593094566
320.915590250136;41.671380272979
320.937197463501;41.8337926491375
320.958804676866;41.9812631792197
320.98041189023;42.1145592937851
321.002019103595;42.239639678551
321.02362631696;42.3429969123
321.045233530324;42.4189440182845
321.066840743689;42.4622675129626
321.088447957053;42.4690506410182
321.110055170418;42.4432621983726
321.131662383783;42.3991832907798
321.153269597147;42.3553238124829
321.174876810512;42.3250139142101
321.196484023876;42.3200362694872
321.218091237241;42.3533838839831
321.239698450606;42.4274071281416
321.26130566397;42.5447057812639
321.282912877335;42.7149132452294
321.304520090699;42.938124812939
321.326127304064;43.2113109170499
321.347734517429;43.5312336681242
321.369341730793;43.8873410662966
321.390948944158;44.2482883235996
321.412556157522;44.5870811780187
321.434163370887;44.8861979803211
321.455770584252;45.1213397215339
321.477377797616;45.2831514452923
321.498985010981;45.3805968533279
321.520592224345;45.4067261296232
321.54219943771;45.3512144984354
321.563806651075;45.2278762260165
321.585413864439;45.0446782624048
321.607021077804;44.8070439805741
321.628628291168;44.5274174862941
321.650235504533;44.2207963858354
321.671842717898;43.9074070567826
321.693449931262;43.6127535403331
321.715057144627;43.3536923951191
321.736664357991;43.1324384497272
321.758271571356;42.9485071950159
321.779878784721;42.7968493417586
321.801485998085;42.6692028253604
321.82309321145;42.5580698203349
321.844700424814;42.45942102618
321.866307638179;42.3639049439505
321.887914851544;42.2595756140999
321.909522064908;42.1388240601745
321.931129278273;41.9964003288521
321.952736491637;41.8184082870167
321.974343705002;41.5946443021269
321.995950918367;41.3232770406524
322.017558131731;41.0044924370185
322.039165345096;40.6300274705765
322.06077255846;40.1902021509082
322.082379771825;39.6985955760822
322.10398698519;39.185767551331
322.125594198554;38.6524348880462
322.147201411919;38.0824685062693
322.168808625284;37.4735948350185
322.190415838648;36.8623326039924
322.212023052013;36.2742470092212
322.233630265377;35.6996351280621
322.255237478742;35.1495314217218
322.276844692107;34.6556862789885
322.298451905471;34.2235963387501
322.320059118836;33.844364001134
322.3416663322;33.526574404892
322.363273545565;33.2862960945532
322.38488075893;33.1252521566542
322.406487972294;33.0255647159222
322.428095185659;32.9824340375074
322.449702399023;32.9915098315171
322.471309612388;33.0448856456656
322.492916825753;33.1377127485742
322.514524039117;33.2594515257308
322.536131252482;33.4051370694274
322.557738465846;33.5746301756602
322.579345679211;33.7616277133839
322.600952892576;33.966271329198
322.62256010594;34.1844513430075
322.644167319305;34.4067311394334
322.665774532669;34.6276613228843
322.687381746034;34.854337477426
322.708988959399;35.0962376161378
322.730596172763;35.3489326069755
322.752203386128;35.5956673033903
322.773810599492;35.8263887761852
322.795417812857;36.0450869574032
322.817025026222;36.2509270229637
322.838632239586;36.4235868578822
322.860239452951;36.5541278050796
322.881846666315;36.6463215563789
322.90345387968;36.695413126296
322.925061093045;36.7008993784646
322.946668306409;36.661462996377
322.968275519774;36.5819231601167
322.989882733138;36.4832598274739
323.011489946503;36.3862927589444
323.033097159868;36.3035967818588
323.054704373232;36.2315819231673
323.076311586597;36.1647363581207
323.097918799961;36.1182788680963
323.119526013326;36.11546644528
323.141133226691;36.1653725223479
323.162740440055;36.2479748898272
323.18434765342;36.3485405601568
323.205954866785;36.4649765090886
323.227562080149;36.5959509718556
323.249169293514;36.7123413114714
323.270776506878;36.7855189818388
323.292383720243;36.8093275434185
323.313990933608;36.7780154791952
323.335598146972;36.705661411617
323.357205360337;36.6016122893461
323.378812573701;36.4482630304321
323.400419787066;36.2411136462906
323.422027000431;35.9926110531607
323.443634213795;35.7184678796934
323.46524142716;35.4315904898915
323.486848640524;35.1400926245497
323.508455853889;34.8681454372387
323.530063067254;34.615060724776
323.551670280618;34.3722802614517
323.573277493983;34.1383037590095
323.594884707347;33.9251550418001
323.616491920712;33.7419225137648
323.638099134077;33.5911523904864
323.659706347441;33.4604216497774
323.681313560806;33.3426649639453
323.70292077417;33.2400357391402
323.724527987535;33.1459505469233
323.7461352009;33.0548243625999
323.767742414264;32.9687656819418
323.789349627629;32.8924305350823
323.810956840993;32.8188956009738
323.832564054358;32.7383882337652
323.854171267723;32.64542891527
323.875778481087;32.5378201763287
323.897385694452;32.415853756128
323.918992907816;32.2803054329461
323.940600121181;32.1297737975796
323.962207334546;31.9592570826757
323.98381454791;31.7589808571431
324.005421761275;31.5384890522861
324.027028974639;31.3089334932333
324.048636188004;31.0694641365466
324.070243401369;30.820055493232
324.091850614733;30.5616610503827
324.113457828098;30.2964786711892
324.135065041463;30.0373376547957
324.156672254827;29.8041545586021
324.178279468192;29.6059067212804
324.199886681556;29.4605535011177
324.221493894921;29.3822508877482
324.243101108285;29.365717429845
324.26470832165;29.4153482590495
324.286315535015;29.5417845367235
324.307922748379;29.7479745508683
324.329529961744;30.0249802867793
324.351137175109;30.355547871029
324.372744388473;30.7283230779502
324.394351601838;31.1300914690669
324.415958815202;31.552394827996
324.437566028567;31.9874146946729
324.459173241932;32.404626593203
324.480780455296;32.7773322220964
324.502387668661;33.1082636385333
324.523994882025;33.386432438284
324.54560209539;33.603471422677
324.567209308755;33.762758717196
324.588816522119;33.8741766133194
324.610423735484;33.9418040197861
324.632030948848;33.9674464646739
324.653638162213;33.959447235304
324.675245375578;33.9241160197753
324.696852588942;33.8664232887007
324.718459802307;33.7919534158714
324.740067015671;33.7031024169745
324.761674229036;33.6012148508136
