Name;BF_ESR_01_360s_X_gon_20dg_result

Recipe
Accumulations;5;Number of accumulations
RetryCount;0;Number of retries on error
AbortOnError;True;Abort on error
EnableQFactorMeasurement;False;Enable/Disable q-Factor measurement
Bfrom;313;B from
Bto;363;B to
SweepTime;60;Sweep time
Modulation;0.2;Modulation
ModulationFreq;100;Modulation
BHoldEnabled;False;B hold enabled
BHold;0;B hold
MicrowavePower;2;Microwave power
MarkerEnabled;False;
MarkerStartField;0;
MarkerEndField;0;
Mode;;
KineticGFact;0;
KineticTotalTransientTime;0;
KineticTimeResolution;0;
TempFrom;5;
TempUseSlope;False;
TempTo;5;
TempdT;1;
TempSetupTime;0;
GonFrom;0;
GonTo;180;
GonSteps;20;
XRayEnabled;False;
XRayTime;3;
XRayVoltage;40;
XRayCurrent;0.5;
UVEnabled;False;
UVIntensity;0;
UVTime;0;
UVLeadTime;0;
UVWavelength;0;
PowSweepFrom;1;
PowSweepTo;5;
PowSweepSteps;5;
AmpModSweepFrom;0;
AmpModSweepTo;1;
AmpModSweepSteps;10;
ExtTriggerEnabled;False;
ExtTrigLeadTime;0;
ExtTrigOnTime;5;

Meas
BField [mT];MW_Absorption []
313.014530029297;130.862945804766
313.036147035494;129.419765139303
313.057764041691;127.819232680643
313.079381047888;126.168637863984
313.100998054085;124.559594761998
313.122615060282;122.998619445268
313.144232066479;121.461386477067
313.165849072676;119.924604409334
313.187466078873;118.376647363184
313.20908308507;116.801896874228
313.230700091267;115.187528458699
313.252317097465;113.547313788028
313.273934103662;111.902205586804
313.295551109859;110.279837612068
313.317168116056;108.697279274807
313.338785122253;107.146123373201
313.36040212845;105.598560230066
313.382019134647;104.054494475421
313.403636140844;102.543816125537
313.425253147041;101.064415835448
313.446870153238;99.5970998396189
313.468487159435;98.1350187344779
313.490104165632;96.6667654905283
313.511721171829;95.1981701383831
313.533338178026;93.7506690715772
313.554955184223;92.312090890032
313.57657219042;90.9090495792517
313.598189196618;89.5622452632545
313.619806202815;88.2421849438296
313.641423209012;86.9491208052546
313.663040215209;85.7290462300694
313.684657221406;84.5761430086344
313.706274227603;83.457744564114
313.7278912338;82.3606107938562
313.749508239997;81.3307536645794
313.771125246194;80.3782849935778
313.792742252391;79.4657872019725
313.814359258588;78.5788037475875
313.835976264785;77.748648072793
313.857593270982;76.9971385878073
313.879210277179;76.3013316123628
313.900827283376;75.6326317488204
313.922444289573;74.9942136278727
313.944061295771;74.4019093007952
313.965678301968;73.8386561432493
313.987295308165;73.2863358556473
314.008912314362;72.7550049701459
314.030529320559;72.2650402473728
314.052146326756;71.8276241093634
314.073763332953;71.4418201337113
314.09538033915;71.0969045582656
314.116997345347;70.7960478685806
314.138614351544;70.534907958302
314.160231357741;70.299946159871
314.181848363938;70.0869287119973
314.203465370135;69.9205386776008
314.225082376332;69.816223233377
314.246699382529;69.7744312677426
314.268316388726;69.7932749827339
314.289933394924;69.862276293665
314.311550401121;69.9846579569855
314.333167407318;70.1740610681336
314.354784413515;70.4400408943857
314.376401419712;70.7724321666246
314.398018425909;71.1603584958197
314.419635432106;71.5955985528922
314.441252438303;72.0569070814456
314.4628694445;72.5291712205863
314.484486450697;73.0164201599356
314.506103456894;73.5331015920982
314.527720463091;74.0994281004325
314.549337469288;74.7071611985208
314.570954475485;75.3471181840454
314.592571481682;76.0277468985624
314.614188487879;76.7367581156296
314.635805494077;77.4498362557637
314.657422500274;78.1749518376848
314.679039506471;78.9300593959416
314.700656512668;79.6980063095756
314.722273518865;80.4401004402025
314.743890525062;81.1603055735411
314.765507531259;81.8889908465798
314.787124537456;82.6172693470292
314.808741543653;83.2917272624065
314.83035854985;83.9018085068612
314.851975556047;84.4805619691461
314.873592562244;85.0578929346581
314.895209568441;85.6431928800816
314.916826574638;86.2359654072105
314.938443580835;86.8480489222434
314.960060587032;87.513860652681
314.98167759323;88.2648797260156
315.003294599427;89.0793674917942
315.024911605624;89.9180938710387
315.046528611821;90.8006060263781
315.068145618018;91.7583178306156
315.089762624215;92.7819498269295
315.111379630412;93.8432616847426
315.132996636609;94.9318825387441
315.154613642806;96.0433635864462
315.176230649003;97.1679276936389
315.1978476552;98.2909554994058
315.219464661397;99.3897335325251
315.241081667594;100.450632235132
315.262698673791;101.460127231866
315.284315679988;102.399881211924
315.305932686185;103.265409251915
315.327549692383;104.077210122521
315.34916669858;104.838898066396
315.370783704777;105.526880953976
315.392400710974;106.12446938819
315.414017717171;106.646705917028
315.435634723368;107.097205235498
315.457251729565;107.468242812494
315.478868735762;107.768141786547
315.500485741959;108.002524282502
315.522102748156;108.181645417527
315.543719754353;108.308591795784
315.56533676055;108.373417904562
315.586953766747;108.358852386896
315.608570772944;108.274707052522
315.630187779141;108.12368008225
315.651804785338;107.902386063362
315.673421791536;107.605009937803
315.695038797733;107.231823416304
315.71665580393;106.800672744937
315.738272810127;106.329833568525
315.759889816324;105.830446301151
315.781506822521;105.303233493603
315.803123828718;104.748526297113
315.824740834915;104.179340297752
315.846357841112;103.614983482232
315.867974847309;103.068433670065
315.889591853506;102.548924047601
315.911208859703;102.061623371577
315.9328258659;101.596371666902
315.954442872097;101.141282821263
315.976059878294;100.691005444698
315.997676884491;100.240162774443
316.019293890689;99.7815030221708
316.040910896886;99.3185793341123
316.062527903083;98.8621747352303
316.08414490928;98.4043350517549
316.105761915477;97.9384002444203
316.127378921674;97.4698401856049
316.148995927871;96.9881450761327
316.170612934068;96.4743636338114
316.192229940265;95.9271216373399
316.213846946462;95.3699393633934
316.235463952659;94.8258693080825
316.257080958856;94.2986921173569
316.278697965053;93.7818157186011
316.30031497125;93.2837962282838
316.321931977447;92.819260095892
316.343548983644;92.3831919491485
316.365165989842;91.965302977224
316.386782996039;91.5675350611466
316.408400002236;91.1942094069076
316.430017008433;90.8419043345013
316.45163401463;90.4986794376175
316.473251020827;90.1537020814508
316.494868027024;89.805842857301
316.516485033221;89.4455687370871
316.538102039418;89.0647331008553
316.559719045615;88.6514537523237
316.581336051812;88.2160447365656
316.602953058009;87.7676500673673
316.624570064206;87.2995600939909
316.646187070403;86.8067044284007
316.6678040766;86.3103005744987
316.689421082797;85.8277720982063
316.711038088995;85.3597269832443
316.732655095192;84.9119021299929
316.754272101389;84.4887650220724
316.775889107586;84.089022602732
316.797506113783;83.7211438244944
316.81912311998;83.3955401113597
316.840740126177;83.1170825336872
316.862357132374;82.8876580367624
316.883974138571;82.6946572013872
316.905591144768;82.5188186700002
316.927208150965;82.3603178030706
316.948825157162;82.2198975691641
316.970442163359;82.0823930418512
316.992059169556;81.9446845558631
317.013676175753;81.8101763827442
317.03529318195;81.6672044666591
317.056910188148;81.5037064900792
317.078527194345;81.3223760621632
317.100144200542;81.1269346982883
317.121761206739;80.9190094343529
317.143378212936;80.719162925368
317.164995219133;80.543219990638
317.18661222533;80.3892136528537
317.208229231527;80.2572001881854
317.229846237724;80.1549715255116
317.251463243921;80.0857907713537
317.273080250118;80.0452985650787
317.294697256315;80.0262776005531
317.316314262512;80.0343642895007
317.337931268709;80.0720970631972
317.359548274906;80.1283852165111
317.381165281103;80.1777701393318
317.402782287301;80.2036605835813
317.424399293498;80.1944649409354
317.446016299695;80.1436955919941
317.467633305892;80.0474104692745
317.489250312089;79.8889982192583
317.510867318286;79.6612554202427
317.532484324483;79.3758500236336
317.55410133068;79.0480031730315
317.575718336877;78.6759508566021
317.597335343074;78.2612352986534
317.618952349271;77.8167260157223
317.640569355468;77.3556248425227
317.662186361665;76.8927759182243
317.683803367862;76.439393950369
317.705420374059;75.9900938928454
317.727037380256;75.5528715193051
317.748654386454;75.1758539867893
317.770271392651;74.8724089357805
317.791888398848;74.6371723124172
317.813505405045;74.4780016198525
317.835122411242;74.4105913605774
317.856739417439;74.4320919885597
317.878356423636;74.5415982548679
317.899973429833;74.7296941011176
317.92159043603;74.9679907237806
317.943207442227;75.2386187187625
317.964824448424;75.5414693772524
317.986441454621;75.8800673597603
318.008058460818;76.2422750671251
318.029675467015;76.5942609505787
318.051292473212;76.9160843898287
318.072909479409;77.2006148576669
318.094526485606;77.4374346746131
318.116143491804;77.6081659743603
318.137760498001;77.7000051036446
318.159377504198;77.7057199416241
318.180994510395;77.6169827031389
318.202611516592;77.4443783227764
318.224228522789;77.1973900939805
318.245845528986;76.8915878449168
318.267462535183;76.5339294196784
318.28907954138;76.131257243482
318.310696547577;75.6998727629462
318.332313553774;75.260992934954
318.353930559971;74.8232976010513
318.375547566168;74.3953976366221
318.397164572365;73.9920162118593
318.418781578562;73.6207198697359
318.44039858476;73.2869813802496
318.462015590957;72.9960471939201
318.483632597154;72.7540421279614
318.505249603351;72.5500201136543
318.526866609548;72.3743741567589
318.548483615745;72.2242436597878
318.570100621942;72.0997576118568
318.591717628139;71.9914097344678
318.613334634336;71.8908715467856
318.634951640533;71.7945447911658
318.65656864673;71.7066706593376
318.678185652927;71.6273475577719
318.699802659124;71.5526491974169
318.721419665321;71.4780896397937
318.743036671518;71.4012031500204
318.764653677715;71.3238820479269
318.786270683913;71.2417942217789
318.80788769011;71.1493731966372
318.829504696307;71.0476061020919
318.851121702504;70.9324476317458
318.872738708701;70.7973379396307
318.894355714898;70.6353897051306
318.915972721095;70.4418550180331
318.937589727292;70.2012038379973
318.959206733489;69.9020528025932
318.980823739686;69.5578215807664
319.002440745883;69.1938244375221
319.02405775208;68.8054805697018
319.045674758277;68.3674421711595
319.067291764474;67.8903973429225
319.088908770671;67.3948654190578
319.110525776868;66.9080882432859
319.132142783065;66.4340811282183
319.153759789263;65.9476483916124
319.17537679546;65.4493152282547
319.196993801657;64.9740615306033
319.218610807854;64.548084759533
319.240227814051;64.1752351676508
319.261844820248;63.8579423833012
319.283461826445;63.5957867185781
319.305078832642;63.3773420623615
319.326695838839;63.1911156061603
319.348312845036;63.0320754188317
319.369929851233;62.91632247211
319.39154685743;62.8576137481368
319.413163863627;62.8463412023215
319.434780869824;62.8701895003895
319.456397876021;62.9291443375756
319.478014882218;63.0165015236132
319.499631888416;63.1277418462817
319.521248894613;63.2710390701112
319.54286590081;63.4489203648399
319.564482907007;63.6593241333497
319.586099913204;63.9060736933986
319.607716919401;64.1854012403902
319.629333925598;64.4857708086526
319.650950931795;64.8069462498943
319.672567937992;65.1445782172125
319.694184944189;65.4830376461227
319.715801950386;65.809642107882
319.737418956583;66.1213928214102
319.75903596278;66.4156163949474
319.780652968977;66.689546796058
319.802269975174;66.9390342087413
319.823886981372;67.15313392261
319.845503987569;67.3182656582224
319.867120993766;67.4353087708617
319.888737999963;67.5203143881236
319.91035500616;67.5767198431272
319.931972012357;67.5990298062841
319.953589018554;67.5871069025235
319.975206024751;67.5518647800072
319.996823030948;67.50222962251
320.018440037145;67.4283735556573
320.040057043342;67.3247636309291
320.061674049539;67.1999538822211
320.083291055736;67.0603700109911
320.104908061933;66.9069844574526
320.12652506813;66.7409728881103
320.148142074327;66.5689904243235
320.169759080525;66.4015444578065
320.191376086722;66.2433438220885
320.212993092919;66.0907379206281
320.234610099116;65.9379098527681
320.256227105313;65.7824080937215
320.27784411151;65.6175419374392
320.299461117707;65.429606909042
320.321078123904;65.2061553765683
320.342695130101;64.927087558857
320.364312136298;64.5595159420009
320.385929142495;64.0742850711349
320.407546148692;63.4766127606941
320.429163154889;62.7934750371838
320.450780161086;62.0374997995772
320.472397167283;61.2125609317908
320.49401417348;60.3170034369132
320.515631179677;59.3420806671758
320.537248185875;58.2717297828981
320.558865192072;57.1391155563251
320.580482198269;56.0546969813733
320.602099204466;55.050724546905
320.623716210663;54.1101748775796
320.64533321686;53.2579593841651
320.666950223057;52.5194433387202
320.688567229254;51.8912716453629
320.710184235451;51.3738833543336
320.731801241648;51.007757743271
320.753418247845;50.80240563227
320.775035254042;50.7221255195094
320.796652260239;50.7456050585417
320.818269266436;50.8651906092153
320.839886272633;51.070296716348
320.86150327883;51.339428404081
320.883120285028;51.6468745989409
320.904737291225;51.96999862634
320.926354297422;52.2795549121143
320.947971303619;52.5484883191686
320.969588309816;52.7554387371334
320.991205316013;52.8810861701059
321.01282232221;52.9141701308918
321.034439328407;52.841617051198
321.056056334604;52.6521852758397
321.077673340801;52.3607466669813
321.099290346998;51.9781965526465
321.120907353195;51.5002550622836
321.142524359392;50.9338849715399
321.164141365589;50.2913932057921
321.185758371786;49.5895991722888
321.207375377984;48.8985412655505
321.228992384181;48.2877437557407
321.250609390378;47.7439225694521
321.272226396575;47.2617459433894
321.293843402772;46.8784699557316
321.315460408969;46.6112358321519
321.337077415166;46.4491963328464
321.358694421363;46.3832409599616
321.38031142756;46.4245345676436
321.401928433757;46.5596999794793
321.423545439954;46.7766109714356
321.445162446151;47.0613240865326
321.466779452348;47.415411096311
321.488396458545;47.8296536295595
321.510013464742;48.2485122914425
321.531630470939;48.6625182122313
321.553247477136;49.0935216402704
321.574864483334;49.5620167133778
321.596481489531;50.0556884285624
321.618098495728;50.5302937928316
321.639715501925;50.9802772916766
321.661332508122;51.4275411230005
321.682949514319;51.8885663609169
321.704566520516;52.3752616560921
321.726183526713;52.8874950074162
321.74780053291;53.4035062342849
321.769417539107;53.8987797126091
321.791034545304;54.3734943828974
321.812651551501;54.8382299900541
321.834268557698;55.2938037948014
321.855885563895;55.7322393551672
321.877502570092;56.1599543892498
321.899119576289;56.5879353475371
321.920736582487;57.023591871633
321.942353588684;57.4593169231667
321.963970594881;57.868257020983
321.985587601078;58.2448011541316
322.007204607275;58.5928073353036
322.028821613472;58.9230059318644
322.050438619669;59.2343898358226
322.072055625866;59.5014259326721
322.093672632063;59.7177198075683
322.11528963826;59.8934028136445
322.136906644457;60.0453531847405
322.158523650654;60.1823951876281
322.180140656851;60.3142492514038
322.201757663048;60.4563655833909
322.223374669245;60.6117859326311
322.244991675442;60.791690212592
322.26660868164;61.0109106762717
322.288225687837;61.2840087313961
322.309842694034;61.6253589589364
322.331459700231;62.0392598388982
322.353076706428;62.5154795818955
322.374693712625;63.0490785747328
322.396310718822;63.6434280113257
322.417927725019;64.2802797132221
322.439544731216;64.93827563941
322.461161737413;65.6129456510835
322.48277874361;66.3063409191461
322.504395749807;67.021820384063
322.526012756004;67.7608374168756
322.547629762201;68.5049393631056
322.569246768398;69.2436885467265
322.590863774596;69.9771496954492
322.612480780793;70.7147909899747
322.63409778699;71.4564449004397
322.655714793187;72.2003577341583
322.677331799384;72.9354227551079
322.698948805581;73.6715163545601
322.720565811778;74.4109194218036
322.742182817975;75.1326021627129
322.763799824172;75.8559757565034
322.785416830369;76.5982373139443
322.807033836566;77.3610710093668
322.828650842763;78.1338308268312
322.85026784896;78.9046862855898
322.871884855157;79.6597731957631
322.893501861354;80.3926791614031
322.915118867551;81.1488571404915
322.936735873748;81.9478064089641
322.958352879946;82.749018287205
322.979969886143;83.5287147154697
323.00158689234;84.3015414931785
323.023203898537;85.0583926513802
323.044820904734;85.8185803154571
323.066437910931;86.5842152052452
323.088054917128;87.3463382606768
323.109671923325;88.0738766927517
323.131288929522;88.7604093968245
323.152905935719;89.4216279687423
323.174522941916;90.0595328423635
323.196139948113;90.6714456252335
323.21775695431;91.2583390330764
323.239373960507;91.8098083456888
323.260990966704;92.3175331178152
323.282607972901;92.794136926878
323.304224979099;93.2513272745161
323.325841985296;93.6919948119067
323.347458991493;94.1128577713747
323.36907599769;94.5142050981544
323.390693003887;94.9062337158548
323.412310010084;95.2889194115968
323.433927016281;95.6635437970732
323.455544022478;96.0388718735133
323.477161028675;96.4320456086607
323.498778034872;96.8509698001513
323.520395041069;97.2934181429098
323.542012047266;97.7413947955853
323.563629053463;98.1902292884459
323.58524605966;98.6506459015257
323.606863065857;99.1518048491973
323.628480072054;99.7024972776962
323.650097078252;100.282159925677
323.671714084449;100.873292796561
323.693331090646;101.47612155935
323.714948096843;102.102793914251
323.73656510304;102.755942333366
323.758182109237;103.430120337196
323.779799115434;104.114356337636
323.801416121631;104.773012943144
323.823033127828;105.384415244462
323.844650134025;105.949277131521
323.866267140222;106.464673047121
323.887884146419;106.919005187615
323.909501152616;107.322373693825
323.931118158813;107.682135475985
323.95273516501;107.9898705691
323.974352171207;108.230128094685
323.995969177405;108.388422046857
324.017586183602;108.462239704753
324.039203189799;108.463390728923
324.060820195996;108.396984539008
324.082437202193;108.264003002776
324.10405420839;108.077013295855
324.125671214587;107.85178393065
324.147288220784;107.59572239428
324.168905226981;107.306396885946
324.190522233178;106.990317960667
324.212139239375;106.656085089164
324.233756245572;106.320044151347
324.255373251769;105.991851766491
324.276990257966;105.673351146529
324.298607264163;105.380089178452
324.32022427036;105.121121392401
324.341841276558;104.88721033078
324.363458282755;104.661458786197
324.385075288952;104.43996052921
324.406692295149;104.22806302932
324.428309301346;104.022945854515
324.449926307543;103.813534108543
324.47154331374;103.599069456257
324.493160319937;103.392118251276
324.514777326134;103.199013752183
324.536394332331;103.015118361047
324.558011338528;102.83735416147
324.579628344725;102.660783948602
324.601245350922;102.480250836026
324.622862357119;102.290763758468
324.644479363316;102.095171533926
324.666096369513;101.897506469881
324.687713375711;101.694809642884
324.709330381908;101.491026691358
324.730947388105;101.298980420429
324.752564394302;101.128333343693
