Name;BF_ESR_01_7202s_y_gon_180dg_result

Recipe
Accumulations;5;Number of accumulations
RetryCount;0;Number of retries on error
AbortOnError;True;Abort on error
EnableQFactorMeasurement;False;Enable/Disable q-Factor measurement
Bfrom;313;B from
Bto;363;B to
SweepTime;60;Sweep time
Modulation;0.2;Modulation
ModulationFreq;100;Modulation
BHoldEnabled;False;B hold enabled
BHold;0;B hold
MicrowavePower;2;Microwave power
MarkerEnabled;False;
MarkerStartField;0;
MarkerEndField;0;
Mode;;
KineticGFact;0;
KineticTotalTransientTime;0;
KineticTimeResolution;0;
TempFrom;5;
TempUseSlope;False;
TempTo;5;
TempdT;1;
TempSetupTime;0;
GonFrom;0;
GonTo;180;
GonSteps;20;
XRayEnabled;False;
XRayTime;3;
XRayVoltage;40;
XRayCurrent;0.5;
UVEnabled;False;
UVIntensity;0;
UVTime;0;
UVLeadTime;0;
UVWavelength;0;
PowSweepFrom;1;
PowSweepTo;5;
PowSweepSteps;5;
AmpModSweepFrom;0;
AmpModSweepTo;1;
AmpModSweepSteps;10;
ExtTriggerEnabled;False;
ExtTrigLeadTime;0;
ExtTrigOnTime;5;

Meas
BField [mT];MW_Absorption []
313.015379333496;76.0469217177554
313.036980032024;75.7162243081137
313.058580730552;75.1943698277875
313.08018142908;74.6011559960853
313.101782127608;73.9372021467464
313.123382826136;73.2305126267586
313.144983524664;72.5118628525231
313.166584223192;71.7955672462501
313.18818492172;71.0962326678753
313.209785620248;70.4329698825846
313.231386318776;69.8264816252273
313.252987017304;69.2880779304333
313.274587715832;68.8097233520019
313.29618841436;68.3980015153064
313.317789112888;68.0766252760724
313.339389811416;67.855028086043
313.360990509944;67.7265680350978
313.382591208472;67.6778869209774
313.404191906999;67.6994073081854
313.425792605527;67.7724808658856
313.447393304055;67.8858788526172
313.468994002583;68.0387457271626
313.490594701111;68.2208196325485
313.512195399639;68.4019305790219
313.533796098167;68.564299989921
313.555396796695;68.7050336754703
313.576997495223;68.8169065278003
313.598598193751;68.8907683350567
313.620198892279;68.9173760115907
313.641799590807;68.8887969637695
313.663400289335;68.8097853440415
313.685000987863;68.6903833059473
313.706601686391;68.5347154101574
313.728202384919;68.3528253427353
313.749803083447;68.1616043248265
313.771403781975;67.9756594964336
313.793004480503;67.8076370150847
313.814605179031;67.6705541281611
313.836205877559;67.5706245370209
313.857806576087;67.5059717219701
313.879407274615;67.4775540533094
313.901007973143;67.4846655974618
313.922608671671;67.5233505898177
313.944209370199;67.5840360390942
313.965810068727;67.6578314029219
313.987410767255;67.7393906617485
314.009011465783;67.8183137426024
314.030612164311;67.8759867508859
314.052212862839;67.9018606807185
314.073813561367;67.8915180348674
314.095414259894;67.8431779100466
314.117014958422;67.7588336682747
314.13861565695;67.6447528767032
314.160216355478;67.5067290156643
314.181817054006;67.3423502342399
314.203417752534;67.1484745945729
314.225018451062;66.9295430571028
314.24661914959;66.7026645199385
314.268219848118;66.4819187844626
314.289820546646;66.2676507196244
314.311421245174;66.0637986724075
314.333021943702;65.8844502993716
314.35462264223;65.7270566712755
314.376223340758;65.5991810775466
314.397824039286;65.4931505890482
314.419424737814;65.4098535790223
314.441025436342;65.3496598542459
314.46262613487;65.3114797241221
314.484226833398;65.2973495529596
314.505827531926;65.301606307808
314.527428230454;65.3134779460327
314.549028928982;65.3120350878649
314.57062962751;65.2927227972157
314.592230326038;65.2691597950268
314.613831024566;65.2328495849041
314.635431723094;65.135042443669
314.657032421622;64.9844570948756
314.67863312015;64.8076381392456
314.700233818678;64.5987891766502
314.721834517206;64.3537855968389
314.743435215734;64.0863766104696
314.765035914261;63.8043833679973
314.786636612789;63.5239643459639
314.808237311317;63.2612224493295
314.829838009845;63.015591061766
314.851438708373;62.8052671186274
314.873039406901;62.6462966055761
314.894640105429;62.5393342365575
314.916240803957;62.48138569688
314.937841502485;62.4736721173999
314.959442201013;62.5163326627744
314.981042899541;62.6037031271769
315.002643598069;62.7236299494963
315.024244296597;62.8620257054793
315.045844995125;63.0146153836929
315.067445693653;63.1799388174366
315.089046392181;63.350693483804
315.110647090709;63.5181492793966
315.132247789237;63.6832112185618
315.153848487765;63.8506656060884
315.175449186293;64.0206656576072
315.197049884821;64.1946900406237
315.218650583349;64.3769671396062
315.240251281877;64.5633164090222
315.261851980405;64.7515455875832
315.283452678933;64.9418846301877
315.305053377461;65.1282670657566
315.326654075989;65.3084562736668
315.348254774517;65.4846144623573
315.369855473045;65.6477361837727
315.391456171573;65.7811601457913
315.413056870101;65.8740567926089
315.434657568629;65.9126595944742
315.456258267157;65.9049151313263
315.477858965684;65.8743840842974
315.499459664212;65.8219896040077
315.52106036274;65.7458668118008
315.542661061268;65.6459394270886
315.564261759796;65.5227715227223
315.585862458324;65.3793568507097
315.607463156852;65.224637234045
315.62906385538;65.069594862149
315.650664553908;64.923582288339
315.672265252436;64.7931829327184
315.693865950964;64.6890039190209
315.715466649492;64.6112885437759
315.73706734802;64.5428944942895
315.758668046548;64.4667251314448
315.780268745076;64.3754007803757
315.801869443604;64.2725502062664
315.823470142132;64.1598426274172
315.84507084066;64.0265959980992
315.866671539188;63.8597734291205
315.888272237716;63.6576976774198
315.909872936244;63.4286522129255
315.931473634772;63.1762845762538
315.9530743333;62.8993419146906
315.974675031828;62.6003652376221
315.996275730356;62.2892876124533
316.017876428884;61.9803382016524
316.039477127412;61.6834505690138
316.06107782594;61.3984242504886
316.082678524468;61.1227594298045
316.104279222996;60.8764801528624
316.125879921524;60.6696351250989
316.147480620051;60.4917012214187
316.169081318579;60.3374389383279
316.190682017107;60.2060567978838
316.212282715635;60.0926843500471
316.233883414163;59.9950493065058
316.255484112691;59.9189215483336
316.277084811219;59.8575921103766
316.298685509747;59.8037855630803
316.320286208275;59.7588655792118
316.341886906803;59.7237483961209
316.363487605331;59.7018023371061
316.385088303859;59.6992301288474
316.406689002387;59.7246480313739
316.428289700915;59.7762785935866
316.449890399443;59.8172159196143
316.471491097971;59.8374812853256
316.493091796499;59.8674383021816
316.514692495027;59.9036782933551
316.536293193555;59.927359560602
316.557893892083;59.9223999470747
316.579494590611;59.8782618112403
316.601095289139;59.7824177825944
316.622695987667;59.6334406813014
316.644296686195;59.4335284087572
316.665897384723;59.1904586229342
316.687498083251;58.9271923622194
316.709098781779;58.6572818469282
316.730699480307;58.3882126375952
316.752300178835;58.1414639288034
316.773900877363;57.934892853611
316.795501575891;57.7844521082021
316.817102274418;57.7055212081152
316.838702972946;57.7006577449589
316.860303671474;57.7645412470806
316.881904370002;57.9026468364176
316.90350506853;58.1105601486622
316.925105767058;58.3624036560986
316.946706465586;58.6319238586891
316.968307164114;58.9179805724467
316.989907862642;59.2123049746116
317.01150856117;59.4779192929467
317.033109259698;59.6911439206581
317.054709958226;59.8477109055722
317.076310656754;59.9465229732537
317.097911355282;59.9821057774274
317.11951205381;59.9616635916994
317.141112752338;59.9005567109711
317.162713450866;59.8069105887799
317.184314149394;59.6896563320297
317.205914847922;59.5586866432387
317.22751554645;59.424715136726
317.249116244978;59.2995122471133
317.270716943506;59.1886124329303
317.292317642034;59.093525148068
317.313918340562;59.0098490677664
317.33551903909;58.926697728689
317.357119737618;58.8298731198681
317.378720436146;58.7081667757687
317.400321134674;58.5731382054713
317.421921833202;58.4360903544441
317.44352253173;58.2903803153982
317.465123230258;58.1307326772836
317.486723928785;57.95648212258
317.508324627313;57.7719852652438
317.529925325841;57.5887679601035
317.551526024369;57.4259831746863
317.573126722897;57.3079460033692
317.594727421425;57.2469681205733
317.616328119953;57.2431060860753
317.637928818481;57.2983750124415
317.659529517009;57.4103204475699
317.681130215537;57.5753466358862
317.702730914065;57.7876093064123
317.724331612593;58.0351459629444
317.745932311121;58.3016200602285
317.767533009649;58.5690056023619
317.789133708177;58.8199607224226
317.810734406705;59.0380768844489
317.832335105233;59.2061469341936
317.853935803761;59.3191311803543
317.875536502289;59.3835432927161
317.897137200817;59.3941157671993
317.918737899345;59.3359318021602
317.940338597873;59.2170729013766
317.961939296401;59.0567805039369
317.983539994929;58.878412591535
318.005140693457;58.696045473013
318.026741391985;58.5159850100838
318.048342090513;58.3455074301464
318.069942789041;58.1949607217021
318.091543487569;58.0735626585368
318.113144186097;57.9836490128833
318.134744884625;57.9234431899244
318.156345583153;57.8951315846402
318.17794628168;57.8967005500579
318.199546980208;57.919251649549
318.221147678736;57.9450272511814
318.242748377264;57.9579344405099
318.264349075792;57.9498803072676
318.28594977432;57.9126697351582
318.307550472848;57.8402281198447
318.329151171376;57.7368306773109
318.350751869904;57.6092467976691
318.372352568432;57.4634258069455
318.39395326696;57.2965407860764
318.415553965488;57.1104822039461
318.437154664016;56.9153294963364
318.458755362544;56.7277331193104
318.480356061072;56.5578397728978
318.5019567596;56.4052004297517
318.523557458128;56.2728645222909
318.545158156656;56.1735141406585
318.566758855184;56.1167084436151
318.588359553712;56.0907279917258
318.60996025224;56.0814472081208
318.631560950768;56.086684390094
318.653161649296;56.0960893304622
318.674762347824;56.0945668853446
318.696363046352;56.0733618425313
318.71796374488;56.031351353987
318.739564443408;55.9660749426313
318.761165141936;55.8771807283465
318.782765840464;55.7559164396871
318.804366538992;55.5847575107557
318.82596723752;55.3603204433014
318.847567936047;55.1052416547197
318.869168634575;54.8486174630287
318.890769333103;54.5890064681003
318.912370031631;54.3208117979808
318.933970730159;54.0498072407764
318.955571428687;53.7800141881273
318.977172127215;53.5138296347327
318.998772825743;53.2572499721216
319.020373524271;53.0183029045914
319.041974222799;52.799579568623
319.063574921327;52.5920997148572
319.085175619855;52.3873422859135
319.106776318383;52.1961914247053
319.128377016911;52.0324040705043
319.149977715439;51.8950969374898
319.171578413967;51.7815164091646
319.193179112495;51.6833436645814
319.214779811023;51.5913699385806
319.236380509551;51.510229558796
319.257981208079;51.4446554074776
319.279581906607;51.3851574821207
319.301182605135;51.3227539030786
319.322783303663;51.2542525540548
319.344384002191;51.178983001969
319.365984700719;51.0928496769502
319.387585399247;50.9853308345975
319.409186097775;50.8559271844611
319.430786796303;50.7078291988137
319.452387494831;50.5549055967547
319.473988193359;50.4033535272204
319.495588891887;50.251338516123
319.517189590414;50.0970998803798
319.538790288942;49.9384439042222
319.56039098747;49.781512238616
319.581991685998;49.6380652556312
319.603592384526;49.5088961979791
319.625193083054;49.378758286186
319.646793781582;49.2393004568511
319.66839448011;49.1008642869389
319.689995178638;48.9764460824673
319.711595877166;48.856806871564
319.733196575694;48.7318967817381
319.754797274222;48.604892057752
319.77639797275;48.4815280327235
319.797998671278;48.364698475947
319.819599369806;48.2548566907058
319.841200068334;48.15308386521
319.862800766862;48.0694300338119
319.88440146539;48.0158951780302
319.906002163918;47.9957174337301
319.927602862446;48.0119338181082
319.949203560974;48.0605510718593
319.970804259502;48.1298007794811
319.99240495803;48.2177227129122
320.014005656558;48.3289019688998
320.035606355086;48.45107728066
320.057207053614;48.5642349106305
320.078807752142;48.6639611376607
320.10040845067;48.7517292138835
320.122009149198;48.821088111732
320.143609847726;48.8605095572226
320.165210546254;48.8664464369053
320.186811244782;48.8441446607058
320.20841194331;48.7914748425945
320.230012641837;48.7096774381933
320.251613340365;48.6057873388152
320.273214038893;48.4826459550631
320.294814737421;48.3538088817311
320.316415435949;48.2337031322338
320.338016134477;48.118416044435
320.359616833005;48.0109002106703
320.381217531533;47.9335779276012
320.402818230061;47.9025018237633
320.424418928589;47.9136434971692
320.446019627117;47.9686600886732
320.467620325645;48.0784427396039
320.489221024173;48.2445962068284
320.510821722701;48.4586443765518
320.532422421229;48.7078887835483
320.554023119757;48.9760994832105
320.575623818285;49.2534530969073
320.597224516813;49.5366393691779
320.618825215341;49.8138921434912
320.640425913869;50.0641859492702
320.662026612397;50.2652824441251
320.683627310925;50.4051626152488
320.705228009453;50.4849691298274
320.726828707981;50.5093633464585
320.748429406509;50.4793771088158
320.770030105037;50.3963090419814
320.791630803565;50.267292173531
320.813231502093;50.116563664006
320.834832200621;49.9770849308121
320.856432899149;49.8619490350263
320.878033597677;49.7658754191723
320.899634296204;49.6965475487808
320.921234994732;49.6680998382633
320.94283569326;49.6852635374715
320.964436391788;49.7459842755521
320.986037090316;49.8438424063302
321.007637788844;49.9660828369504
321.029238487372;50.1104674636515
321.0508391859;50.2770413396041
321.072439884428;50.4497395214491
321.094040582956;50.6241914353216
321.115641281484;50.8048203394788
321.137241980012;50.9878605224362
321.15884267854;51.163878886238
321.180443377068;51.3283148094475
321.202044075596;51.4857774838679
321.223644774124;51.6360237211891
321.245245472652;51.7745811144192
321.26684617118;51.8846608198055
321.288446869708;51.9539375142558
321.310047568236;51.985432064875
321.331648266764;51.9920649194809
321.353248965292;51.9824439835307
321.37484966382;51.949691321954
321.396450362348;51.8867520452486
321.418051060876;51.7991812432368
321.439651759404;51.6843730444847
321.461252457932;51.5287714438692
321.48285315646;51.3159860938933
321.504453854988;51.0420911214349
321.526054553516;50.7196956008656
321.547655252044;50.3606458067222
321.569255950571;49.9810465687055
321.590856649099;49.5932813423698
321.612457347627;49.2092009191027
321.634058046155;48.8261508967405
321.655658744683;48.4349085626468
321.677259443211;48.0604000831239
321.698860141739;47.7282245522077
321.720460840267;47.4292116446361
321.742061538795;47.1625893114119
321.763662237323;46.9353017269105
321.785262935851;46.7402447600873
321.806863634379;46.5814259927246
321.828464332907;46.4642940958111
321.850065031435;46.3743618709666
321.871665729963;46.2997172834348
321.893266428491;46.227534383486
321.914867127019;46.1511399257687
321.936467825547;46.0637439063099
321.958068524075;45.9589836752075
321.979669222603;45.8363701615469
322.001269921131;45.6965325639207
322.022870619659;45.5373482315857
322.044471318187;45.3510940885688
322.066072016715;45.1278615138203
322.087672715243;44.8688057667315
322.109273413771;44.5849386601228
322.130874112299;44.2801806970038
322.152474810827;43.9531320005124
322.174075509355;43.6143961484605
322.195676207883;43.278706986003
322.217276906411;42.9449086956335
322.238877604939;42.6096624724904
322.260478303466;42.2822728808733
322.282079001994;41.9772960784995
322.303679700522;41.7029733601142
322.32528039905;41.4728206418268
322.346881097578;41.2993006626953
322.368481796106;41.1822315377355
322.390082494634;41.1232983919416
322.411683193162;41.1255773972127
322.43328389169;41.1922904982441
322.454884590218;41.3046265437291
322.476485288746;41.4440666862645
322.498085987274;41.6121963463007
322.519686685802;41.8088099728543
322.54128738433;42.0236188074588
322.562888082858;42.2290826993804
322.584488781386;42.4120409906828
322.606089479914;42.5602281312474
322.627690178442;42.6587754944267
322.64929087697;42.7069770096917
322.670891575498;42.7198481699391
322.692492274026;42.7094112936271
322.714092972554;42.6784104774554
322.735693671082;42.6173958401163
322.75729436961;42.5229201044498
322.778895068138;42.405883946568
322.800495766666;42.2752512096569
322.822096465194;42.1321143694621
322.843697163722;41.9763934459457
322.86529786225;41.8102993892676
322.886898560778;41.6435317434452
322.908499259306;41.4893530919302
322.930099957833;41.3547539025014
322.951700656361;41.2327465058821
322.973301354889;41.1209627020813
322.994902053417;41.0324064625903
323.016502751945;40.979993234334
323.038103450473;40.9537331973924
323.059704149001;40.9371878692587
323.081304847529;40.9240905392368
323.102905546057;40.9170912115433
323.124506244585;40.9102652716254
323.146106943113;40.8961525892002
323.167707641641;40.8719165209461
323.189308340169;40.8378880701018
323.210909038697;40.7942446975423
323.232509737225;40.7420726839974
323.254110435753;40.6841360719675
323.275711134281;40.6231945842278
323.297311832809;40.5611564230761
323.318912531337;40.5064099534102
323.340513229865;40.467342630418
323.362113928393;40.4485088646382
323.383714626921;40.4513255036863
323.405315325449;40.476269814391
323.426916023977;40.5285808627995
323.448516722505;40.6040256930707
323.470117421033;40.6964481519384
323.491718119561;40.8010028870937
323.513318818089;40.9129066819439
323.534919516617;41.0297892889882
323.556520215145;41.1526227125536
323.578120913673;41.2804477733017
323.5997216122;41.4124458375346
323.621322310728;41.5468967595516
323.642923009256;41.6772819394732
323.664523707784;41.7979515202071
323.686124406312;41.9099575878751
323.70772510484;42.015273274074
323.729325803368;42.1132728888073
323.750926501896;42.2003940824578
323.772527200424;42.2752861829724
323.794127898952;42.3403664051381
323.81572859748;42.3949025996245
323.837329296008;42.4359462669666
323.858929994536;42.4598473619977
323.880530693064;42.4680039124102
323.902131391592;42.4594683480768
323.92373209012;42.4361182092315
323.945332788648;42.400298097005
323.966933487176;42.3464914134784
323.988534185704;42.2693465150769
324.010134884232;42.1715679913937
324.03173558276;42.0582603824581
324.053336281288;41.9320442952775
324.074936979816;41.7938034216424
324.096537678344;41.6536536128625
324.118138376872;41.5148196753651
324.1397390754;41.3710021707631
324.161339773928;41.2232282657346
324.182940472456;41.0866566754068
324.204541170984;40.9696731299231
324.226141869512;40.8664257663568
324.24774256804;40.7731584398667
324.269343266567;40.6814486520323
324.290943965095;40.579789277824
324.312544663623;40.4672133910575
324.334145362151;40.3434123398733
324.355746060679;40.2036584177841
324.377346759207;40.0436077985462
324.398947457735;39.865731298285
324.420548156263;39.6715151405212
324.442148854791;39.4614273893568
324.463749553319;39.2452725925242
324.485350251847;39.0460732369232
324.506950950375;38.8721519397155
324.528551648903;38.7336780544295
324.550152347431;38.6388086339978
324.571753045959;38.5910345571529
324.593353744487;38.5918424040954
324.614954443015;38.6441287956776
324.636555141543;38.7478146617285
324.658155840071;38.8909788518126
324.679756538599;39.0621839772027
324.701357237127;39.2569998040085
324.722957935655;39.4717798063104
324.744558634183;39.6974817002419
