Name;BF_ESR_01_360s_Y_gon_60dg_result

Recipe
Accumulations;5;Number of accumulations
RetryCount;0;Number of retries on error
AbortOnError;True;Abort on error
EnableQFactorMeasurement;False;Enable/Disable q-Factor measurement
Bfrom;313;B from
Bto;363;B to
SweepTime;60;Sweep time
Modulation;0.2;Modulation
ModulationFreq;100;Modulation
BHoldEnabled;False;B hold enabled
BHold;0;B hold
MicrowavePower;2;Microwave power
MarkerEnabled;False;
MarkerStartField;0;
MarkerEndField;0;
Mode;;
KineticGFact;0;
KineticTotalTransientTime;0;
KineticTimeResolution;0;
TempFrom;5;
TempUseSlope;False;
TempTo;5;
TempdT;1;
TempSetupTime;0;
GonFrom;0;
GonTo;180;
GonSteps;20;
XRayEnabled;False;
XRayTime;3;
XRayVoltage;40;
XRayCurrent;0.5;
UVEnabled;False;
UVIntensity;0;
UVTime;0;
UVLeadTime;0;
UVWavelength;0;
PowSweepFrom;1;
PowSweepTo;5;
PowSweepSteps;5;
AmpModSweepFrom;0;
AmpModSweepTo;1;
AmpModSweepSteps;10;
ExtTriggerEnabled;False;
ExtTrigLeadTime;0;
ExtTrigOnTime;5;

Meas
BField [mT];MW_Absorption []
313.015529708862;59.6838725893352
313.037149424468;59.3300765784378
313.058769140074;58.9038380358717
313.08038885568;58.3961964236389
313.102008571286;57.7888093557496
313.123628286892;57.0909716158888
313.145248002498;56.3455170416627
313.166867718104;55.5829035115309
313.18848743371;54.801941892322
313.210107149316;53.9990587638965
313.231726864922;53.1786413639753
313.253346580528;52.3487695563288
313.274966296134;51.5401329726008
313.29658601174;50.8021044163092
313.318205727347;50.1567965779332
313.339825442953;49.6092197871059
313.361445158559;49.1708698165068
313.383064874165;48.8463654688153
313.404684589771;48.6405672273466
313.426304305377;48.5454504825581
313.447924020983;48.5524583647488
313.469543736589;48.6675300354423
313.491163452195;48.8804588236585
313.512783167801;49.1473440721706
313.534402883407;49.4548506126078
313.556022599013;49.8016148824806
313.577642314619;50.1887329429468
313.599262030225;50.596430059545
313.620881745831;50.9837591596151
313.642501461437;51.3166694342024
313.664121177043;51.5912611219507
313.685740892649;51.8219078350891
313.707360608255;52.0100891219167
313.728980323861;52.1410511368078
313.750600039467;52.2059266970162
313.772219755073;52.2142957446493
313.793839470679;52.1794085129696
313.815459186285;52.1065850798897
313.837078901891;51.9978284115735
313.858698617497;51.8653690574746
313.880318333103;51.7316463770381
313.901938048709;51.605467626485
313.923557764315;51.4923595172849
313.945177479921;51.4028616918707
313.966797195527;51.3436434112658
313.988416911133;51.3161884081
314.010036626739;51.3188463343108
314.031656342345;51.3436672174469
314.053276057951;51.3808428942766
314.074895773557;51.4296549568292
314.096515489163;51.49204003519
314.118135204769;51.5652899900616
314.139754920375;51.6399006470739
314.161374635981;51.7153922490256
314.182994351587;51.7953274841005
314.204614067193;51.894452121883
314.226233782799;52.017183861118
314.247853498405;52.1621299555653
314.269473214011;52.3203632318849
314.291092929617;52.4758400458777
314.312712645223;52.6258188846424
314.334332360829;52.7734513389248
314.355952076435;52.9151656688207
314.377571792041;53.0390220159597
314.399191507647;53.134670236259
314.420811223253;53.2073775481501
314.442430938859;53.2651722928039
314.464050654465;53.3034392077519
314.485670370071;53.3135590241244
314.507290085677;53.3041991383767
314.528909801283;53.2817922960029
314.550529516889;53.2517647474957
314.572149232495;53.220756213628
314.593768948101;53.1878522209116
314.615388663707;53.1497209231032
314.637008379314;53.1046561414115
314.658628094919;53.0536673740745
314.680247810526;53.00117844764
314.701867526132;52.9485875533229
314.723487241738;52.8931894254927
314.745106957344;52.8337440036779
314.76672667295;52.7769296786817
314.788346388556;52.7242905442516
314.809966104162;52.6735412446156
314.831585819768;52.6248545227791
314.853205535374;52.584062384195
314.87482525098;52.5528452671766
314.896444966586;52.5319161335547
314.918064682192;52.5313758420635
314.939684397798;52.5566447413032
314.961304113404;52.5851923888891
314.98292382901;52.5986395756299
315.004543544616;52.6038732280058
315.026163260222;52.6016580293856
315.047782975828;52.5775561273359
315.069402691434;52.5120151631713
315.09102240704;52.3958569209818
315.112642122646;52.2396148902553
315.134261838252;52.0485923112962
315.155881553858;51.8170845007151
315.177501269464;51.5456287973
315.19912098507;51.2387541450043
315.220740700676;50.8978163237127
315.242360416282;50.5259256455947
315.263980131888;50.132050879608
315.285599847494;49.7253010730538
315.3072195631;49.3038941021669
315.328839278706;48.8651597489535
315.350458994312;48.416612479638
315.372078709918;47.9727568678493
315.393698425524;47.5573663707886
315.41531814113;47.1710127148375
315.436937856736;46.7994352306688
315.458557572342;46.4329035943414
315.480177287948;46.0861612384893
315.501797003554;45.8068236138849
315.52341671916;45.5981055246468
315.545036434766;45.4454488652356
315.566656150372;45.336713352434
315.588275865978;45.28395360698
315.609895581584;45.2821540968112
315.63151529719;45.3089399306304
315.653135012796;45.3522244570747
315.674754728402;45.401316688927
315.696374444008;45.4470316885491
315.717994159614;45.4796215494045
315.73961387522;45.4945648448545
315.761233590826;45.4838746377964
315.782853306432;45.4356775640315
315.804473022038;45.3445632832352
315.826092737644;45.2124928750727
315.84771245325;45.0518253589818
315.869332168856;44.8684129422766
315.890951884462;44.6534913615653
315.912571600068;44.3954405257707
315.934191315674;44.0917788560146
315.95581103128;43.7564209127917
315.977430746886;43.4185950419409
315.999050462493;43.1036523465952
316.020670178099;42.8130713834364
316.042289893705;42.5400857572271
316.063909609311;42.2883594531139
316.085529324917;42.0672813136615
316.107149040523;41.888573594161
316.128768756129;41.7670298087641
316.150388471735;41.7139086534385
316.172008187341;41.7301516183446
316.193627902947;41.8201627111215
316.215247618553;41.987344749426
316.236867334159;42.223097192548
316.258487049765;42.5248406505448
316.280106765371;42.9121644052575
316.301726480977;43.3800817200723
316.323346196583;43.8609874705145
316.344965912189;44.3217407762161
316.366585627795;44.7646741657047
316.388205343401;45.1875695968756
316.409825059007;45.5797606475394
316.431444774613;45.9244454367832
316.453064490219;46.1998380291312
316.474684205825;46.394143358224
316.496303921431;46.5070790372266
316.517923637037;46.5367780415005
316.539543352643;46.4887065883121
316.561163068249;46.3821097547976
316.582782783855;46.2292468404357
316.604402499461;46.0331133728791
316.626022215067;45.8086995396828
316.647641930673;45.587967470713
316.669261646279;45.3845267942109
316.690881361885;45.2042370485339
316.712501077491;45.0423779899176
316.734120793097;44.9038911701265
316.755740508703;44.7996206871844
316.777360224309;44.7286944467374
316.798979939915;44.6770198407725
316.820599655521;44.6378428078635
316.842219371127;44.6077386329977
316.863839086733;44.5844996071074
316.885458802339;44.5645243757754
316.907078517945;44.540048883658
316.928698233551;44.4999962571051
316.950317949157;44.4477614409533
316.971937664763;44.3982129263541
316.993557380369;44.3597114834709
317.015177095975;44.3332496376296
317.036796811581;44.323353550656
317.058416527187;44.3371360889858
317.080036242793;44.3701937543913
317.101655958399;44.4156963359683
317.123275674005;44.4713050773605
317.144895389611;44.5378808667857
317.166515105217;44.6135621536137
317.188134820823;44.6956515813539
317.209754536429;44.7830845279804
317.231374252035;44.8930735790683
317.252993967641;45.0281233244988
317.274613683247;45.1697328062504
317.296233398853;45.3155834918331
317.317853114459;45.4736131723437
317.339472830066;45.6463599212013
317.361092545672;45.823869696782
317.382712261278;45.9942208242003
317.404331976884;46.1465439623119
317.42595169249;46.2730049466428
317.447571408096;46.3725490190382
317.469191123702;46.4467570339004
317.490810839308;46.4925261197336
317.512430554914;46.5035164527343
317.53405027052;46.4858055351595
317.555669986126;46.4471957070039
317.577289701732;46.3876073091036
317.598909417338;46.3009543301026
317.620529132944;46.1845327816166
317.64214884855;46.0481577853043
317.663768564156;45.9046684564087
317.685388279762;45.7601073305834
317.707007995368;45.6145648070883
317.728627710974;45.4733143166121
317.75024742658;45.3402908426255
317.771867142186;45.2134302372633
317.793486857792;45.0855924088056
317.815106573398;44.9650642871243
317.836726289004;44.8656008553895
317.85834600461;44.7838243457759
317.879965720216;44.7142377283972
317.901585435822;44.6539145956846
317.923205151428;44.6036768407255
317.944824867034;44.5645992858943
317.96644458264;44.5330306600958
317.988064298246;44.5078155977388
318.009684013852;44.4924567379615
318.031303729458;44.4917263271562
318.052923445064;44.5102498575697
318.07454316067;44.5514151907337
318.096162876276;44.6169825081348
318.117782591882;44.7110832540019
318.139402307488;44.8302059447936
318.161022023094;44.9623130355907
318.1826417387;45.1050680376568
318.204261454306;45.2627621106892
318.225881169912;45.428556343589
318.247500885518;45.5865618815888
318.269120601124;45.7292536934131
318.29074031673;45.8542435013905
318.312360032336;45.9589286298044
318.333979747942;46.0472867102443
318.355599463548;46.1166113232599
318.377219179154;46.1535639386223
318.39883889476;46.152337582977
318.420458610366;46.1233056460517
318.442078325972;46.0790341480177
318.463698041578;46.0311357220492
318.485317757184;45.9780411352289
318.50693747279;45.9143790285845
318.528557188396;45.8445056965486
318.550176904002;45.7709175584774
318.571796619608;45.6878836234811
318.593416335214;45.5902773354851
318.61503605082;45.4713508562957
318.636655766426;45.3250211288498
318.658275482032;45.151986910738
318.679895197638;44.9559158608241
318.701514913245;44.7410823735469
318.723134628851;44.5115402731235
318.744754344457;44.2711527893398
318.766374060063;44.0251077077048
318.787993775669;43.779853977848
318.809613491275;43.544406872332
318.831233206881;43.328930721355
318.852852922487;43.1452017113157
318.874472638093;42.9932621581708
318.896092353699;42.8716258355616
318.917712069305;42.7846086640658
318.939331784911;42.7311254928527
318.960951500517;42.706625344593
318.982571216123;42.7043160782525
319.004190931729;42.7137203868298
319.025810647335;42.7304512299966
319.047430362941;42.7517834342685
319.069050078547;42.7731551640825
319.090669794153;42.7880580120218
319.112289509759;42.791632571053
319.133909225365;42.7803196685057
319.155528940971;42.7568563718371
319.177148656577;42.7265459807038
319.198768372183;42.6844822859735
319.220388087789;42.6276483447088
319.242007803395;42.5621516319144
319.263627519001;42.4872936329838
319.285247234607;42.3952732368535
319.306866950213;42.281258710452
319.328486665819;42.1512181227268
319.350106381425;42.0104730587709
319.371726097031;41.8529515757185
319.393345812637;41.6857476345868
319.414965528243;41.5312171378705
319.436585243849;41.3979711379427
319.458204959455;41.2847667836736
319.479824675061;41.1950290145782
319.501444390667;41.1343827581688
319.523064106273;41.0960968735739
319.544683821879;41.0618335704949
319.566303537485;41.0257663221149
319.587923253091;40.9979194761228
319.609542968697;40.9859098449435
319.631162684303;40.9911392526089
319.652782399909;41.0005451696941
319.674402115515;41.0010988599464
319.696021831121;40.9854588307748
319.717641546727;40.9598867891992
319.739261262333;40.928884861421
319.760880977939;40.8915468238404
319.782500693545;40.8445776627534
319.804120409151;40.7932771077918
319.825740124757;40.7413380292688
319.847359840363;40.6940722202407
319.868979555969;40.6572160227452
319.890599271575;40.6347651586317
319.912218987181;40.6293323124047
319.933838702787;40.6467897586622
319.955458418393;40.6909958275019
319.977078133999;40.7558930324675
319.998697849605;40.8356291428229
320.020317565211;40.9268312358769
320.041937280817;41.0202395484006
320.063556996424;41.1037818774098
320.08517671203;41.174522943091
320.106796427636;41.2291020675586
320.128416143242;41.2576266158316
320.150035858848;41.2529487461961
320.171655574454;41.214780306459
320.19327529006;41.1462809439877
320.214895005666;41.0540499614889
320.236514721272;40.9433359750078
320.258134436878;40.8182892928002
320.279754152484;40.6848347448178
320.30137386809;40.5483992545154
320.322993583696;40.4160929353179
320.344613299302;40.293028866296
320.366233014908;40.1792928463516
320.387852730514;40.0766832340824
320.40947244612;39.9857574728643
320.431092161726;39.8997087326254
320.452711877332;39.811959366275
320.474331592938;39.7226240225488
320.495951308544;39.647185224483
320.51757102415;39.6017364503761
320.539190739756;39.587198934778
320.560810455362;39.6031085968138
320.582430170968;39.6485513482481
320.604049886574;39.7247770259504
320.62566960218;39.8451523380566
320.647289317786;40.0302497639678
320.668909033392;40.287693806289
320.690528748998;40.6081410717615
320.712148464604;40.9613681809638
320.73376818021;41.3223065756236
320.755387895816;41.6872105675872
320.777007611422;42.0477874971538
320.798627327028;42.3751067579505
320.820247042634;42.6528938803907
320.84186675824;42.8815669171737
320.863486473846;43.0517924954967
320.885106189452;43.1404417043296
320.906725905058;43.1386667079293
320.928345620664;43.0576124357849
320.94996533627;42.9046339700355
320.971585051876;42.6852789368494
320.993204767482;42.4149465393621
321.014824483088;42.112623086875
321.036444198694;41.7861613032533
321.0580639143;41.4502166264337
321.079683629906;41.1411031689674
321.101303345512;40.8922601500208
321.122923061118;40.7049829465474
321.144542776724;40.5757843071577
321.16616249233;40.514689535911
321.187782207936;40.5284937102623
321.209401923542;40.6257359857071
321.231021639148;40.8066773110071
321.252641354754;41.0534489615667
321.27426107036;41.3482185964243
321.295880785966;41.6855966947525
321.317500501572;42.0662220005706
321.339120217178;42.4849538224163
321.360739932784;42.9130131120778
321.38235964839;43.3112123036359
321.403979363996;43.6675389377737
321.425599079603;43.9894046021923
321.447218795209;44.2684366136513
321.468838510815;44.470319231623
321.490458226421;44.5832337806204
321.512077942027;44.6255854001005
321.533697657633;44.6200982658649
321.555317373239;44.583777832208
321.576937088845;44.5258208848987
321.598556804451;44.4496910907507
321.620176520057;44.3567884083884
321.641796235663;44.2499793945854
321.663415951269;44.1515931674948
321.685035666875;44.0740054458091
321.706655382481;44.0144411310868
321.728275098087;43.9647198704516
321.749894813693;43.9166177856194
321.771514529299;43.8546225724963
321.793134244905;43.7669810314234
321.814753960511;43.6466567862921
321.836373676117;43.4826106522376
321.857993391723;43.264805412434
321.879613107329;42.9868950492355
321.901232822935;42.6639539139131
321.922852538541;42.3280081400817
321.944472254147;41.9847596240788
321.966091969753;41.6223507349339
321.987711685359;41.2369281382108
322.009331400965;40.8290563477133
322.030951116571;40.3980456980535
322.052570832177;39.9382392179541
322.074190547783;39.4293703914778
322.095810263389;38.8778273347515
322.117429978995;38.3348720750753
322.139049694601;37.832436777422
322.160669410207;37.3579426090879
322.182289125813;36.8877621849275
322.203908841419;36.423296701378
322.225528557025;35.976963725598
322.247148272631;35.552711134594
322.268767988237;35.1706257612629
322.290387703843;34.8448065759973
322.312007419449;34.5716381510012
322.333627135055;34.3426165707092
322.355246850661;34.1583572941119
322.376866566267;34.0265849048371
322.398486281873;33.9528774603175
322.420105997479;33.9419924394721
322.441725713085;33.9835798120465
322.463345428691;34.067971238731
322.484965144297;34.1982294422691
322.506584859903;34.3661495478932
322.528204575509;34.5565210275942
322.549824291115;34.7642213948963
322.571444006721;34.9870625897345
322.593063722327;35.2109457021799
322.614683437933;35.4180384949356
322.636303153539;35.6032112029204
322.657922869145;35.7794784867095
322.679542584751;35.951231193746
322.701162300357;36.1046915764551
322.722782015964;36.2094538172228
322.74440173157;36.2697048958326
322.766021447175;36.2959788347128
322.787641162782;36.2869613196136
322.809260878388;36.2389462468629
322.830880593994;36.1456910023485
322.8525003096;36.0101058080859
322.874120025206;35.8375127697821
322.895739740812;35.6401640138934
322.917359456418;35.4272508219056
322.938979172024;35.1985192169101
322.96059888763;34.9480569713776
322.982218603236;34.682437443897
323.003838318842;34.4150011154607
323.025458034448;34.1662592442158
323.047077750054;33.9469785810551
323.06869746566;33.7548901021598
323.090317181266;33.5874762317908
323.111936896872;33.4383202703851
323.133556612478;33.3018794034533
323.155176328084;33.1749346002327
323.17679604369;33.0555028015502
323.198415759296;32.9365888885989
323.220035474902;32.8096912081421
323.241655190508;32.6676264910449
323.263274906114;32.5129971119557
323.28489462172;32.3663288289333
323.306514337326;32.2398325904057
323.328134052932;32.1151396046078
323.349753768538;31.9848408046508
323.371373484144;31.8552693496852
323.39299319975;31.7383978507405
323.414612915356;31.6431970496395
323.436232630962;31.563388439524
323.457852346568;31.4888070968164
323.479472062174;31.4167743324056
323.50109177778;31.3455191926802
323.522711493386;31.2764224999405
323.544331208992;31.2075363056451
323.565950924598;31.1314599049604
323.587570640204;31.0419981702139
323.60919035581;30.9370274621896
323.630810071416;30.821336941357
323.652429787022;30.7062550175645
323.674049502628;30.6050561642227
323.695669218234;30.5265372867259
323.71728893384;30.4706613488602
323.738908649446;30.4413637752462
323.760528365052;30.4497571746024
323.782148080658;30.5004662616359
323.803767796264;30.5932957503675
323.82538751187;30.7276045281314
323.847007227476;30.9077698821053
323.868626943082;31.1350906497593
323.890246658688;31.4001510324002
323.911866374294;31.6845710248997
323.9334860899;31.9806933962769
323.955105805506;32.288973638693
323.976725521112;32.6038463712263
323.998345236718;32.9056643489809
324.019964952324;33.1778299519625
324.04158466793;33.4229204776884
324.063204383536;33.6395633133616
324.084824099143;33.813542026529
324.106443814749;33.9423103792677
324.128063530355;34.0307689496423
324.149683245961;34.0828905943845
324.171302961567;34.1054889308096
324.192922677173;34.1046219961845
324.214542392779;34.080488338451
324.236162108385;34.0339521062923
324.257781823991;33.9713433871202
324.279401539597;33.8995773670266
324.301021255203;33.8226439581901
324.322640970809;33.740992982389
324.344260686415;33.6487295583522
324.365880402021;33.5396975849797
324.387500117627;33.4103480505805
324.409119833233;33.2661714919377
324.430739548839;33.1142924342697
324.452359264445;32.9502361632587
324.473978980051;32.7660855122259
324.495598695657;32.5638840587001
324.517218411263;32.3536602392591
324.538838126869;32.1344588095414
324.560457842475;31.8976932698823
324.582077558081;31.6376743202268
324.603697273687;31.3551318921287
324.625316989293;31.0549531178121
324.646936704899;30.7446861727761
324.668556420505;30.4306688617294
324.690176136111;30.120498630815
324.711795851717;29.810510227261
324.733415567323;29.49532043395
324.755035282929;29.1741223845769
324.776654998535;28.8499119131371
