Name;BF_ESR_01_Natural_Y_gon_180dg_result

Recipe
Accumulations;5;Number of accumulations
RetryCount;0;Number of retries on error
AbortOnError;True;Abort on error
EnableQFactorMeasurement;False;Enable/Disable q-Factor measurement
Bfrom;313;B from
Bto;363;B to
SweepTime;60;Sweep time
Modulation;0.2;Modulation
ModulationFreq;100;Modulation
BHoldEnabled;False;B hold enabled
BHold;0;B hold
MicrowavePower;2;Microwave power
MarkerEnabled;False;
MarkerStartField;0;
MarkerEndField;0;
Mode;;
KineticGFact;0;
KineticTotalTransientTime;0;
KineticTimeResolution;0;
TempFrom;5;
TempUseSlope;False;
TempTo;5;
TempdT;1;
TempSetupTime;0;
GonFrom;0;
GonTo;180;
GonSteps;20;
XRayEnabled;False;
XRayTime;3;
XRayVoltage;40;
XRayCurrent;0.5;
UVEnabled;False;
UVIntensity;0;
UVTime;0;
UVLeadTime;0;
UVWavelength;0;
PowSweepFrom;1;
PowSweepTo;5;
PowSweepSteps;5;
AmpModSweepFrom;0;
AmpModSweepTo;1;
AmpModSweepSteps;10;
ExtTriggerEnabled;False;
ExtTrigLeadTime;0;
ExtTrigOnTime;5;

Meas
BField [mT];MW_Absorption []
313.031706848145;56.0965502903741
313.053323663257;55.7341149304745
313.07494047837;55.3358642739286
313.096557293483;54.8775118890137
313.118174108596;54.3251371750204
313.139790923709;53.6736614489872
313.161407738822;52.9492150275427
313.183024553935;52.184586028768
313.204641369048;51.3699615093611
313.226258184161;50.5266918974493
313.247874999273;49.6993423394477
313.269491814386;48.9382315875182
313.291108629499;48.2258009479313
313.312725444612;47.5589352644152
313.334342259725;46.9734019829704
313.355959074838;46.4928464176167
313.377575889951;46.1164748831584
313.399192705064;45.843468897652
313.420809520176;45.6773607033545
313.442426335289;45.6156421768511
313.464043150402;45.6516476482415
313.485659965515;45.7831695593349
313.507276780628;46.0020781605014
313.528893595741;46.2791545975703
313.550510410854;46.5907835454088
313.572127225967;46.9279483208524
313.59374404108;47.2883003401009
313.615360856192;47.6700860137527
313.636977671305;48.0541214326993
313.658594486418;48.4164324392262
313.680211301531;48.7501431063679
313.701828116644;49.0265498697481
313.723444931757;49.236732822156
313.74506174687;49.388894581661
313.766678561983;49.4859170815494
313.788295377096;49.5224530816912
313.809912192208;49.4994604563078
313.831529007321;49.4193151189573
313.853145822434;49.2848021673
313.874762637547;49.1012351191698
313.89637945266;48.8784523156507
313.917996267773;48.6187179460938
313.939613082886;48.3236494238651
313.961229897999;48.0027123749296
313.982846713112;47.6740910807352
314.004463528224;47.3268302998248
314.026080343337;46.9580976306299
314.04769715845;46.597815105482
314.069313973563;46.2762025797006
314.090930788676;45.9967787882332
314.112547603789;45.7508275606098
314.134164418902;45.5278795985665
314.155781234015;45.3203286936327
314.177398049128;45.13558464901
314.19901486424;44.9968725393591
314.220631679353;44.9106464274446
314.242248494466;44.8647937369681
314.263865309579;44.849520558103
314.285482124692;44.8581606743623
314.307098939805;44.8874055559616
314.328715754918;44.9386766857266
314.350332570031;45.0064823019433
314.371949385143;45.0850946247047
314.393566200256;45.1733748416555
314.415183015369;45.2710288766682
314.436799830482;45.3666524692506
314.458416645595;45.4438491612213
314.480033460708;45.518226053849
314.501650275821;45.6086399469354
314.523267090934;45.7041617850269
314.544883906047;45.7823990502244
314.566500721159;45.8411450018649
314.588117536272;45.8760028365063
314.609734351385;45.8841356998062
314.631351166498;45.8664703810689
314.652967981611;45.8249822320422
314.674584796724;45.7590505440111
314.696201611837;45.6695060551511
314.71781842695;45.5587321860265
314.739435242063;45.4343890117161
314.761052057175;45.3046206915947
314.782668872288;45.1870680473549
314.804285687401;45.0913275956907
314.825902502514;45.0141044297959
314.847519317627;44.96012282013
314.86913613274;44.934857430044
314.890752947853;44.9295096918908
314.912369762966;44.9339526712372
314.933986578079;44.9512871963268
314.955603393191;44.9907582616567
314.977220208304;45.0557386433414
314.998837023417;45.1457145404999
315.02045383853;45.2649715906271
315.042070653643;45.41951742399
315.063687468756;45.6035777766409
315.085304283869;45.8140870867353
315.106921098982;46.0629194440359
315.128537914094;46.3543282802814
315.150154729207;46.6611318262645
315.17177154432;46.9562869152568
315.193388359433;47.2320044225787
315.215005174546;47.4886558069987
315.236621989659;47.7224698198575
315.258238804772;47.9263561241227
315.279855619885;48.0929233630384
315.301472434998;48.2113970867114
315.32308925011;48.2705309031605
315.344706065223;48.2712473800491
315.366322880336;48.2268015764948
315.387939695449;48.1460714201029
315.409556510562;48.029333655201
315.431173325675;47.883596986588
315.452790140788;47.7265388334396
315.474406955901;47.5683263109357
315.496023771014;47.4181238509447
315.517640586126;47.280138320983
315.539257401239;47.1452822687851
315.560874216352;47.0012787694545
315.582491031465;46.8508841945519
315.604107846578;46.6979812552806
315.625724661691;46.5313316971108
315.647341476804;46.3428561584131
315.668958291917;46.1372685120243
315.69057510703;45.9257654106729
315.712191922142;45.7172257345511
315.733808737255;45.5100431820019
315.755425552368;45.3054568860136
315.777042367481;45.1135718460961
315.798659182594;44.9452087781145
315.820275997707;44.8123781616236
315.84189281282;44.7210532869983
315.863509627933;44.6738525244094
315.885126443046;44.6645439805583
315.906743258158;44.684442547063
315.928360073271;44.7240715308227
315.949976888384;44.7763099511227
315.971593703497;44.8363044629518
315.99321051861;44.9071158886591
316.014827333723;44.9839550183576
316.036444148836;45.0532294277977
316.058060963949;45.1051262941262
316.079677779061;45.1368519483961
316.101294594174;45.1525440007158
316.122911409287;45.1512386541643
316.1445282244;45.1244127165687
316.166145039513;45.0730073943438
316.187761854626;45.0077724669817
316.209378669739;44.9275230323027
316.230995484852;44.8339596975424
316.252612299965;44.7410526850522
316.274229115077;44.6585336512789
316.29584593019;44.5837045764917
316.317462745303;44.5122916691019
316.339079560416;44.4455435601341
316.360696375529;44.3966908982863
316.382313190642;44.3687421431578
316.403930005755;44.353410388464
316.425546820868;44.3481840776657
316.447163635981;44.3556630435997
316.468780451093;44.3742877088142
316.490397266206;44.4052121293164
316.512014081319;44.4476605168473
316.533630896432;44.5026300363788
316.555247711545;44.5592134812637
316.576864526658;44.6074482525443
316.598481341771;44.6468169956567
316.620098156884;44.6794892102695
316.641714971997;44.6993353282819
316.663331787109;44.6925838680713
316.684948602222;44.6555915725148
316.706565417335;44.5934371602759
316.728182232448;44.5027154841072
316.749799047561;44.3785730907016
316.771415862674;44.2207812518938
316.793032677787;44.0314403498131
316.8146494929;43.8142047497881
316.836266308012;43.5737657354148
316.857883123125;43.3241761165307
316.879499938238;43.0834482862259
316.901116753351;42.8553895670652
316.922733568464;42.6539990025825
316.944350383577;42.4877803593542
316.96596719869;42.3663617316334
316.987584013803;42.2967470566904
317.009200828916;42.2813554460421
317.030817644028;42.3218828949768
317.052434459141;42.4156908854016
317.074051274254;42.557880034003
317.095668089367;42.7447725408682
317.11728490448;42.9720610444377
317.138901719593;43.2256153364907
317.160518534706;43.4665032497307
317.182135349819;43.6794192598559
317.203752164932;43.8637984176336
317.225368980044;44.018531808589
317.246985795157;44.1442272318911
317.26860261027;44.2377661730156
317.290219425383;44.2980105590028
317.311836240496;44.313153771972
317.333453055609;44.2956562972107
317.355069870722;44.2580614398719
317.376686685835;44.1999544128017
317.398303500948;44.1286086660569
317.41992031606;44.0506621219301
317.441537131173;43.9748836156022
317.463153946286;43.9015201141292
317.484770761399;43.8312323971987
317.506387576512;43.7722741547325
317.528004391625;43.7280656992276
317.549621206738;43.6955863750923
317.571238021851;43.6715702416082
317.592854836964;43.6481079029619
317.614471652076;43.6181933730969
317.636088467189;43.5765995355896
317.657705282302;43.5243372259959
317.679322097415;43.4606496708811
317.700938912528;43.3766290465142
317.722555727641;43.2603217332841
317.744172542754;43.1123275644789
317.765789357867;42.943672459129
317.787406172979;42.7640776269498
317.809022988092;42.5696901172961
317.830639803205;42.3631399247704
317.852256618318;42.159902931941
317.873873433431;41.9668113318305
317.895490248544;41.7808339707177
317.917107063657;41.604157070916
317.93872387877;41.4380567161098
317.960340693883;41.2797889669495
317.981957508995;41.13496257591
318.003574324108;41.0135093714845
318.025191139221;40.9161120872326
318.046807954334;40.8386214947926
318.068424769447;40.7822130314827
318.09004158456;40.7483692464345
318.111658399673;40.7356899500683
318.133275214786;40.7538363885454
318.154892029899;40.8100972595895
318.176508845011;40.888716823825
318.198125660124;40.9839041736706
318.219742475237;41.1005692469475
318.24135929035;41.250184936884
318.262976105463;41.4352002618735
318.284592920576;41.6394857214735
318.306209735689;41.8540102892686
318.327826550802;42.0799630197686
318.349443365915;42.3061475425933
318.371060181027;42.5286998628683
318.39267699614;42.7503748452223
318.414293811253;42.9772907008436
318.435910626366;43.2140290443016
318.457527441479;43.4585651208745
318.479144256592;43.7055563818184
318.500761071705;43.948468176211
318.522377886818;44.1770979233335
318.543994701931;44.3783835232753
318.565611517043;44.5432225978619
318.587228332156;44.6671820243632
318.608845147269;44.7435084733316
318.630461962382;44.7650817224041
318.652078777495;44.7217638482751
318.673695592608;44.6088921367264
318.695312407721;44.4235993764872
318.716929222834;44.1608723760575
318.738546037946;43.8347383442535
318.760162853059;43.4846985432013
318.781779668172;43.1214583859307
318.803396483285;42.7354775714196
318.825013298398;42.3266233844483
318.846630113511;41.9436191617946
318.868246928624;41.6158374474993
318.889863743737;41.3226899275373
318.91148055885;41.0587163645379
318.933097373962;40.8391074384095
318.954714189075;40.6695885605937
318.976331004188;40.5357001333617
318.997947819301;40.4207958610258
319.019564634414;40.3205242552183
319.041181449527;40.2447628824731
319.06279826464;40.20043346733
319.084415079753;40.1813848119464
319.106031894866;40.1789555159795
319.127648709978;40.1976906269416
319.149265525091;40.2482945126642
319.170882340204;40.3243488052656
319.192499155317;40.4191930406493
319.21411597043;40.5350142725769
319.235732785543;40.6700951179838
319.257349600656;40.8193087155006
319.278966415769;40.996694663652
319.300583230882;41.1850780584767
319.322200045994;41.3411862550273
319.343816861107;41.4626996127095
319.36543367622;41.5636893731133
319.387050491333;41.6377274326429
319.408667306446;41.6815990531738
319.430284121559;41.6948336481959
319.451900936672;41.6800239540767
319.473517751785;41.6414017081213
319.495134566897;41.5849924507906
319.51675138201;41.5125395088209
319.538368197123;41.4236541661337
319.559985012236;41.3256582469087
319.581601827349;41.223214880161
319.603218642462;41.1123565955594
319.624835457575;40.9815590207242
319.646452272688;40.825916665962
319.668069087801;40.6700848807103
319.689685902913;40.5201154972689
319.711302718026;40.3716268646795
319.732919533139;40.2219196649572
319.754536348252;40.0773526606302
319.776153163365;39.9413793416694
319.797769978478;39.8082427203799
319.819386793591;39.6760101167798
319.841003608704;39.5635201120868
319.862620423817;39.4799287803873
319.884237238929;39.4251991754228
319.905854054042;39.4004735684943
319.927470869155;39.4108468631988
319.949087684268;39.4626639596377
319.970704499381;39.567191805715
319.992321314494;39.7188965113392
320.013938129607;39.9136126256478
320.03555494472;40.1453747957607
320.057171759833;40.4154168421433
320.078788574945;40.7285164190127
320.100405390058;41.0868624060027
320.122022205171;41.4620659246363
320.143639020284;41.8190994692845
320.165255835397;42.1472548949748
320.18687265051;42.45219809948
320.208489465623;42.7440764793882
320.230106280736;43.0153998927626
320.251723095848;43.2418414707107
320.273339910961;43.4052678165326
320.294956726074;43.5019319669854
320.316573541187;43.5401147533696
320.3381903563;43.530580688099
320.359807171413;43.4822234931121
320.381423986526;43.4042220963061
320.403040801639;43.3055065406998
320.424657616752;43.1960647564733
320.446274431864;43.0900688146042
320.467891246977;42.9974124345588
320.48950806209;42.9187657757892
320.511124877203;42.8520870767861
320.532741692316;42.7964086801727
320.554358507429;42.7538774074141
320.575975322542;42.7209059885828
320.597592137655;42.6949205134896
320.619208952768;42.675889719311
320.64082576788;42.6667830104821
320.662442582993;42.6703848956535
320.684059398106;42.6693880008713
320.705676213219;42.6431673999585
320.727293028332;42.5953620012924
320.748909843445;42.5441698169559
320.770526658558;42.5028357482201
320.792143473671;42.4739569772433
320.813760288784;42.4479196057599
320.835377103896;42.4082320913046
320.856993919009;42.3570320896913
320.878610734122;42.3008501031839
320.900227549235;42.2391362008531
320.921844364348;42.166167200132
320.943461179461;42.070187348126
320.965077994574;41.9461118141251
320.986694809687;41.7992226520698
321.008311624799;41.6345184215589
321.029928439912;41.4553052773686
321.051545255025;41.2657982307568
321.073162070138;41.0776953264702
321.094778885251;40.9101520609114
321.116395700364;40.774503724557
321.138012515477;40.68210378703
321.15962933059;40.6421094481513
321.181246145703;40.6656501859754
321.202862960815;40.7677916928491
321.224479775928;40.9372341561241
321.246096591041;41.158336680967
321.267713406154;41.4318793210973
321.289330221267;41.7532226293487
321.31094703638;42.0912608927912
321.332563851493;42.4097609727469
321.354180666606;42.6836720324142
321.375797481719;42.899869151462
321.397414296831;43.0658643037903
321.419031111944;43.1968881535964
321.440647927057;43.2940334923956
321.46226474217;43.3416964767199
321.483881557283;43.3228939131331
321.505498372396;43.242719923285
321.527115187509;43.1193181289685
321.548732002622;42.9645167591572
321.570348817735;42.7821930382696
321.591965632847;42.581340192779
321.61358244796;42.3732912558127
321.635199263073;42.1655911784092
321.656816078186;41.9589670368355
321.678432893299;41.743135161568
321.700049708412;41.5127829331617
321.721666523525;41.2683793804496
321.743283338638;41.0121850749941
321.76490015375;40.7453256406833
321.786516968863;40.4744449733933
321.808133783976;40.2034680917801
321.829750599089;39.9271491255862
321.851367414202;39.6399339870065
321.872984229315;39.3488581899705
321.894601044428;39.0715031581813
321.916217859541;38.818856662873
321.937834674654;38.5926517001317
321.959451489766;38.3891216232668
321.981068304879;38.2051211658649
322.002685119992;38.0361045764976
322.024301935105;37.8750955059956
322.045918750218;37.7143976650917
322.067535565331;37.5486740987
322.089152380444;37.3743989079161
322.110769195557;37.1874823570302
322.13238601067;36.9872109987825
322.154002825782;36.7708844206622
322.175619640895;36.528919957769
322.197236456008;36.2560161905752
322.218853271121;35.9653455978273
322.240470086234;35.670274575972
322.262086901347;35.3798715247041
322.28370371646;35.1176724236327
322.305320531573;34.8948706967297
322.326937346686;34.7148838630524
322.348554161798;34.5817821376525
322.370170976911;34.5006624889768
322.391787792024;34.4685343823497
322.413404607137;34.4804962288259
322.43502142225;34.5417500564039
322.456638237363;34.6501945143408
322.478255052476;34.7897513367488
322.499871867589;34.950291052321
322.521488682701;35.1214157786036
322.543105497814;35.2954687706253
322.564722312927;35.4732745498584
322.58633912804;35.6561394330706
322.607955943153;35.8395986193401
322.629572758266;36.0110991259136
322.651189573379;36.1590848820811
322.672806388492;36.286545662896
322.694423203605;36.3994278994212
322.716040018717;36.494233349796
322.73765683383;36.5673623685486
322.759273648943;36.613045356329
322.780890464056;36.62766814583
322.802507279169;36.6130051377121
322.824124094282;36.5735101787022
322.845740909395;36.50807716498
322.867357724508;36.4148071367976
322.888974539621;36.2942669998944
322.910591354733;36.1525381468584
322.932208169846;36.0095198566131
322.953824984959;35.8682634534562
322.975441800072;35.7224297401824
322.997058615185;35.5643470980257
323.018675430298;35.4007754273718
323.040292245411;35.2399246130847
323.061909060524;35.0847049786766
323.083525875637;34.9410970810435
323.105142690749;34.804151852249
323.126759505862;34.6597816960981
323.148376320975;34.5138980557953
323.169993136088;34.381470136511
323.191609951201;34.2628591587003
323.213226766314;34.1565871402873
323.234843581427;34.0692560842763
323.25646039654;34.0082294461878
323.278077211652;33.9797824336551
323.299694026765;33.9867401178392
323.321310841878;34.0412787359388
323.342927656991;34.1366321565544
323.364544472104;34.2714900564762
323.386161287217;34.4494652471576
323.40777810233;34.6670647192265
323.429394917443;34.9056465672084
323.451011732556;35.1474594063737
323.472628547668;35.3828186974098
323.494245362781;35.6018225849279
323.515862177894;35.7982459692066
323.537478993007;35.9633691505838
323.55909580812;36.0817801153366
323.580712623233;36.136437007594
323.602329438346;36.145191594158
323.623946253459;36.1240912102766
323.645563068572;36.0726954918502
323.667179883684;35.9847492286168
323.688796698797;35.8635700709525
323.71041351391;35.7183165608167
323.732030329023;35.5627812921472
323.753647144136;35.4126788945609
323.775263959249;35.2773999869209
323.796880774362;35.1587730063995
323.818497589475;35.0569504162607
323.840114404588;34.9892032577082
323.8617312197;34.9708323641722
323.883348034813;34.993369002687
323.904964849926;35.0424832354183
323.926581665039;35.1023811482616
323.948198480152;35.1603333890951
323.969815295265;35.2162940210027
323.991432110378;35.2720362518766
324.013048925491;35.3152180471621
324.034665740603;35.335382607943
324.056282555716;35.3325823969506
324.077899370829;35.3033196967666
324.099516185942;35.2385292095139
324.121133001055;35.1413603596075
324.142749816168;35.0310966692152
324.164366631281;34.9216834201449
324.185983446394;34.8216005169474
324.207600261507;34.7406337652829
324.229217076619;34.6832783658587
324.250833891732;34.6490660997453
324.272450706845;34.6416285091091
324.294067521958;34.6635627596079
324.315684337071;34.7096945051843
324.337301152184;34.7731794067072
324.358917967297;34.851633478959
324.38053478241;34.9457819894839
324.402151597523;35.0484498294433
324.423768412635;35.1483026425312
324.445385227748;35.2407006141816
324.467002042861;35.3312672553409
324.488618857974;35.4158706767358
324.510235673087;35.4884478212742
324.5318524882;35.557851881289
324.553469303313;35.6397553194945
324.575086118426;35.7333000905131
324.596702933539;35.8164581732794
324.618319748651;35.8829365306699
324.639936563764;35.9362487971117
324.661553378877;35.9918009488391
324.68317019399;36.0672512414645
324.704787009103;36.1535232904291
324.726403824216;36.2453215222715
324.748020639329;36.3311787119011
324.769637454442;36.3946049440406
324.791254269555;36.4453920450735
