Name;BF_ESR_01_14400s_y_gon_100dg_result

Recipe
Accumulations;5;Number of accumulations
RetryCount;0;Number of retries on error
AbortOnError;True;Abort on error
EnableQFactorMeasurement;False;Enable/Disable q-Factor measurement
Bfrom;313;B from
Bto;363;B to
SweepTime;60;Sweep time
Modulation;0.2;Modulation
ModulationFreq;100;Modulation
BHoldEnabled;False;B hold enabled
BHold;0;B hold
MicrowavePower;2;Microwave power
MarkerEnabled;False;
MarkerStartField;0;
MarkerEndField;0;
Mode;;
KineticGFact;0;
KineticTotalTransientTime;0;
KineticTimeResolution;0;
TempFrom;5;
TempUseSlope;False;
TempTo;5;
TempdT;1;
TempSetupTime;0;
GonFrom;0;
GonTo;180;
GonSteps;20;
XRayEnabled;False;
XRayTime;3;
XRayVoltage;40;
XRayCurrent;0.5;
UVEnabled;False;
UVIntensity;0;
UVTime;0;
UVLeadTime;0;
UVWavelength;0;
PowSweepFrom;1;
PowSweepTo;5;
PowSweepSteps;5;
AmpModSweepFrom;0;
AmpModSweepTo;1;
AmpModSweepSteps;10;
ExtTriggerEnabled;False;
ExtTrigLeadTime;0;
ExtTrigOnTime;5;

Meas
BField [mT];MW_Absorption []
313.031659469605;70.5701328571326
313.053276655427;70.1978316981399
313.07489384125;69.6752132761561
313.096511027073;69.0282074323676
313.118128212896;68.319732867478
313.139745398719;67.5761440979813
313.161362584542;66.7825404122215
313.182979770365;65.9371045591259
313.204596956188;65.080973951325
313.226214142011;64.2662418142969
313.247831327834;63.5184337074752
313.269448513657;62.8332105708692
313.29106569948;62.2197896864046
313.312682885302;61.6818709941144
313.334300071125;61.2122950580514
313.355917256948;60.812853151226
313.377534442771;60.483645636612
313.399151628594;60.2212309452975
313.420768814417;60.0131816033344
313.44238600024;59.8361121806069
313.464003186063;59.6570163279995
313.485620371886;59.4668308789455
313.507237557709;59.2810470785712
313.528854743532;59.1011570141685
313.550471929355;58.8991022956391
313.572089115178;58.6606180490823
313.593706301;58.3947453870018
313.615323486823;58.1128287111931
313.636940672646;57.8155091816792
313.658557858469;57.5045817722622
313.680175044292;57.1813200774269
313.701792230115;56.8417378914271
313.723409415938;56.482305099848
313.745026601761;56.1168720362864
313.766643787584;55.7536957510257
313.788260973407;55.3862959654177
313.80987815923;54.9983902768834
313.831495345053;54.5937019975697
313.853112530875;54.1965479584319
313.874729716698;53.8235348771878
313.896346902521;53.475658680108
313.917964088344;53.1456399634595
313.939581274167;52.8324765958332
313.96119845999;52.5464937185596
313.982815645813;52.2904934792392
314.004432831636;52.0588498822886
314.026050017459;51.847497287325
314.047667203282;51.6541506258169
314.069284389105;51.4788262277341
314.090901574928;51.3262684223885
314.112518760751;51.2027291091984
314.134135946573;51.1072802057577
314.155753132396;51.0360222475872
314.177370318219;50.9882481057271
314.198987504042;50.9648424115826
314.220604689865;50.962792381294
314.242221875688;50.9843169291515
314.263839061511;51.0281468527383
314.285456247334;51.0890598176652
314.307073433157;51.1596995765845
314.32869061898;51.2348202211488
314.350307804803;51.314857642952
314.371924990626;51.4019327506051
314.393542176448;51.4905689439067
314.415159362271;51.5702108514367
314.436776548094;51.6329687166078
314.458393733917;51.6704929889362
314.48001091974;51.675969661386
314.501628105563;51.6587827028806
314.523245291386;51.6310064536499
314.544862477209;51.5948903763977
314.566479663032;51.5557228879795
314.588096848855;51.5180341314085
314.609714034678;51.4860930030875
314.631331220501;51.4702109970391
314.652948406324;51.4819902868087
314.674565592146;51.5337642537789
314.696182777969;51.6308250665439
314.717799963792;51.7701101083962
314.739417149615;51.949862631962
314.761034335438;52.166790080986
314.782651521261;52.4115569799817
314.804268707084;52.6733072512535
314.825885892907;52.9307092716214
314.84750307873;53.1554068456116
314.869120264553;53.3391610893801
314.890737450376;53.4835788256143
314.912354636199;53.5862092499744
314.933971822021;53.6433717530854
314.955589007844;53.6589416625989
314.977206193667;53.6387206803273
314.99882337949;53.5843370858362
315.020440565313;53.50147511349
315.042057751136;53.3990763838966
315.063674936959;53.2896098038195
315.085292122782;53.186535104625
315.106909308605;53.0850015700361
315.128526494428;52.9681578694524
315.150143680251;52.8214406179109
315.171760866074;52.644440235302
315.193378051897;52.4430288462438
315.214995237719;52.2116723437231
315.236612423542;51.9456692008407
315.258229609365;51.6402180703873
315.279846795188;51.2874597196994
315.301463981011;50.9065893298859
315.323081166834;50.5295861429974
315.344698352657;50.1763670535034
315.36631553848;49.8575550340152
315.387932724303;49.5790260938534
315.409549910126;49.3428555613592
315.431167095949;49.1464130202101
315.452784281772;48.9925966746812
315.474401467594;48.8998841503734
315.496018653417;48.8784782459887
315.51763583924;48.911003794106
315.539253025063;48.9845408672694
315.560870210886;49.0908757773789
315.582487396709;49.2234679000221
315.604104582532;49.3760714696395
315.625721768355;49.5419752058574
315.647338954178;49.7165504940965
315.668956140001;49.8882470304259
315.690573325824;50.043232346074
315.712190511647;50.1698194015819
315.73380769747;50.2486524271908
315.755424883292;50.2768496864871
315.777042069115;50.2522732437237
315.798659254938;50.1693742798883
315.820276440761;50.0350207960745
315.841893626584;49.8495717839773
315.863510812407;49.6153716787544
315.88512799823;49.3464802767964
315.906745184053;49.0566675705301
315.928362369876;48.7675768489021
315.949979555699;48.5022025537894
315.971596741522;48.2750082419406
315.993213927345;48.1020112101161
316.014831113167;48.0024773101531
316.03644829899;48.0043461162166
316.058065484813;48.0912194973059
316.079682670636;48.2522741293114
316.101299856459;48.4894295395617
316.122917042282;48.7943240726713
316.144534228105;49.1466225219069
316.166151413928;49.522237734987
316.187768599751;49.900437980752
316.209385785574;50.2652090616317
316.231002971397;50.6039272217958
316.25262015722;50.9160834894659
316.274237343042;51.2034185721632
316.295854528865;51.4529980123662
316.317471714688;51.6444555473675
316.339088900511;51.7768569908668
316.360706086334;51.8539951762228
316.382323272157;51.869777686029
316.40394045798;51.8170738232652
316.425557643803;51.6890448484005
316.447174829626;51.4971754486854
316.468792015449;51.252316928277
316.490409201272;50.962593394696
316.512026387095;50.6419037373687
316.533643572918;50.298112011593
316.55526075874;49.935690927217
316.576877944563;49.5613922214432
316.598495130386;49.177859287076
316.620112316209;48.79036337439
316.641729502032;48.3980738766954
316.663346687855;48.0080042940833
316.684963873678;47.6423845023425
316.706581059501;47.306789763069
316.728198245324;46.9853157635793
316.749815431147;46.6672148780752
316.77143261697;46.3574445056926
316.793049802793;46.0710893756252
316.814666988615;45.8239109701775
316.836284174438;45.616512930291
316.857901360261;45.4484731448171
316.879518546084;45.3274219423941
316.901135731907;45.265094372605
316.92275291773;45.2723220966957
316.944370103553;45.3549514022093
316.965987289376;45.5095529096472
316.987604475199;45.7255822248087
317.009221661022;45.9915004837629
317.030838846845;46.3060693590293
317.052456032668;46.6623930994004
317.074073218491;47.0309798997086
317.095690404313;47.4027734604274
317.117307590136;47.7651391469444
317.138924775959;48.0949993440508
317.160541961782;48.3903653884907
317.182159147605;48.6489822252098
317.203776333428;48.8633980808273
317.225393519251;49.0311077332622
317.247010705074;49.1601549345714
317.268627890897;49.2516256124695
317.29024507672;49.3053937732716
317.311862262543;49.3233691391223
317.333479448366;49.3198258584597
317.355096634188;49.2999808406517
317.376713820011;49.2642547062091
317.398331005834;49.2162667822553
317.419948191657;49.1564339417428
317.44156537748;49.0825362915538
317.463182563303;48.9953946825847
317.484799749126;48.8903711122931
317.506416934949;48.7695739053597
317.528034120772;48.6378316355514
317.549651306595;48.4900464047594
317.571268492418;48.3192013566067
317.592885678241;48.1344162586814
317.614502864063;47.9488705168845
317.636120049886;47.7642347426213
317.657737235709;47.5717878171216
317.679354421532;47.363203859731
317.700971607355;47.1446108288312
317.722588793178;46.9282911719788
317.744205979001;46.7236796427743
317.765823164824;46.5281184442499
317.787440350647;46.333322462839
317.80905753647;46.1341991554755
317.830674722293;45.9369244059678
317.852291908116;45.7460023867327
317.873909093939;45.5671253990478
317.895526279761;45.4042710064251
317.917143465584;45.2625988463503
317.938760651407;45.1471373897512
317.96037783723;45.0621070796538
317.981995023053;45.0232311958685
318.003612208876;45.0419228681311
318.025229394699;45.1266533360026
318.046846580522;45.2790232041924
318.068463766345;45.4904495821545
318.090080952168;45.7530321784991
318.111698137991;46.0642915202669
318.133315323814;46.4187334466677
318.154932509636;46.806110719139
318.176549695459;47.2171450155833
318.198166881282;47.6390206378544
318.219784067105;48.0604057345042
318.241401252928;48.4682337986622
318.263018438751;48.8395833583274
318.284635624574;49.1584813329146
318.306252810397;49.4185394082153
318.32786999622;49.6110755469614
318.349487182043;49.7263123229014
318.371104367866;49.7683342340294
318.392721553689;49.7476382979397
318.414338739512;49.6630230254303
318.435955925334;49.5009102090065
318.457573111157;49.2565384211304
318.47919029698;48.9388305917898
318.500807482803;48.5598223298406
318.522424668626;48.1307945818647
318.544041854449;47.6607702887173
318.565659040272;47.1529560135284
318.587276226095;46.6092584037124
318.608893411918;46.0219699378855
318.630510597741;45.3792152680544
318.652127783564;44.6973601401784
318.673744969387;44.0108447393384
318.695362155209;43.3326868795638
318.716979341032;42.6546998648872
318.738596526855;41.9590892576284
318.760213712678;41.2527925020241
318.781830898501;40.5786754231186
318.803448084324;39.977685893399
318.825065270147;39.4710623664643
318.84668245597;39.0485624933645
318.868299641793;38.6935680561894
318.889916827616;38.3993976514864
318.911534013439;38.1715970384062
318.933151199262;38.0207084932993
318.954768385084;37.9439171963775
318.976385570907;37.9280086257914
318.99800275673;37.957918826941
319.019619942553;38.0261015437348
319.041237128376;38.1368060582194
319.062854314199;38.2971390680916
319.084471500022;38.4990883380791
319.106088685845;38.7264433199364
319.127705871668;38.9756018263865
319.149323057491;39.2406942544056
319.170940243314;39.5136002065343
319.192557429137;39.7964305358495
319.21417461496;40.0943010816374
319.235791800782;40.4126440304797
319.257408986605;40.7436425966774
319.279026172428;41.0759314139972
319.300643358251;41.4050947375538
319.322260544074;41.7308915950725
319.343877729897;42.0464068070456
319.36549491572;42.3348429195303
319.387112101543;42.5963236389805
319.408729287366;42.8300636307969
319.430346473189;43.0330294271691
319.451963659012;43.2152044113724
319.473580844835;43.3905545887106
319.495198030657;43.5567002973055
319.51681521648;43.7045016909071
319.538432402303;43.8435359869753
319.560049588126;43.9871255026794
319.581666773949;44.1406469430609
319.603283959772;44.2990840762755
319.624901145595;44.4609325609721
319.646518331418;44.6327184425258
319.668135517241;44.8246045516415
319.689752703064;45.0444345342795
319.711369888887;45.2922819911534
319.73298707471;45.552443405176
319.754604260533;45.810465990762
319.776221446355;46.0729499683261
319.797838632178;46.3507158270484
319.819455818001;46.6474142652295
319.841073003824;46.9593111249028
319.862690189647;47.2649432892747
319.88430737547;47.5518969630342
319.905924561293;47.8225035479179
319.927541747116;48.0641632299192
319.949158932939;48.2629610995187
319.970776118762;48.4167702729041
319.992393304585;48.5278230744966
320.014010490408;48.5929133918263
320.03562767623;48.5986917063998
320.057244862053;48.5468146528631
320.078862047876;48.4551858536393
320.100479233699;48.3418570379503
320.122096419522;48.2097197258949
320.143713605345;48.0667287997489
320.165330791168;47.9254542447211
320.186947976991;47.7962837855145
320.208565162814;47.687296331797
320.230182348637;47.6078619216766
320.25179953446;47.567635830196
320.273416720283;47.5672008101832
320.295033906106;47.6117706201685
320.316651091928;47.707471770985
320.338268277751;47.8635738896762
320.359885463574;48.0783819799453
320.381502649397;48.3307357963123
320.40311983522;48.6020170253045
320.424737021043;48.8938447954847
320.446354206866;49.2054047509601
320.467971392689;49.5107559293888
320.489588578512;49.7820027171499
320.511205764335;50.017048635886
320.532822950158;50.2188561895916
320.554440135981;50.3737558856043
320.576057321803;50.458092555296
320.597674507626;50.4672991521287
320.619291693449;50.4075007942225
320.640908879272;50.2899242276305
320.662526065095;50.1268129941782
320.684143250918;49.9396158952512
320.705760436741;49.747839965378
320.727377622564;49.5652503232292
320.748994808387;49.40044941616
320.77061199421;49.262238630857
320.792229180033;49.1660434846965
320.813846365856;49.1180914531632
320.835463551679;49.1097395095351
320.857080737501;49.1395531107543
320.878697923324;49.213393660429
320.900315109147;49.3317393228103
320.92193229497;49.4775536443611
320.943549480793;49.6260489763763
320.965166666616;49.7784450715862
320.986783852439;49.9455707062258
321.008401038262;50.1310016753685
321.030018224085;50.3239666088914
321.051635409908;50.51580427124
321.073252595731;50.7070201107949
321.094869781554;50.9040665584598
321.116486967376;51.1162098672601
321.138104153199;51.3326497356306
321.159721339022;51.5341188872527
321.181338524845;51.7260123756312
321.202955710668;51.9152229730343
321.224572896491;52.0932650895916
321.246190082314;52.2454141361399
321.267807268137;52.3538231868523
321.28942445396;52.3954169824367
321.311041639783;52.3553754520075
321.332658825606;52.2289339217233
321.354276011429;52.0086019924398
321.375893197252;51.6980569031993
321.397510383074;51.3008047213023
321.419127568897;50.8062735120847
321.44074475472;50.1992349286879
321.462361940543;49.5041808424281
321.483979126366;48.7705647357546
321.505596312189;48.0382334289491
321.527213498012;47.3271939914208
321.548830683835;46.6438274374514
321.570447869658;46.0051531065408
321.592065055481;45.4315980273505
321.613682241304;44.9339695497968
321.635299427127;44.5161733824727
321.656916612949;44.1777356842721
321.678533798772;43.9175432514657
321.700150984595;43.7382965447041
321.721768170418;43.6464956118397
321.743385356241;43.6352352302637
321.765002542064;43.7000285048518
321.786619727887;43.8108935312272
321.80823691371;43.9437026412618
321.829854099533;44.0834990815729
321.851471285356;44.2147878585193
321.873088471179;44.3286864987993
321.894705657002;44.4206724761211
321.916322842825;44.4809874146354
321.937940028647;44.4954246469105
321.95955721447;44.4494659826373
321.981174400293;44.3383438188556
322.002791586116;44.1666112532788
322.024408771939;43.9384247243895
322.046025957762;43.6641423465594
322.067643143585;43.3537640345563
322.089260329408;43.0190146266395
322.110877515231;42.6693484627316
322.132494701054;42.3118606571061
322.154111886877;41.962812701737
322.1757290727;41.6459750459016
322.197346258522;41.3686566772921
322.218963444345;41.1402842863021
322.240580630168;40.9744004994654
322.262197815991;40.8739269465128
322.283815001814;40.8268810464259
322.305432187637;40.829084204229
322.32704937346;40.8800622189432
322.348666559283;40.9790241733367
322.370283745106;41.1192341818471
322.391900930929;41.2838078110976
322.413518116752;41.4485941282567
322.435135302575;41.596619147238
322.456752488398;41.723714151602
322.47836967422;41.8308033365084
322.499986860043;41.9215867921
322.521604045866;41.9820445582159
322.543221231689;41.9979947400701
322.564838417512;41.9710355567786
322.586455603335;41.9018398604625
322.608072789158;41.7885458254971
322.629689974981;41.6358875035886
322.651307160804;41.452235826315
322.672924346627;41.2528101144629
322.69454153245;41.0527476984061
322.716158718273;40.8559553946624
322.737775904095;40.6611958951963
322.759393089918;40.470967232484
322.781010275741;40.2946032673451
322.802627461564;40.1410311218382
322.824244647387;40.0175585204669
322.84586183321;39.9324891086924
322.867479019033;39.9012945685029
322.889096204856;39.9277415447422
322.910713390679;39.9940737480814
322.932330576502;40.0970336016488
322.953947762325;40.2371262805128
322.975564948148;40.4108594822947
322.997182133971;40.601652866581
323.018799319793;40.7908666981456
323.040416505616;40.9709477208733
323.062033691439;41.1377531967496
323.083650877262;41.2795991155934
323.105268063085;41.3793270788129
323.126885248908;41.4275049617267
323.148502434731;41.4115399269769
323.170119620554;41.3232325291462
323.191736806377;41.1668908458776
323.2133539922;40.9453349810606
323.234971178023;40.6558746680906
323.256588363846;40.3031875817832
323.278205549668;39.8962509031114
323.299822735491;39.4503902594732
323.321439921314;38.9872604816167
323.343057107137;38.5146370315522
323.36467429296;38.038403624271
323.386291478783;37.563918020504
323.407908664606;37.0936621514654
323.429525850429;36.6453475939804
323.451143036252;36.2433107781152
323.472760222075;35.8818090326296
323.494377407898;35.5397904755423
323.515994593721;35.2151263573697
323.537611779544;34.9262499743809
323.559228965366;34.6762147648564
323.580846151189;34.4577541239034
323.602463337012;34.266769895101
323.624080522835;34.1041218819748
323.645697708658;33.9684672951975
323.667314894481;33.8546323351411
323.688932080304;33.7480387980766
323.710549266127;33.6410385605971
323.73216645195;33.5399567173645
323.753783637773;33.4557088756273
323.775400823596;33.3881313258969
323.797018009419;33.3329803193232
323.818635195241;33.3009209147967
323.840252381064;33.2991109604917
323.861869566887;33.3180479549231
323.88348675271;33.3535042519894
323.905103938533;33.3972791554373
323.926721124356;33.457821686988
323.948338310179;33.5413974195222
323.969955496002;33.643014739787
323.991572681825;33.7627892401586
324.013189867648;33.9041716582315
324.034807053471;34.0743220756242
324.056424239294;34.2485371333832
324.078041425117;34.4180895580762
324.099658610939;34.5946629172526
324.121275796762;34.7826087699366
324.142892982585;34.9800023934727
324.164510168408;35.1867391345565
324.186127354231;35.3901595142946
324.207744540054;35.5766673239281
324.229361725877;35.7507522021542
324.2509789117;35.9126750854417
324.272596097523;36.0541668893462
324.294213283346;36.1694252725281
324.315830469169;36.2599135044809
324.337447654992;36.3218772697255
324.359064840814;36.3424661108381
324.380682026637;36.3241715221385
324.40229921246;36.2800615533475
324.423916398283;36.2140198412554
324.445533584106;36.1281590565087
324.467150769929;36.0279379912922
324.488767955752;35.9242420453362
324.510385141575;35.8273926519089
324.532002327398;35.7439858559082
324.553619513221;35.6794430622522
324.575236699044;35.6396072982332
324.596853884867;35.6277378232571
324.61847107069;35.6505271199444
324.640088256512;35.7132687810124
324.661705442335;35.8244405807824
324.683322628158;35.9765998541722
324.704939813981;36.1625477338448
324.726556999804;36.3836573426985
324.748174185627;36.6489315550746
324.76979137145;36.9714800389483
324.791408557273;37.346110897202
