Name;BF_ESR_01_7202s_Z_gon_20dg_result

Recipe
Accumulations;5;Number of accumulations
RetryCount;0;Number of retries on error
AbortOnError;True;Abort on error
EnableQFactorMeasurement;False;Enable/Disable q-Factor measurement
Bfrom;313;B from
Bto;363;B to
SweepTime;60;Sweep time
Modulation;0.2;Modulation
ModulationFreq;100;Modulation
BHoldEnabled;False;B hold enabled
BHold;0;B hold
MicrowavePower;2;Microwave power
MarkerEnabled;False;
MarkerStartField;0;
MarkerEndField;0;
Mode;;
KineticGFact;0;
KineticTotalTransientTime;0;
KineticTimeResolution;0;
TempFrom;5;
TempUseSlope;False;
TempTo;5;
TempdT;1;
TempSetupTime;0;
GonFrom;0;
GonTo;180;
GonSteps;20;
XRayEnabled;False;
XRayTime;3;
XRayVoltage;40;
XRayCurrent;0.5;
UVEnabled;False;
UVIntensity;0;
UVTime;0;
UVLeadTime;0;
UVWavelength;0;
PowSweepFrom;1;
PowSweepTo;5;
PowSweepSteps;5;
AmpModSweepFrom;0;
AmpModSweepTo;1;
AmpModSweepSteps;10;
ExtTriggerEnabled;False;
ExtTrigLeadTime;0;
ExtTrigOnTime;5;

Meas
BField [mT];MW_Absorption []
313.010895767212;130.311451191559
313.03250317986;130.183904029146
313.054110592509;130.057766879002
313.075718005157;129.913031069919
313.097325417806;129.738244429282
313.118932830454;129.537365930013
313.140540243103;129.326014901972
313.162147655751;129.105558576981
313.1837550684;128.871678627751
313.205362481048;128.629894786632
313.226969893696;128.391102499949
313.248577306345;128.164143784704
313.270184718993;127.954698012923
313.291792131642;127.764054647684
313.31339954429;127.590138473433
313.335006956939;127.427652027072
313.356614369587;127.277949799091
313.378221782236;127.148350206022
313.399829194884;127.038700867312
313.421436607532;126.931060939424
313.443044020181;126.807472680808
313.464651432829;126.654599483901
313.486258845478;126.460111287228
313.507866258126;126.216954380579
313.529473670775;125.936915455777
313.551081083423;125.629952256019
313.572688496072;125.289252575478
313.59429590872;124.915851665771
313.615903321368;124.505801129342
313.637510734017;124.067925376538
313.659118146665;123.633837381446
313.680725559314;123.223031254209
313.702332971962;122.842843591599
313.723940384611;122.506423427069
313.745547797259;122.22065322942
313.767155209908;121.989437179295
313.788762622556;121.815842097156
313.810370035205;121.702975403635
313.831977447853;121.664591295813
313.853584860501;121.725012941108
313.87519227315;121.867499587901
313.896799685798;122.059947405328
313.918407098447;122.295436298935
313.940014511095;122.572062175201
313.961621923744;122.874975909613
313.983229336392;123.181377452631
314.004836749041;123.469219263696
314.026444161689;123.721934426556
314.048051574337;123.936309123016
314.069658986986;124.107023374307
314.091266399634;124.205189835209
314.112873812283;124.222010132468
314.134481224931;124.170896943567
314.15608863758;124.06218266394
314.177696050228;123.894085510094
314.199303462877;123.660475988019
314.220910875525;123.367413517183
314.242518288173;123.036119576899
314.264125700822;122.685812078064
314.28573311347;122.316720018846
314.307340526119;121.918328923371
314.328947938767;121.489206887476
314.350555351416;121.02739059191
314.372162764064;120.528463938765
314.393770176713;120.005450483633
314.415377589361;119.472050817007
314.43698500201;118.922739326601
314.458592414658;118.354572560802
314.480199827306;117.805801547816
314.501807239955;117.277253213221
314.523414652603;116.730398678567
314.545022065252;116.162201047484
314.5666294779;115.612108872025
314.588236890549;115.122464751446
314.609844303197;114.696472519958
314.631451715846;114.322797974802
314.653059128494;114.010635144264
314.674666541142;113.760218747954
314.696273953791;113.557088397662
314.717881366439;113.395115248183
314.739488779088;113.27198423918
314.761096191736;113.184173535122
314.782703604385;113.12696781805
314.804311017033;113.094101754874
314.825918429682;113.084565653807
314.84752584233;113.098506900435
314.869133254979;113.121233110705
314.890740667627;113.134857028729
314.912348080275;113.129289612981
314.933955492924;113.102238354373
314.955562905572;113.050747448885
314.977170318221;112.963874451736
314.998777730869;112.828312377173
315.020385143518;112.640518599404
315.041992556166;112.408615555844
315.063599968815;112.142451212417
315.085207381463;111.85127622461
315.106814794111;111.553082635062
315.12842220676;111.259766721837
315.150029619408;110.969249966514
315.171637032057;110.682008608112
315.193244444705;110.417687728802
315.214851857354;110.187649496745
315.236459270002;109.982395599158
315.258066682651;109.789422109788
315.279674095299;109.600109558615
315.301281507947;109.401092562828
315.322888920596;109.17355583961
315.344496333244;108.905514641323
315.366103745893;108.604637042895
315.387711158541;108.271545831509
315.40931857119;107.890693684806
315.430925983838;107.453676666649
315.452533396487;106.965922032589
315.474140809135;106.435431057451
315.495748221784;105.866758941849
315.517355634432;105.280350438959
315.53896304708;104.699067928667
315.560570459729;104.141936096003
315.582177872377;103.609507953943
315.603785285026;103.104835307426
315.625392697674;102.637172421846
315.647000110323;102.221508908998
315.668607522971;101.860523964619
315.69021493562;101.539621721414
315.711822348268;101.261785242005
315.733429760916;101.031779398807
315.755037173565;100.848517535581
315.776644586213;100.71375285528
315.798251998862;100.627143370432
315.81985941151;100.580872706092
315.841466824159;100.560358625349
315.863074236807;100.562504555136
315.884681649456;100.59031935442
315.906289062104;100.637345615382
315.927896474752;100.688347413068
315.949503887401;100.733340227587
315.971111300049;100.768575273738
315.992718712698;100.79060797815
316.014326125346;100.791030234077
316.035933537995;100.763565781168
316.057540950643;100.703790515299
316.079148363292;100.596557850125
316.10075577594;100.427178957299
316.122363188589;100.194532059033
316.143970601237;99.9052506866537
316.165578013885;99.5614896338284
316.187185426534;99.1609214764954
316.208792839182;98.706101866842
316.230400251831;98.213369221109
316.252007664479;97.6938504463328
316.273615077128;97.1466457253509
316.295222489776;96.5854155425911
316.316829902425;96.0411809828569
316.338437315073;95.5303268955284
316.360044727721;95.0488213622225
316.38165214037;94.5876464837714
316.403259553018;94.1498384614352
316.424866965667;93.7385124422499
316.446474378315;93.3487871449265
316.468081790964;92.969859300107
316.489689203612;92.60339885791
316.511296616261;92.2621517036711
316.532904028909;91.9522244548324
316.554511441558;91.6664029157883
316.576118854206;91.3947069308254
316.597726266854;91.1463544247669
316.619333679503;90.9234930991583
316.640941092151;90.7207589832107
316.6625485048;90.5395039020852
316.684155917448;90.3873368836513
316.705763330097;90.2550546874824
316.727370742745;90.1329502431075
316.748978155394;90.017684810004
316.770585568042;89.9077922226204
316.79219298069;89.7941305518226
316.813800393339;89.6565053373606
316.835407805987;89.4819310597294
316.857015218636;89.2851653487472
316.878622631284;89.07497104892
316.900230043933;88.8546794253093
316.921837456581;88.6324887447089
316.94344486923;88.4165257211877
316.965052281878;88.2025497649275
316.986659694526;87.9890420625756
317.008267107175;87.7822806134648
317.029874519823;87.5839256992123
317.051481932472;87.3960122443227
317.07308934512;87.2207581668404
317.094696757769;87.058569703085
317.116304170417;86.9099943184059
317.137911583066;86.7753952278268
317.159518995714;86.6466353075285
317.181126408363;86.5114308488188
317.202733821011;86.3687272026806
317.224341233659;86.2251901336064
317.245948646308;86.0888468798682
317.267556058956;85.9656632946826
317.289163471605;85.8511532550234
317.310770884253;85.7309226651163
317.332378296902;85.5993976639973
317.35398570955;85.4668707218378
317.375593122199;85.3510264612702
317.397200534847;85.2611071430577
317.418807947495;85.1932859016809
317.440415360144;85.1447331530518
317.462022772792;85.1125301895746
317.483630185441;85.0914940669214
317.505237598089;85.0761535662605
317.526845010738;85.0625685361443
317.548452423386;85.0429615763025
317.570059836035;85.0048716205479
317.591667248683;84.9423919495852
317.613274661331;84.8542401100423
317.63488207398;84.7401718257305
317.656489486628;84.5959093479362
317.678096899277;84.4139880521166
317.699704311925;84.1927413737556
317.721311724574;83.9570330422029
317.742919137222;83.7346030436443
317.764526549871;83.5242057609515
317.786133962519;83.3176391825389
317.807741375168;83.1123177039707
317.829348787816;82.9080584683503
317.850956200464;82.7039865109598
317.872563613113;82.4991473115284
317.894171025761;82.2984315366986
317.91577843841;82.1131796632092
317.937385851058;81.9477479481409
317.958993263707;81.7964426054514
317.980600676355;81.6554778281655
318.002208089004;81.5232858684147
318.023815501652;81.3971208409996
318.0454229143;81.2779421781175
318.067030326949;81.1632605265691
318.088637739597;81.0472200837867
318.110245152246;80.9263053485901
318.131852564894;80.7975767128266
318.153459977543;80.6523074284547
318.175067390191;80.4870280491957
318.19667480284;80.2926625111978
318.218282215488;80.0579781304255
318.239889628136;79.7775044208778
318.261497040785;79.4578377380267
318.283104453433;79.1127030317961
318.304711866082;78.7453173727194
318.32631927873;78.3480517949761
318.347926691379;77.926827019602
318.369534104027;77.497595122369
318.391141516676;77.0672531413518
318.412748929324;76.6255064719255
318.434356341972;76.1456196023608
318.455963754621;75.633178523901
318.477571167269;75.1235808674171
318.499178579918;74.6364371138602
318.520785992566;74.1576288359331
318.542393405215;73.6711713393995
318.564000817863;73.1885535975136
318.585608230512;72.7430506974528
318.60721564316;72.3412855959097
318.628823055809;71.9976967891709
318.650430468457;71.6970850762307
318.672037881105;71.4375579238077
318.693645293754;71.2367277369999
318.715252706402;71.1092734338548
318.736860119051;71.0499416043162
318.758467531699;71.0522132727279
318.780074944348;71.0951971255377
318.801682356996;71.1646618548638
318.823289769645;71.2557909443247
318.844897182293;71.3542283451812
318.866504594941;71.4461086093526
318.88811200759;71.5319961071259
318.909719420238;71.6159650808998
318.931326832887;71.6975082473532
318.952934245535;71.7714333994987
318.974541658184;71.8366120419573
318.996149070832;71.8853933657211
319.017756483481;71.9013835820006
319.039363896129;71.8745459190053
319.060971308777;71.811181083782
319.082578721426;71.7244098852134
319.104186134074;71.5887861686356
319.125793546723;71.3809156059016
319.147400959371;71.1103682644735
319.16900837202;70.795960774137
319.190615784668;70.4407753535281
319.212223197317;70.0286117059668
319.233830609965;69.5492060136907
319.255438022614;69.0367336334864
319.277045435262;68.5160362016553
319.29865284791;67.9950855186781
319.320260260559;67.4854797533119
319.341867673207;66.9891954105142
319.363475085856;66.4987012164753
319.385082498504;66.014265763198
319.406689911153;65.5422032481696
319.428297323801;65.0797913441933
319.44990473645;64.6218504883565
319.471512149098;64.1655656721123
319.493119561746;63.7095583889409
319.514726974395;63.2609034488822
319.536334387043;62.8359253548365
319.557941799692;62.4470001950913
319.57954921234;62.093303779036
319.601156624989;61.7733129244962
319.622764037637;61.4852340665755
319.644371450286;61.2266997557765
319.665978862934;61.000634862762
319.687586275583;60.8179188504464
319.709193688231;60.6902144147425
319.730801100879;60.6056256765799
319.752408513528;60.5458265794102
319.774015926176;60.5004685713045
319.795623338825;60.4635844624744
319.817230751473;60.440879645389
319.838838164122;60.4426246163699
319.86044557677;60.450481098615
319.882052989419;60.4499100940037
319.903660402067;60.438605662322
319.925267814715;60.4152904204075
319.946875227364;60.3801626529214
319.968482640012;60.3296511925426
319.990090052661;60.2524894886897
320.011697465309;60.1400339155901
320.033304877958;59.9865623581462
320.054912290606;59.7869357267779
320.076519703255;59.5337017179553
320.098127115903;59.2320005047621
320.119734528551;58.8973417128282
320.1413419412;58.5444935583896
320.162949353848;58.1893167471346
320.184556766497;57.838872590103
320.206164179145;57.4946038919693
320.227771591794;57.1655672980317
320.249379004442;56.8594199655898
320.270986417091;56.5751758439329
320.292593829739;56.3158656683005
320.314201242388;56.0843600360145
320.335808655036;55.8834144028405
320.357416067684;55.7109957805664
320.379023480333;55.5572632743954
320.400630892981;55.4094032476164
320.42223830563;55.2526802607429
320.443845718278;55.0790430000908
320.465453130927;54.8946376396985
320.487060543575;54.6946751144014
320.508667956224;54.4616168214121
320.530275368872;54.1946852900803
320.55188278152;53.9092397450437
320.573490194169;53.6058033741453
320.595097606817;53.2758281365301
320.616705019466;52.9299923924532
320.638312432114;52.5708728922094
320.659919844763;52.1940806084413
320.681527257411;51.8059558645905
320.70313467006;51.4174125032113
320.724742082708;51.0366591034985
320.746349495356;50.664329368148
320.767956908005;50.2900997558716
320.789564320653;49.9066033455944
320.811171733302;49.5391178812549
320.83277914595;49.2138794267454
320.854386558599;48.9231334388941
320.875993971247;48.6569251941643
320.897601383896;48.4200830086155
320.919208796544;48.2203619917403
320.940816209193;48.0502468183413
320.962423621841;47.896513531703
320.984031034489;47.7528445626238
321.005638447138;47.6202500617568
321.027245859786;47.501469513931
321.048853272435;47.392043647627
321.070460685083;47.2813385667903
321.092068097732;47.1542930921303
321.11367551038;47.0117523260791
321.135282923029;46.8533371352151
321.156890335677;46.6758945150034
321.178497748325;46.4751420731463
321.200105160974;46.250168854983
321.221712573622;46.0123625636303
321.243319986271;45.7710700569049
321.264927398919;45.5170714723803
321.286534811568;45.2421992255754
321.308142224216;44.9670237212816
321.329749636865;44.7090244053003
321.351357049513;44.4715726375732
321.372964462161;44.245006931019
321.39457187481;44.037936508759
321.416179287458;43.8505628794986
321.437786700107;43.6766425427182
321.459394112755;43.5148851221316
321.481001525404;43.3700217792301
321.502608938052;43.243012763577
321.524216350701;43.1340540508268
321.545823763349;43.0454388910097
321.567431175998;42.9715218786124
321.589038588646;42.9006527759399
321.610646001294;42.8336270859186
321.632253413943;42.7742196125083
321.653860826591;42.7185406683087
321.67546823924;42.6666542382417
321.697075651888;42.6214120630231
321.718683064537;42.5791698256865
321.740290477185;42.5334952305164
321.761897889834;42.4817264299351
321.783505302482;42.4198540328415
321.80511271513;42.3336541458094
321.826720127779;42.2080821570612
321.848327540427;42.0352084449499
321.869934953076;41.8199896027597
321.891542365724;41.5785753904319
321.913149778373;41.3138502173614
321.934757191021;41.0274715105682
321.95636460367;40.7335076020901
321.977972016318;40.4451502118449
321.999579428967;40.1761949015525
322.021186841615;39.9389384361035
322.042794254263;39.7347740581197
322.064401666912;39.577878768689
322.08600907956;39.4866707856187
322.107616492209;39.4543872858316
322.129223904857;39.4770256577814
322.150831317506;39.5502551326547
322.172438730154;39.6584071224955
322.194046142803;39.7844175052823
322.215653555451;39.9287444956365
322.237260968099;40.0698441329634
322.258868380748;40.1928940426743
322.280475793396;40.3131441689592
322.302083206045;40.4388822157226
322.323690618693;40.5606043012567
322.345298031342;40.6487099654237
322.36690544399;40.6868002848736
322.388512856639;40.6804483393343
322.410120269287;40.6430116876826
322.431727681935;40.5632601440389
322.453335094584;40.426681322484
322.474942507232;40.2450650442846
322.496549919881;40.0435867927137
322.518157332529;39.8183356898072
322.539764745178;39.5545189475582
322.561372157826;39.2460051402333
322.582979570475;38.9024531135667
322.604586983123;38.552728394502
322.626194395772;38.2162867245401
322.64780180842;37.8900582762237
322.669409221068;37.5711478233653
322.691016633717;37.2657368722454
322.712624046365;36.9746547679238
322.734231459014;36.6903368441247
322.755838871662;36.4114203158
322.777446284311;36.142828089446
322.799053696959;35.8704582412373
322.820661109608;35.5763275898392
322.842268522256;35.2594268396663
322.863875934904;34.9441346584817
322.885483347553;34.6425818023548
322.907090760201;34.3427613394056
322.92869817285;34.0452877670037
322.950305585498;33.764045281261
322.971912998147;33.5033432954375
322.993520410795;33.261754945638
323.015127823444;33.0444533349711
323.036735236092;32.850293171912
323.05834264874;32.6717859614788
323.079950061389;32.5044386152869
323.101557474037;32.3515506541846
323.123164886686;32.2157791275945
323.144772299334;32.1029747475221
323.166379711983;32.0134956057678
323.187987124631;31.9441834061354
323.20959453728;31.8956322771746
323.231201949928;31.8719424642563
323.252809362577;31.8665293982139
323.274416775225;31.8806282578297
323.296024187873;31.9255794206089
323.317631600522;32.0046964918013
323.33923901317;32.1199955307212
323.360846425819;32.2693785896205
323.382453838467;32.4400259975596
323.404061251116;32.6160961775587
323.425668663764;32.7915426188526
323.447276076413;32.9598667343706
323.468883489061;33.1040272479439
323.490490901709;33.2085508128287
323.512098314358;33.2652098072142
323.533705727006;33.2660425071076
323.555313139655;33.1990802978232
323.576920552303;33.0637318178995
323.598527964952;32.867143540898
323.6201353776;32.6101998054338
323.641742790249;32.3032228818543
323.663350202897;31.9561905924502
323.684957615546;31.5829715923604
323.706565028194;31.2080423427574
323.728172440842;30.8462691412322
323.749779853491;30.4990792838215
323.771387266139;30.1657069189126
323.792994678788;29.8472279112658
323.814602091436;29.5507280124065
323.836209504085;29.2817662615658
323.857816916733;29.0427053403101
323.879424329381;28.8346849118847
323.90103174203;28.6559554275544
323.922639154678;28.5005790889186
323.944246567327;28.3582210921698
323.965853979975;28.2183104938032
323.987461392624;28.066085731449
324.009068805272;27.8951331596694
324.030676217921;27.7186657995849
324.052283630569;27.5319936274946
324.073891043218;27.3122921080373
324.095498455866;27.0465784266885
324.117105868514;26.7438590746121
324.138713281163;26.4263402790799
324.160320693811;26.1077554581332
324.18192810646;25.7925153541726
324.203535519108;25.4716872127034
324.225142931757;25.1464628274693
324.246750344405;24.818592127228
324.268357757054;24.4956192205587
324.289965169702;24.1690973623442
324.31157258235;23.8409548985129
324.333179994999;23.5329205095733
324.354787407647;23.2443492824605
324.376394820296;22.9704717227798
324.398002232944;22.7153553728077
324.419609645593;22.4911042638143
324.441217058241;22.3051769077017
324.46282447089;22.1511396369241
324.484431883538;22.0155878610163
324.506039296187;21.8938687015641
324.527646708835;21.7952918379691
324.549254121483;21.7223860458893
324.570861534132;21.6714974678485
324.59246894678;21.6408474541065
324.614076359429;21.6211961631004
324.635683772077;21.6021791240028
324.657291184726;21.5852498355378
324.678898597374;21.5787337460611
324.700506010023;21.5811725375158
324.722113422671;21.5804941659265
324.743720835319;21.5631986989704
