Name;BF_ESR_01_7202s_y_gon_20dg_result

Recipe
Accumulations;5;Number of accumulations
RetryCount;0;Number of retries on error
AbortOnError;True;Abort on error
EnableQFactorMeasurement;False;Enable/Disable q-Factor measurement
Bfrom;313;B from
Bto;363;B to
SweepTime;60;Sweep time
Modulation;0.2;Modulation
ModulationFreq;100;Modulation
BHoldEnabled;False;B hold enabled
BHold;0;B hold
MicrowavePower;2;Microwave power
MarkerEnabled;False;
MarkerStartField;0;
MarkerEndField;0;
Mode;;
KineticGFact;0;
KineticTotalTransientTime;0;
KineticTimeResolution;0;
TempFrom;5;
TempUseSlope;False;
TempTo;5;
TempdT;1;
TempSetupTime;0;
GonFrom;0;
GonTo;180;
GonSteps;20;
XRayEnabled;False;
XRayTime;3;
XRayVoltage;40;
XRayCurrent;0.5;
UVEnabled;False;
UVIntensity;0;
UVTime;0;
UVLeadTime;0;
UVWavelength;0;
PowSweepFrom;1;
PowSweepTo;5;
PowSweepSteps;5;
AmpModSweepFrom;0;
AmpModSweepTo;1;
AmpModSweepSteps;10;
ExtTriggerEnabled;False;
ExtTrigLeadTime;0;
ExtTrigOnTime;5;

Meas
BField [mT];MW_Absorption []
313.030327072144;54.9271058187386
313.051931166137;54.4044568476915
313.073535260131;53.9029797147459
313.095139354125;53.4133227328701
313.116743448119;52.9357749149374
313.138347542113;52.4667733348637
313.159951636106;52.0176207402707
313.1815557301;51.5903589613333
313.203159824094;51.1642159403377
313.224763918088;50.7326689539156
313.246368012082;50.3227154476622
313.267972106076;49.9550953790873
313.289576200069;49.6392822422286
313.311180294063;49.3838109360473
313.332784388057;49.1853340886659
313.354388482051;49.0507026399211
313.375992576045;48.9843746424962
313.397596670039;48.9919048125612
313.419200764032;49.0717528974053
313.440804858026;49.2102431590154
313.46240895202;49.3897932613913
313.484013046014;49.5909539982583
313.505617140008;49.7971774071585
313.527221234002;49.9833414036327
313.548825327995;50.1227134766597
313.570429421989;50.2083236556323
313.592033515983;50.2440910816471
313.613637609977;50.2311740036461
313.635241703971;50.1770608113337
313.656845797964;50.0857710309495
313.678449891958;49.9713446425897
313.700053985952;49.8447684537091
313.721658079946;49.7098006245216
313.74326217394;49.5764622817208
313.764866267934;49.4695956393462
313.786470361927;49.3960369035627
313.808074455921;49.3595142692913
313.829678549915;49.358348786429
313.851282643909;49.3909183516534
313.872886737903;49.450878336558
313.894490831897;49.5217465067759
313.91609492589;49.5860909322074
313.937699019884;49.6277355659118
313.959303113878;49.6364784287375
313.980907207872;49.60679045471
314.002511301866;49.5315397580251
314.024115395859;49.4056286910496
314.045719489853;49.2287327143993
314.067323583847;49.0011506959755
314.088927677841;48.7327631298766
314.110531771835;48.4424890386685
314.132135865829;48.1298290973733
314.153739959822;47.7876516687198
314.175344053816;47.4275092696334
314.19694814781;47.0901105007107
314.218552241804;46.7806500480393
314.240156335798;46.4941262555821
314.261760429792;46.2157174572385
314.283364523785;45.9271961401492
314.304968617779;45.6416951741292
314.326572711773;45.3788097624446
314.348176805767;45.1339566953677
314.369780899761;44.8966782247589
314.391384993754;44.6655406669574
314.412989087748;44.442701828051
314.434593181742;44.2265562039207
314.456197275736;44.0167259870617
314.47780136973;43.8184319918442
314.499405463724;43.6428805788015
314.521009557717;43.502212206948
314.542613651711;43.392763201746
314.564217745705;43.3058035776831
314.585821839699;43.2369255359353
314.607425933693;43.1837578410092
314.629030027687;43.1408131552151
314.65063412168;43.1125094928424
314.672238215674;43.1110502291825
314.693842309668;43.1394295457198
314.715446403662;43.1909041125113
314.737050497656;43.2658635655042
314.758654591649;43.3666049921966
314.780258685643;43.4945934090486
314.801862779637;43.654186931558
314.823466873631;43.849584725597
314.845070967625;44.0744155272294
314.866675061619;44.3051750397798
314.888279155612;44.5258054554121
314.909883249606;44.7392149118789
314.9314873436;44.9363880446514
314.953091437594;45.1035731902713
314.974695531588;45.2304184213499
314.996299625582;45.3164721851268
315.017903719575;45.3647940149815
315.039507813569;45.3740529907228
315.061111907563;45.3413173906477
315.082716001557;45.2757921510443
315.104320095551;45.1977566397957
315.125924189544;45.1182288425577
315.147528283538;45.0412564159799
315.169132377532;44.9734789721008
315.190736471526;44.9182407099105
315.21234056552;44.8808222459117
315.233944659514;44.8617226162059
315.255548753507;44.8549361526735
315.277152847501;44.8558488175736
315.298756941495;44.8616510892453
315.320361035489;44.86577478672
315.341965129483;44.8598584417941
315.363569223477;44.8385103257515
315.38517331747;44.7921862684182
315.406777411464;44.7108578509612
315.428381505458;44.5988908300886
315.449985599452;44.4630772054671
315.471589693446;44.3089436005153
315.49319378744;44.1445724889786
315.514797881433;43.9749916876013
315.536401975427;43.801251542722
315.558006069421;43.6251122347241
315.579610163415;43.4549022645776
315.601214257409;43.3028359977712
315.622818351402;43.1719847847884
315.644422445396;43.0591340428688
315.66602653939;42.9589693102966
315.687630633384;42.8655470194257
315.709234727378;42.779984930408
315.730838821372;42.6949014602282
315.752442915365;42.5925110221236
315.774047009359;42.4690741453667
315.795651103353;42.336171046794
315.817255197347;42.2025336390281
315.838859291341;42.0696561602721
315.860463385334;41.93910924693
315.882067479328;41.8177447562188
315.903671573322;41.7048499474504
315.925275667316;41.5922939687928
315.94687976131;41.4814096000486
315.968483855304;41.381685335332
315.990087949297;41.2955120464593
316.011692043291;41.2164489578861
316.033296137285;41.1479058958349
316.054900231279;41.1026494776015
316.076504325273;41.0774519943791
316.098108419267;41.0677356046284
316.11971251326;41.0722841564519
316.141316607254;41.0890654865535
316.162920701248;41.1222806994226
316.184524795242;41.1812294225319
316.206128889236;41.2678605108758
316.227732983229;41.3781575022655
316.249337077223;41.5004508088527
316.270941171217;41.6242208395709
316.292545265211;41.7419202720228
316.314149359205;41.8455776606687
316.335753453199;41.9280752182611
316.357357547192;41.9806099625906
316.378961641186;41.9981850938169
316.40056573518;41.9844078816155
316.422169829174;41.939051339493
316.443773923168;41.8623051773246
316.465378017162;41.7569573928411
316.486982111155;41.6354429822848
316.508586205149;41.509335608756
316.530190299143;41.3906131504835
316.551794393137;41.2810379095136
316.573398487131;41.1731813170505
316.595002581125;41.066607648396
316.616606675118;40.9680397686521
316.638210769112;40.8792039794536
316.659814863106;40.7949149274229
316.6814189571;40.718294283733
316.703023051094;40.6516830204009
316.724627145087;40.5888207609397
316.746231239081;40.5164989357981
316.767835333075;40.4344343438145
316.789439427069;40.3491053669641
316.811043521063;40.2671112159363
316.832647615057;40.1949932798041
316.85425170905;40.1371554506415
316.875855803044;40.0997135928695
316.897459897038;40.0837007277485
316.919063991032;40.0855125559873
316.940668085026;40.1071270107293
316.96227217902;40.1592400384307
316.983876273013;40.2425573571521
317.005480367007;40.3500500844745
317.027084461001;40.481145952819
317.048688554995;40.6241241097459
317.070292648989;40.7678987480936
317.091896742982;40.8936039244868
317.113500836976;40.9794773237108
317.13510493097;41.0295936217928
317.156709024964;41.0473382339613
317.178313118958;41.0288221272861
317.199917212952;40.9627692388144
317.221521306945;40.8453130683418
317.243125400939;40.6806175645757
317.264729494933;40.4722236655158
317.286333588927;40.2114914927351
317.307937682921;39.9090855438923
317.329541776914;39.6005244853931
317.351145870908;39.3045376389788
317.372749964902;39.0295151757407
317.394354058896;38.7892013473347
317.41595815289;38.5972064544498
317.437562246884;38.4630689033042
317.459166340877;38.3887333174066
317.480770434871;38.3780032216012
317.502374528865;38.4401367852748
317.523978622859;38.5932256839745
317.545582716853;38.8126299585979
317.567186810847;39.067706665972
317.58879090484;39.3482036953484
317.610394998834;39.6573489727517
317.631999092828;39.9951597263742
317.653603186822;40.3534658112844
317.675207280816;40.7265508029752
317.69681137481;41.1108391426932
317.718415468803;41.4915569727623
317.740019562797;41.8498047835376
317.761623656791;42.1867263274072
317.783227750785;42.5142062271568
317.804831844779;42.8285968073567
317.826435938772;43.1148050718147
317.848040032766;43.3600777115737
317.86964412676;43.5602705160732
317.891248220754;43.7256926854425
317.912852314748;43.8694808959772
317.934456408742;43.9902515529041
317.956060502735;44.0774003754748
317.977664596729;44.1294350551764
317.999268690723;44.1538200919178
318.020872784717;44.1545983229375
318.042476878711;44.1331076970492
318.064080972705;44.092345395006
318.085685066698;44.0395399946766
318.107289160692;43.984611221418
318.128893254686;43.9277460804041
318.15049734868;43.8633105658554
318.172101442674;43.787705647171
318.193705536667;43.7014452319203
318.215309630661;43.6043819091388
318.236913724655;43.4935164647568
318.258517818649;43.3706659889577
318.280121912643;43.2345713049708
318.301726006637;43.0738306937037
318.32333010063;42.8851217404035
318.344934194624;42.7083484436654
318.366538288618;42.5595762219107
318.388142382612;42.4252621486946
318.409746476606;42.300297941053
318.4313505706;42.1853491457264
318.452954664593;42.0797787291381
318.474558758587;41.9821638722671
318.496162852581;41.8938045468563
318.517766946575;41.8144026442283
318.539371040569;41.7387591600672
318.560975134562;41.6658508810383
318.582579228556;41.6027307999419
318.60418332255;41.5504856674738
318.625787416544;41.4976154243376
318.647391510538;41.438314275093
318.668995604532;41.3780410674823
318.690599698525;41.3216707235951
318.712203792519;41.2686948511748
318.733807886513;41.2206138330709
318.755411980507;41.1885395945479
318.777016074501;41.1730570900545
318.798620168495;41.1643495894384
318.820224262488;41.1592585757494
318.841828356482;41.1564517030946
318.863432450476;41.1548354036025
318.88503654447;41.148811794871
318.906640638464;41.1310956169075
318.928244732457;41.0851082050387
318.949848826451;41.005815684946
318.971452920445;40.9111536317901
318.993057014439;40.8058094190258
319.014661108433;40.6882921476876
319.036265202427;40.558022363106
319.05786929642;40.409335687442
319.079473390414;40.2413903504083
319.101077484408;40.0818901711871
319.122681578402;39.9363717871931
319.144285672396;39.8061909505773
319.16588976639;39.6923146812818
319.187493860383;39.5890974090233
319.209097954377;39.49226052687
319.230702048371;39.4042167156653
319.252306142365;39.3354811184855
319.273910236359;39.2955462746729
319.295514330352;39.2929431614722
319.317118424346;39.3340333590702
319.33872251834;39.3989354895229
319.360326612334;39.4581088035252
319.381930706328;39.5192675818133
319.403534800322;39.6074841651626
319.425138894315;39.7196680759419
319.446742988309;39.8359225462511
319.468347082303;39.9476566018268
319.489951176297;40.0448441395914
319.511555270291;40.1203229703308
319.533159364285;40.1683023105022
319.554763458278;40.1853576379654
319.576367552272;40.1651592111476
319.597971646266;40.1041171706759
319.61957574026;40.000623364362
319.641179834254;39.8678028006353
319.662783928248;39.7153180344176
319.684388022241;39.5448122409862
319.705992116235;39.3678588805424
319.727596210229;39.2050048225869
319.749200304223;39.0760991214456
319.770804398217;38.994604198387
319.79240849221;38.9668376852932
319.814012586204;38.9953854106775
319.835616680198;39.0799539623419
319.857220774192;39.2180512065886
319.878824868186;39.4088840643457
319.90042896218;39.6425774062777
319.922033056173;39.9055860497761
319.943637150167;40.1680029395135
319.965241244161;40.4111417910564
319.986845338155;40.6233698000499
320.008449432149;40.7930653722356
320.030053526142;40.9071354059507
320.051657620136;40.9539702170598
320.07326171413;40.9340451397845
320.094865808124;40.8539242375552
320.116469902118;40.7194226414846
320.138073996112;40.5339711682713
320.159678090105;40.3047401817639
320.181282184099;40.0518247335506
320.202886278093;39.7972111256844
320.224490372087;39.5488842341416
320.246094466081;39.306816381183
320.267698560075;39.0729764449415
320.289302654068;38.8553716502639
320.310906748062;38.6696656214287
320.332510842056;38.5216215378823
320.35411493605;38.4111505974124
320.375719030044;38.3377205868756
320.397323124037;38.2994412701508
320.418927218031;38.2970748944911
320.440531312025;38.3331307956324
320.462135406019;38.4048589300429
320.483739500013;38.507661570815
320.505343594007;38.6445252789622
320.526947688;38.8179991630554
320.548551781994;39.0281247163185
320.570155875988;39.2623945207746
320.591759969982;39.498108790204
320.613364063976;39.7203618081226
320.63496815797;39.9323269562514
320.656572251963;40.1399559323833
320.678176345957;40.3371017920522
320.699780439951;40.5089815164963
320.721384533945;40.6481953698792
320.742988627939;40.7600481217031
320.764592721933;40.8450980753766
320.786196815926;40.8999088402474
320.80780090992;40.9226177821889
320.829405003914;40.9185666222303
320.851009097908;40.9036593871121
320.872613191902;40.8903276893373
320.894217285895;40.8784577119701
320.915821379889;40.8635756931717
320.937425473883;40.846938914043
320.959029567877;40.8329523695147
320.980633661871;40.8329781320474
321.002237755865;40.8542294867425
321.023841849858;40.8966997151853
321.045445943852;40.9617646885557
321.067050037846;41.0567948229969
321.08865413184;41.189501173012
321.110258225834;41.361765475669
321.131862319828;41.5656665271888
321.153466413821;41.7923766217026
321.175070507815;42.0439301176632
321.196674601809;42.3222017376241
321.218278695803;42.6131239847326
321.239882789797;42.8943090337171
321.26148688379;43.1591406049732
321.283090977784;43.4080724219816
321.304695071778;43.6282426859167
321.326299165772;43.8048262858782
321.347903259766;43.9356726639647
321.36950735376;44.0211010335936
321.391111447753;44.064777204994
321.412715541747;44.0699277623891
321.434319635741;44.0414653360858
321.455923729735;43.9863197417891
321.477527823729;43.9126573028645
321.499131917722;43.8288367561189
321.520736011716;43.7471215132589
321.54234010571;43.6772389084155
321.563944199704;43.62117410279
321.585548293698;43.5788557954526
321.607152387692;43.5508514595218
321.628756481685;43.5317590670698
321.650360575679;43.5160570857387
321.671964669673;43.5026564260532
321.693568763667;43.4928956318273
321.715172857661;43.4773911820896
321.736776951655;43.4491401753416
321.758381045648;43.4111733137914
321.779985139642;43.3636401289719
321.801589233636;43.3045807189796
321.82319332763;43.2335645355096
321.844797421624;43.1482606944671
321.866401515618;43.0470881642376
321.888005609611;42.9301989157319
321.909609703605;42.7986748042253
321.931213797599;42.648032876845
321.952817891593;42.4764229063239
321.974421985587;42.2843381760537
321.99602607958;42.0777593827816
322.017630173574;41.8530574721116
322.039234267568;41.6001158942897
322.060838361562;41.3133182919329
322.082442455556;41.0012723786752
322.10404654955;40.6854599086782
322.125650643543;40.3647613641674
322.147254737537;40.0260706895351
322.168858831531;39.6724451717583
322.190462925525;39.3141775781617
322.212067019519;38.9820304825686
322.233671113513;38.7025460449347
322.255275207506;38.4826185383415
322.2768793015;38.3281283680563
322.298483395494;38.2404052002819
322.320087489488;38.215506859649
322.341691583482;38.2544966691178
322.363295677475;38.3539784495464
322.384899771469;38.4976677567485
322.406503865463;38.6671830519787
322.428107959457;38.8543370136109
322.449712053451;39.0435909600663
322.471316147445;39.2093449392276
322.492920241438;39.3382844163081
322.514524335432;39.4355657202287
322.536128429426;39.5049436149136
322.55773252342;39.5392610175466
322.579336617414;39.531455632759
322.600940711408;39.4841428699691
322.622544805401;39.4129383355856
322.644148899395;39.3228472626061
322.665752993389;39.2182335105125
322.687357087383;39.1157018882546
322.708961181377;39.0257867125704
322.73056527537;38.9400419250739
322.752169369364;38.8494342123852
322.773773463358;38.7503639482597
322.795377557352;38.6526625793262
322.816981651346;38.5595086368813
322.83858574534;38.4523378287986
322.860189839333;38.3240597098744
322.881793933327;38.1721476645337
322.903398027321;37.9965539900032
322.925002121315;37.8074905187137
322.946606215309;37.6145742095285
322.968210309303;37.4174855589316
322.989814403296;37.2122896843854
323.01141849729;37.0004127224624
323.033022591284;36.7947153597683
323.054626685278;36.6079287051
323.076230779272;36.4424401240196
323.097834873265;36.2993868477699
323.119438967259;36.1777606506444
323.141043061253;36.0791326674533
323.162647155247;36.0280715483953
323.184251249241;36.0342069468235
323.205855343235;36.0896914862076
323.227459437228;36.1852425020301
323.249063531222;36.3108987256556
323.270667625216;36.4641758506814
323.29227171921;36.6412546508998
323.313875813204;36.8297942774372
323.335479907198;37.0166511159103
323.357084001191;37.1949640823229
323.378688095185;37.3603634312683
323.400292189179;37.5007554655289
323.421896283173;37.6053295091739
323.443500377167;37.679326803699
323.46510447116;37.7319097310709
323.486708565154;37.765597018959
323.508312659148;37.7910468070184
323.529916753142;37.8182063934987
323.551520847136;37.8478549484053
323.57312494113;37.879498231585
323.594729035123;37.9123988481155
323.616333129117;37.9441321169661
323.637937223111;37.9724694138597
323.659541317105;37.9941875530477
323.681145411099;38.0043473406298
323.702749505093;37.9972193152355
323.724353599086;37.9684637782967
323.74595769308;37.9124127470802
323.767561787074;37.8262533891842
323.789165881068;37.7118451240634
323.810769975062;37.574498734902
323.832374069056;37.4162590898147
323.853978163049;37.2349557434072
323.875582257043;37.0294604804625
323.897186351037;36.8127389206649
323.918790445031;36.5927780701235
323.940394539025;36.3690177872329
323.961998633018;36.1553548825998
323.983602727012;35.9593189013322
324.005206821006;35.7845970867745
324.026810915;35.6364403842247
324.048415008994;35.5172251335975
324.070019102988;35.441221074844
324.091623196981;35.4218624258839
324.113227290975;35.4623993202335
324.134831384969;35.5670729489977
324.156435478963;35.7323946642646
324.178039572957;35.9364612060764
324.19964366695;36.1552067918615
324.221247760944;36.369908363567
324.242851854938;36.5707370119557
324.264455948932;36.7528647997741
324.286060042926;36.9076886481253
324.30766413692;37.0232550294695
324.329268230913;37.081736581228
324.350872324907;37.0659152325254
324.372476418901;36.9829894669495
324.394080512895;36.8383918929514
324.415684606889;36.6431251862763
324.437288700883;36.4115769099349
324.458892794876;36.1593729366847
324.48049688887;35.8975424622957
324.502100982864;35.6294422421917
324.523705076858;35.3603187483019
324.545309170852;35.1110318546957
324.566913264845;34.9067548002711
324.588517358839;34.7637104443271
324.610121452833;34.6734068576258
324.631725546827;34.6237250973954
324.653329640821;34.613392131241
324.674933734815;34.645538716227
324.696537828808;34.7146240823934
324.718141922802;34.8031208990627
324.739746016796;34.8998084235366
324.76135011079;35.0016892303275
324.782954204784;35.1079987040175
