Name;BF_ESR_01_7202s_Z_gon_40dg_result

Recipe
Accumulations;5;Number of accumulations
RetryCount;0;Number of retries on error
AbortOnError;True;Abort on error
EnableQFactorMeasurement;False;Enable/Disable q-Factor measurement
Bfrom;313;B from
Bto;363;B to
SweepTime;60;Sweep time
Modulation;0.2;Modulation
ModulationFreq;100;Modulation
BHoldEnabled;False;B hold enabled
BHold;0;B hold
MicrowavePower;2;Microwave power
MarkerEnabled;False;
MarkerStartField;0;
MarkerEndField;0;
Mode;;
KineticGFact;0;
KineticTotalTransientTime;0;
KineticTimeResolution;0;
TempFrom;5;
TempUseSlope;False;
TempTo;5;
TempdT;1;
TempSetupTime;0;
GonFrom;0;
GonTo;180;
GonSteps;20;
XRayEnabled;False;
XRayTime;3;
XRayVoltage;40;
XRayCurrent;0.5;
UVEnabled;False;
UVIntensity;0;
UVTime;0;
UVLeadTime;0;
UVWavelength;0;
PowSweepFrom;1;
PowSweepTo;5;
PowSweepSteps;5;
AmpModSweepFrom;0;
AmpModSweepTo;1;
AmpModSweepSteps;10;
ExtTriggerEnabled;False;
ExtTrigLeadTime;0;
ExtTrigOnTime;5;

Meas
BField [mT];MW_Absorption []
313.022424850464;86.9089743963607
313.044034803186;86.8795342146861
313.065644755908;86.891635078263
313.08725470863;86.942069555146
313.108864661352;87.0187087517408
313.130474614074;87.1111399866915
313.152084566796;87.2177493921356
313.173694519518;87.3374747529818
313.19530447224;87.4595398217125
313.216914424962;87.5730509049358
313.238524377684;87.6707155398779
313.260134330406;87.737711959063
313.281744283128;87.7687224891579
313.30335423585;87.7601361607473
313.324964188572;87.7168469885837
313.346574141294;87.6483992716369
313.368184094017;87.5566710791303
313.389794046739;87.444037073367
313.411403999461;87.3093332593519
313.433013952183;87.1620764702343
313.454623904905;87.0230289652329
313.476233857627;86.896987374452
313.497843810349;86.7808278820324
313.519453763071;86.6718727202399
313.541063715793;86.5695211634881
313.562673668515;86.4715675549034
313.584283621237;86.3776189677786
313.605893573959;86.2881188765592
313.627503526681;86.2019518287122
313.649113479403;86.1160981388674
313.670723432125;86.0240864585615
313.692333384847;85.9158624403546
313.713943337569;85.7891788678104
313.735553290291;85.6490031743229
313.757163243013;85.5058482257412
313.778773195735;85.3550613286543
313.800383148457;85.1847892832904
313.821993101179;85.0046972085659
313.843603053901;84.8338041367502
313.865213006623;84.6782216954974
313.886822959345;84.5419889572663
313.908432912068;84.4349973840329
313.93004286479;84.363925898466
313.951652817512;84.3359030097568
313.973262770234;84.3628249696644
313.994872722956;84.4407815753611
314.016482675678;84.5690686045872
314.0380926284;84.7352657493687
314.059702581122;84.9383975513255
314.081312533844;85.155163232573
314.102922486566;85.3578154319201
314.124532439288;85.540901686449
314.14614239201;85.7064287825025
314.167752344732;85.8547156522708
314.189362297454;85.9744941690751
314.210972250176;86.0502185265316
314.232582202898;86.065030781388
314.25419215562;86.0200633117939
314.275802108342;85.9321195158108
314.297412061064;85.8141833316933
314.319022013786;85.6728917673231
314.340631966508;85.5148132498959
314.36224191923;85.3495092621096
314.383851871952;85.1942283164809
314.405461824674;85.0620385851324
314.427071777397;84.952064334007
314.448681730119;84.8679548306461
314.470291682841;84.8201956031723
314.491901635563;84.8018734612207
314.513511588285;84.8003906700987
314.535121541007;84.8072919140474
314.556731493729;84.8133174289781
314.578341446451;84.8125761332894
314.599951399173;84.8027670952228
314.621561351895;84.7858605032733
314.643171304617;84.7690214792968
314.664781257339;84.7521236565165
314.686391210061;84.729747534664
314.708001162783;84.6962763837169
314.729611115505;84.6612996078915
314.751221068227;84.6273274407905
314.772831020949;84.5909328360434
314.794440973671;84.5717628133746
314.816050926393;84.583343033993
314.837660879115;84.6123460217995
314.859270831837;84.6407497337475
314.880880784559;84.667234314702
314.902490737281;84.696815179951
314.924100690003;84.7257452422393
314.945710642725;84.7485143889974
314.967320595448;84.7682514133178
314.98893054817;84.7954220385171
315.010540500892;84.8276661384814
315.032150453614;84.8586142187186
315.053760406336;84.9035879621909
315.075370359058;84.9819515724557
315.09698031178;85.0983799960472
315.118590264502;85.2479516486687
315.140200217224;85.428255727012
315.161810169946;85.6392396348099
315.183420122668;85.8749970409599
315.20503007539;86.1257788896435
315.226640028112;86.3767053699417
315.248249980834;86.610927300877
315.269859933556;86.8171529993015
315.291469886278;86.9838159371878
315.313079839;87.1004616036058
315.334689791722;87.159339613058
315.356299744444;87.1574661733845
315.377909697166;87.0911311106048
315.399519649888;86.9759026587139
315.42112960261;86.8324551003929
315.442739555332;86.6736642105081
315.464349508055;86.5073539498718
315.485959460777;86.3473021666829
315.507569413499;86.2041494976841
315.529179366221;86.0745908395055
315.550789318943;85.9530551040759
315.572399271665;85.8478753818445
315.594009224387;85.7566077481135
315.615619177109;85.6643983360581
315.637229129831;85.5597286782769
315.658839082553;85.441979988097
315.680449035275;85.3135020064444
315.702058987997;85.1680689182466
315.723668940719;84.9967465339095
315.745278893441;84.7904994061593
315.766888846163;84.5448871054738
315.788498798885;84.2717339506203
315.810108751607;83.9947163981307
315.831718704329;83.7280726453177
315.853328657051;83.4643252669089
315.874938609773;83.1936123952559
315.896548562495;82.9035288273594
315.918158515217;82.5961686601222
315.939768467939;82.2778953325343
315.961378420661;81.9700848776708
315.982988373383;81.6663786658549
316.004598326106;81.3527437350816
316.026208278828;81.0267437244717
316.04781823155;80.6903527200627
316.069428184272;80.3488663540096
316.091038136994;80.0201108321991
316.112648089716;79.7122056920355
316.134258042438;79.4179545944855
316.15586799516;79.1446263394938
316.177477947882;78.901399637932
316.199087900604;78.7039204254476
316.220697853326;78.5461035117535
316.242307806048;78.4226838131933
316.26391775877;78.3262968167107
316.285527711492;78.2486833411942
316.307137664214;78.1739169556062
316.328747616936;78.0929964777547
316.350357569658;78.0084083352077
316.37196752238;77.9238249761985
316.393577475102;77.8361504772039
316.415187427824;77.7402640620889
316.436797380546;77.642291009616
316.458407333268;77.560763922237
316.48001728599;77.5023498795298
316.501627238713;77.4625211230353
316.523237191435;77.4462031076924
316.544847144157;77.4621192625492
316.566457096879;77.5178505135338
316.588067049601;77.6249833700242
316.609677002323;77.7785513812188
316.631286955045;77.9633725013478
316.652896907767;78.1730285617499
316.674506860489;78.4091602353904
316.696116813211;78.6717659190737
316.717726765933;78.9555602476167
316.739336718655;79.2609606430819
316.760946671377;79.5936071705247
316.782556624099;79.9335973301791
316.804166576821;80.2639177763202
316.825776529543;80.5922868549982
316.847386482265;80.912522226399
316.868996434987;81.2075846086351
316.890606387709;81.4733769424359
316.912216340431;81.7179525080322
316.933826293153;81.9420481373942
316.955436245875;82.1343483609011
316.977046198597;82.2821838448068
316.998656151319;82.3910415164065
317.020266104041;82.4624768221881
317.041876056764;82.4960190496989
317.063486009486;82.4941486636992
317.085095962208;82.4591881756267
317.10670591493;82.3927373949362
317.128315867652;82.301467701996
317.149925820374;82.1927569974
317.171535773096;82.0726625614206
317.193145725818;81.9482845629142
317.21475567854;81.83310666365
317.236365631262;81.7352021738533
317.257975583984;81.6551778645803
317.279585536706;81.5940531227198
317.301195489428;81.5551486881388
317.32280544215;81.5394951566574
317.344415394872;81.5411369624957
317.366025347594;81.5500253293907
317.387635300316;81.5585581420264
317.409245253038;81.5581951066504
317.43085520576;81.5473024829247
317.452465158482;81.5290855776157
317.474075111204;81.4976294848805
317.495685063926;81.4373799220378
317.517295016648;81.3403600833937
317.53890496937;81.2130726692325
317.560514922093;81.0588659429661
317.582124874815;80.8772342352719
317.603734827537;80.6653515453124
317.625344780259;80.4319498337226
317.646954732981;80.1993870734306
317.668564685703;79.9635553484766
317.690174638425;79.7155376766148
317.711784591147;79.4630870776592
317.733394543869;79.2240514373098
317.755004496591;79.003400705515
317.776614449313;78.7908812092264
317.798224402035;78.5728351455897
317.819834354757;78.340967083676
317.841444307479;78.0967490596366
317.863054260201;77.8399484855325
317.884664212923;77.5668122585146
317.906274165645;77.2771458217477
317.927884118367;76.977259985826
317.949494071089;76.6638695188763
317.971104023811;76.3316080751885
317.992713976533;75.9763653534291
318.014323929255;75.5897826997161
318.035933881977;75.1664848076991
318.057543834699;74.7216228720591
318.079153787421;74.2767829337455
318.100763740144;73.8452029814519
318.122373692866;73.4246556470585
318.143983645588;73.0068110443161
318.16559359831;72.5940394028051
318.187203551032;72.2009181408951
318.208813503754;71.8415503462306
318.230423456476;71.5264250999072
318.252033409198;71.2606797826609
318.27364336192;71.044732241823
318.295253314642;70.8788942081242
318.316863267364;70.7568841466814
318.338473220086;70.6701017213764
318.360083172808;70.6094383543609
318.38169312553;70.5663805215532
318.403303078252;70.5362587837673
318.424913030974;70.5087486555803
318.446522983696;70.4725259963333
318.468132936418;70.4276744556525
318.48974288914;70.3839246009843
318.511352841862;70.3495365838737
318.532962794584;70.3244844753482
318.554572747306;70.3116800959306
318.576182700028;70.3187446189561
318.59779265275;70.3539753727426
318.619402605473;70.4225028591462
318.641012558195;70.5307811959097
318.662622510917;70.6741437465993
318.684232463639;70.8417792397308
318.705842416361;71.0257467009019
318.727452369083;71.2175712377473
318.749062321805;71.3997520294875
318.770672274527;71.5495649615592
318.792282227249;71.6519115853065
318.813892179971;71.7152184409965
318.835502132693;71.7523574113588
318.857112085415;71.7581788509203
318.878722038137;71.7286252744729
318.900331990859;71.6730300570463
318.921941943581;71.6014064662047
318.943551896303;71.5207609075773
318.965161849025;71.4376614182842
318.986771801747;71.3579667746039
319.008381754469;71.2887756288078
319.029991707191;71.2386909118544
319.051601659913;71.2113035242577
319.073211612635;71.2060793040725
319.094821565357;71.2215578087618
319.116431518079;71.2627893694727
319.138041470802;71.3327117159664
319.159651423524;71.4255925750561
319.181261376246;71.5337913463217
319.202871328968;71.6596912849743
319.22448128169;71.8149554095343
319.246091234412;71.9873807147591
319.267701187134;72.1574508534063
319.289311139856;72.3220271746277
319.310921092578;72.4819084410729
319.3325310453;72.6352394912844
319.354140998022;72.7803168456389
319.375750950744;72.9061651759637
319.397360903466;72.9859938448655
319.418970856188;73.0017933877229
319.44058080891;72.9426194667142
319.462190761632;72.8068965943296
319.483800714354;72.6022635732359
319.505410667076;72.3255429420642
319.527020619798;71.9491007857735
319.54863057252;71.4891604231749
319.570240525242;70.9697468059723
319.591850477964;70.3924687425124
319.613460430686;69.7555230795838
319.635070383408;69.0828365722159
319.65668033613;68.4273718538873
319.678290288853;67.8165315646998
319.699900241575;67.2385491172749
319.721510194297;66.683571098594
319.743120147019;66.1677879178914
319.764730099741;65.7188091023517
319.786340052463;65.3479970851628
319.807950005185;65.0647276523794
319.829559957907;64.8802951760822
319.851169910629;64.787528869972
319.872779863351;64.7836351123306
319.894389816073;64.8580089555519
319.915999768795;65.0019154228552
319.937609721517;65.2106982215583
319.959219674239;65.4806366378454
319.980829626961;65.8082312959754
320.002439579683;66.1781933639189
320.024049532405;66.5780333070911
320.045659485127;67.001952752921
320.067269437849;67.4262761643514
320.088879390571;67.8335921939935
320.110489343293;68.2357356156102
320.132099296015;68.6476383464481
320.153709248737;69.0634136767737
320.17531920146;69.4566544611474
320.196929154182;69.8232124928707
320.218539106904;70.1830447049404
320.240149059626;70.5506696771468
320.261759012348;70.9221630508064
320.28336896507;71.28590079411
320.304978917792;71.6435976759476
320.326588870514;71.9927079115176
320.348198823236;72.3359020369755
320.369808775958;72.6919584462672
320.39141872868;73.0623117060697
320.413028681402;73.414313516363
320.434638634124;73.7120626981253
320.456248586846;73.9386927406428
320.477858539568;74.0932593629754
320.49946849229;74.1812408417178
320.521078445012;74.1971906257293
320.542688397734;74.1323086798435
320.564298350456;73.9868339229932
320.585908303178;73.7782848312596
320.6075182559;73.501545162333
320.629128208622;73.1689245865239
320.650738161344;72.7881388519248
320.672348114066;72.3734816159119
320.693958066788;71.954262493747
320.715568019511;71.5563051136963
320.737177972233;71.1939168316609
320.758787924955;70.8666485964437
320.780397877677;70.5794569292493
320.802007830399;70.3469344327128
320.823617783121;70.1726080431254
320.845227735843;70.0554986863813
320.866837688565;69.9947394543748
320.888447641287;69.9843021530227
320.910057594009;70.0113581116171
320.931667546731;70.0589539849555
320.953277499453;70.1067514660449
320.974887452175;70.1373172039359
320.996497404897;70.1359300262573
321.018107357619;70.0840017634059
321.039717310341;69.9599504041744
321.061327263063;69.7565733407458
321.082937215785;69.4697599601262
321.104547168507;69.092605933637
321.126157121229;68.6292754487163
321.147767073951;68.1007191659978
321.169377026673;67.5359948217491
321.190986979395;66.9473780549133
321.212596932117;66.3163994181352
321.23420688484;65.6208443406633
321.255816837562;64.8766316136786
321.277426790284;64.1460356629582
321.299036743006;63.4721459666508
321.320646695728;62.8493037122321
321.34225664845;62.2641363071828
321.363866601172;61.7261075169351
321.385476553894;61.2488006868749
321.407086506616;60.8241541186596
321.428696459338;60.4493300596864
321.45030641206;60.1279082258233
321.471916364782;59.8662261438806
321.493526317504;59.6667023009318
321.515136270226;59.528209707274
321.536746222948;59.4483338180924
321.55835617567;59.4146867818087
321.579966128392;59.422389073848
321.601576081114;59.4706087390691
321.623186033836;59.5513728406126
321.644795986558;59.653643343873
321.66640593928;59.7651196153748
321.688015892002;59.8742621767655
321.709625844724;59.9715384121823
321.731235797446;60.0499118016044
321.752845750168;60.1066366281082
321.774455702891;60.1409709625344
321.796065655613;60.1503361652323
321.817675608335;60.1340733279847
321.839285561057;60.098289494618
321.860895513779;60.0604351739329
321.882505466501;60.0319518087329
321.904115419223;60.0141750430099
321.925725371945;60.0058845891293
321.947335324667;60.0083794837457
321.968945277389;60.0234197031526
321.990555230111;60.0514749013196
322.012165182833;60.0948056178616
322.033775135555;60.1515521492503
322.055385088277;60.2155424686347
322.076995040999;60.2748991227244
322.098604993721;60.3182085189816
322.120214946443;60.3376445394348
322.141824899165;60.3188968759271
322.163434851887;60.2526976619622
322.185044804609;60.1431884554544
322.206654757331;59.9922032331052
322.228264710053;59.7996253528059
322.249874662775;59.569609803539
322.271484615498;59.3088122564443
322.29309456822;59.0294532740003
322.314704520942;58.7439555050161
322.336314473664;58.4599121550393
322.357924426386;58.1919485304865
322.379534379108;57.9475090929947
322.40114433183;57.7290873574937
322.422754284552;57.5400486265041
322.444364237274;57.3830716736916
322.465974189996;57.2597628970386
322.487584142718;57.1685025336463
322.50919409544;57.1019453888135
322.530804048162;57.0514596265765
322.552414000884;57.0062577211679
322.574023953606;56.9517519660165
322.595633906328;56.8752624348177
322.61724385905;56.7806610474607
322.638853811772;56.6860176414314
322.660463764494;56.5875640759114
322.682073717216;56.479041371243
322.703683669938;56.358424671663
322.72529362266;56.2210818285632
322.746903575382;56.063357708768
322.768513528104;55.8934890173042
322.790123480826;55.7189954543214
322.811733433549;55.5395623628069
322.833343386271;55.364163776336
322.854953338993;55.2052890475742
322.876563291715;55.0605527022614
322.898173244437;54.9144916437108
322.919783197159;54.7623836008069
322.941393149881;54.6116686566378
322.963003102603;54.4626136626873
322.984613055325;54.3100943010209
323.006223008047;54.1595779421892
323.027832960769;54.0138829745189
323.049442913491;53.867079077222
323.071052866213;53.7123849237887
323.092662818935;53.5430787879959
323.114272771657;53.3597236072155
323.135882724379;53.1698541607684
323.157492677101;52.9732148596855
323.179102629823;52.7782621767597
323.200712582545;52.6028127211665
323.222322535267;52.4432200835226
323.243932487989;52.302371692961
323.265542440711;52.2001325048982
323.287152393433;52.1488589857661
323.308762346156;52.1477775162183
323.330372298878;52.2003560524448
323.3519822516;52.3137610647056
323.373592204322;52.4794729848959
323.395202157044;52.677498012365
323.416812109766;52.8898798307128
323.438422062488;53.1100442982899
323.46003201521;53.3364815340798
323.481641967932;53.5599709247916
323.503251920654;53.7723090795017
323.524861873376;53.9645346140678
323.546471826098;54.1233762873013
323.56808177882;54.2574443165307
323.589691731542;54.374825140084
323.611301684264;54.470984745002
323.632911636986;54.5481978677313
323.654521589708;54.6145819010948
323.67613154243;54.6704028674951
323.697741495152;54.7043788924421
323.719351447874;54.7300183971241
323.740961400596;54.7651521428719
323.762571353318;54.809204182367
323.78418130604;54.8488909052857
323.805791258762;54.872383164301
323.827401211484;54.874811244675
323.849011164207;54.8622593302476
323.870621116929;54.8357862554951
323.892231069651;54.7874703268247
323.913841022373;54.7137104015656
323.935450975095;54.6172396657353
323.957060927817;54.5016425932796
323.978670880539;54.3734809463756
324.000280833261;54.2449373457188
324.021890785983;54.1235676675321
324.043500738705;54.0097303678555
324.065110691427;53.9008207934078
324.086720644149;53.7970548212456
324.108330596871;53.6966156964179
324.129940549593;53.5928000594161
324.151550502315;53.4913927081598
324.173160455037;53.3939102187722
324.194770407759;53.2890901593528
324.216380360481;53.1686919022835
324.237990313203;53.0297228163229
324.259600265925;52.8688084793668
324.281210218647;52.6844190573061
324.302820171369;52.4841992461403
324.324430124091;52.2788876453003
324.346040076813;52.068540359137
324.367650029536;51.846709271173
324.389259982258;51.6109251191454
324.41086993498;51.3653840119023
324.432479887702;51.1151388349372
324.454089840424;50.866395734808
324.475699793146;50.6176170854803
324.497309745868;50.3632507904445
324.51891969859;50.1022593960714
324.540529651312;49.8308582866394
324.562139604034;49.5491937935382
324.583749556756;49.2615326912128
324.605359509478;48.9703590664816
324.6269694622;48.6677370043891
324.648579414922;48.3487042003991
324.670189367644;48.0139983864851
324.691799320366;47.6660988844799
324.713409273088;47.3069253942
324.73501922581;46.9310448865933
324.756629178532;46.5274338977771
324.778239131254;46.0813781666334
