Name;BF_ESR_01_900s_X_gon_180dg_result

Recipe
Accumulations;5;Number of accumulations
RetryCount;0;Number of retries on error
AbortOnError;True;Abort on error
EnableQFactorMeasurement;False;Enable/Disable q-Factor measurement
Bfrom;313;B from
Bto;363;B to
SweepTime;60;Sweep time
Modulation;0.2;Modulation
ModulationFreq;100;Modulation
BHoldEnabled;False;B hold enabled
BHold;0;B hold
MicrowavePower;2;Microwave power
MarkerEnabled;False;
MarkerStartField;0;
MarkerEndField;0;
Mode;;
KineticGFact;0;
KineticTotalTransientTime;0;
KineticTimeResolution;0;
TempFrom;5;
TempUseSlope;False;
TempTo;5;
TempdT;1;
TempSetupTime;0;
GonFrom;0;
GonTo;180;
GonSteps;20;
XRayEnabled;False;
XRayTime;3;
XRayVoltage;40;
XRayCurrent;0.5;
UVEnabled;False;
UVIntensity;0;
UVTime;0;
UVLeadTime;0;
UVWavelength;0;
PowSweepFrom;1;
PowSweepTo;5;
PowSweepSteps;5;
AmpModSweepFrom;0;
AmpModSweepTo;1;
AmpModSweepSteps;10;
ExtTriggerEnabled;False;
ExtTrigLeadTime;0;
ExtTrigOnTime;5;

Meas
BField [mT];MW_Absorption []
313.020563354492;119.253402265578
313.042180603404;119.270150376605
313.063797852315;119.31282406228
313.085415101227;119.379770923289
313.107032350138;119.459231683678
313.12864959905;119.551445703294
313.150266847961;119.669511675305
313.171884096873;119.818337258886
313.193501345784;119.9897622525
313.215118594696;120.168418738024
313.236735843607;120.355812032066
313.258353092519;120.5680007971
313.27997034143;120.805550086753
313.301587590342;121.041671739739
313.323204839253;121.264668905771
313.344822088165;121.474169943883
313.366439337076;121.669032150241
313.388056585988;121.845567776366
313.409673834899;122.006861029837
313.431291083811;122.154006636545
313.452908332722;122.280463163285
313.474525581634;122.384441115133
313.496142830545;122.475431692376
313.517760079457;122.566502992582
313.539377328368;122.664771369723
313.56099457728;122.770067268788
313.582611826191;122.881186225371
313.604229075103;122.995715055633
313.625846324014;123.112283260614
313.647463572926;123.231879213614
313.669080821837;123.356562070709
313.690698070749;123.488540288542
313.71231531966;123.623043338181
313.733932568572;123.761594198007
313.755549817483;123.877485340772
313.777167066395;123.953159582826
313.798784315307;123.99741346581
313.820401564218;124.022361766084
313.84201881313;124.036650549092
313.863636062041;124.046095126016
313.885253310953;124.048434776131
313.906870559864;124.033905025949
313.928487808776;124.025734494258
313.950105057687;124.03928009805
313.971722306599;124.07285314401
313.99333955551;124.133113976321
314.014956804422;124.228248485867
314.036574053333;124.351966524165
314.058191302245;124.496744085886
314.079808551156;124.656572711596
314.101425800068;124.825586490253
314.123043048979;124.996104275848
314.144660297891;125.159258360367
314.166277546802;125.305420164119
314.187894795714;125.427566340261
314.209512044625;125.524654899288
314.231129293537;125.599923267415
314.252746542448;125.648243245049
314.27436379136;125.670093038829
314.295981040271;125.673243934974
314.317598289183;125.658474427025
314.339215538094;125.621863154768
314.360832787006;125.564909499281
314.382450035917;125.496321078016
314.404067284829;125.417996711817
314.42568453374;125.331150774778
314.447301782652;125.240339315232
314.468919031563;125.14865172002
314.490536280475;125.064930254895
314.512153529386;124.996645445817
314.533770778298;124.938105624795
314.555388027209;124.876589211694
314.577005276121;124.809526947997
314.598622525032;124.737693239976
314.620239773944;124.661071320044
314.641857022855;124.586421490579
314.663474271767;124.515137963897
314.685091520678;124.44026785515
314.70670876959;124.358034061466
314.728326018501;124.27491265239
314.749943267413;124.197692366416
314.771560516324;124.128298363296
314.793177765236;124.06346224221
314.814795014147;124.002870361013
314.836412263059;123.95118332137
314.85802951197;123.920528056459
314.879646760882;123.913197004757
314.901264009793;123.925601592587
314.922881258705;123.953699336901
314.944498507617;123.99539630643
314.966115756528;124.04868758935
314.98773300544;124.107838053135
315.009350254351;124.170216634829
315.030967503263;124.236251543728
315.052584752174;124.304182171325
315.074202001086;124.373453878649
315.095819249997;124.443613505851
315.117436498909;124.514096284965
315.13905374782;124.586479551232
315.160670996732;124.663304390863
315.182288245643;124.743981806414
315.203905494555;124.82232322461
315.225522743466;124.893078549253
315.247139992378;124.956448707288
315.268757241289;125.010713913889
315.290374490201;125.055007987889
315.311991739112;125.094032831761
315.333608988024;125.136106723812
315.355226236935;125.16777832789
315.376843485847;125.158303314984
315.398460734758;125.122504278049
315.42007798367;125.082439570158
315.441695232581;125.036262597612
315.463312481493;124.963898381515
315.484929730404;124.864371215376
315.506546979316;124.749047089071
315.528164228227;124.60814910065
315.549781477139;124.432651772521
315.57139872605;124.229609201947
315.593015974962;124.001183328099
315.614633223873;123.750036120076
315.636250472785;123.487269375893
315.657867721696;123.213726722661
315.679484970608;122.932049616078
315.701102219519;122.655444110901
315.722719468431;122.403487418961
315.744336717342;122.186879545438
315.765953966254;121.994389591543
315.787571215165;121.81961252588
315.809188464077;121.67614068955
315.830805712988;121.567384356942
315.8524229619;121.476421250635
315.874040210811;121.393604388123
315.895657459723;121.31492750276
315.917274708634;121.241286736841
315.938891957546;121.171315331456
315.960509206457;121.086460546358
315.982126455369;120.988243538714
316.00374370428;120.881346023297
316.025360953192;120.773872994362
316.046978202103;120.673750514282
316.068595451015;120.581158033845
316.090212699926;120.498515592844
316.111829948838;120.4218053077
316.133447197749;120.345927914794
316.155064446661;120.279062899674
316.176681695572;120.225232020794
316.198298944484;120.174058596567
316.219916193396;120.100798128371
316.241533442307;119.993953818347
316.263150691219;119.855936945244
316.28476794013;119.695032012495
316.306385189042;119.510323356255
316.328002437953;119.294032789134
316.349619686865;119.049208805323
316.371236935776;118.795567970466
316.392854184688;118.541402036313
316.414471433599;118.286820169687
316.436088682511;118.034508147829
316.457705931422;117.78996557628
316.479323180334;117.554401457355
316.500940429245;117.323684086288
316.522557678157;117.093515755715
316.544174927068;116.86204427369
316.56579217598;116.624692069531
316.587409424891;116.365635557587
316.609026673803;116.067795861261
316.630643922714;115.743847926649
316.652261171626;115.407516581819
316.673878420537;115.057608612177
316.695495669449;114.686368663608
316.71711291836;114.292449816472
316.738730167272;113.886866074248
316.760347416183;113.479536000924
316.781964665095;113.069858686272
316.803581914006;112.657695289493
316.825199162918;112.240313638728
316.846816411829;111.812299392786
316.868433660741;111.374077174919
316.890050909652;110.957645422123
316.911668158564;110.590816898494
316.933285407475;110.264088778176
316.954902656387;109.965776397657
316.976519905298;109.68705595436
316.99813715421;109.416605831685
317.019754403121;109.145146337709
317.041371652033;108.868537928319
317.062988900944;108.584558107134
317.084606149856;108.283641268865
317.106223398767;107.950432876114
317.127840647679;107.58550659428
317.14945789659;107.195599728125
317.171075145502;106.782711761509
317.192692394413;106.346338247636
317.214309643325;105.879280262093
317.235926892236;105.388579262025
317.257544141148;104.885818280792
317.279161390059;104.376591282157
317.300778638971;103.869743151323
317.322395887882;103.371214034391
317.344013136794;102.900396338795
317.365630385706;102.461670258117
317.387247634617;102.051152645463
317.408864883529;101.678815013423
317.43048213244;101.352447149744
317.452099381352;101.056703861716
317.473716630263;100.786920510631
317.495333879175;100.548860608362
317.516951128086;100.32933581917
317.538568376998;100.100053509576
317.560185625909;99.8454249319747
317.581802874821;99.5613580921619
317.603420123732;99.2706942328425
317.625037372644;98.9762973650837
317.646654621555;98.654923598717
317.668271870467;98.2938916917128
317.689889119378;97.9061505196767
317.71150636829;97.5076186174499
317.733123617201;97.1090056520079
317.754740866113;96.7060002667024
317.776358115024;96.2973239542169
317.797975363936;95.8961701917397
317.819592612847;95.5119073695001
317.841209861759;95.1427766899613
317.86282711067;94.7848374376286
317.884444359582;94.4401474854019
317.906061608493;94.1112394187236
317.927678857405;93.7907732233401
317.949296106316;93.4803569797548
317.970913355228;93.1786585957566
317.992530604139;92.8710214559238
318.014147853051;92.5521765507209
318.035765101962;92.2258473658619
318.057382350874;91.8947264662019
318.078999599785;91.5663302489213
318.100616848697;91.2442503706877
318.122234097608;90.9319259331299
318.14385134652;90.6383288668641
318.165468595431;90.3687349319897
318.187085844343;90.1142650676384
318.208703093254;89.8795474088655
318.230320342166;89.6835664888635
318.251937591077;89.526896405577
318.273554839989;89.4091912184786
318.2951720889;89.3391540444549
318.316789337812;89.3152967284475
318.338406586723;89.3161318934778
318.360023835635;89.3411349928819
318.381641084546;89.394950103769
318.403258333458;89.4699147157254
318.424875582369;89.5610337803746
318.446492831281;89.662924413838
318.468110080192;89.7692906613348
318.489727329104;89.8828468392704
318.511344578015;90.0137083592175
318.532961826927;90.16947321996
318.554579075838;90.3479994114201
318.57619632475;90.546769993302
318.597813573661;90.7715453678143
318.619430822573;91.0237807833404
318.641048071485;91.3062140490081
318.662665320396;91.6293453587241
318.684282569308;91.9983589184503
318.705899818219;92.4025478977899
318.727517067131;92.8187173291466
318.749134316042;93.2302917426389
318.770751564954;93.6332520208823
318.792368813865;94.029485798032
318.813986062777;94.4004384481034
318.835603311688;94.7120011249154
318.8572205606;94.9567503973341
318.878837809511;95.1535157801367
318.900455058423;95.3113887546718
318.922072307334;95.4310009186889
318.943689556246;95.5190089663592
318.965306805157;95.5890648253863
318.986924054069;95.6557303726464
319.00854130298;95.7258653029301
319.030158551892;95.8030680117235
319.051775800803;95.8949065641939
319.073393049715;96.0040981412726
319.095010298626;96.1313388044981
319.116627547538;96.2866697817496
319.138244796449;96.4691661630677
319.159862045361;96.6708777428346
319.181479294272;96.8889892945637
319.203096543184;97.1237678339637
319.224713792095;97.3771903914108
319.246331041007;97.6512528013803
319.267948289918;97.9426622478207
319.28956553883;98.236012001288
319.311182787741;98.5101549798257
319.332800036653;98.7461831000564
319.354417285564;98.9432171409135
319.376034534476;99.1058072371505
319.397651783387;99.2240970661624
319.419269032299;99.2890664847213
319.44088628121;99.2939858995918
319.462503530122;99.2335384303309
319.484120779033;99.107545186719
319.505738027945;98.91510259219
319.527355276856;98.6489207589842
319.548972525768;98.3131641905153
319.570589774679;97.9376063116734
319.592207023591;97.5361034232901
319.613824272502;97.1111141187353
319.635441521414;96.670441172174
319.657058770325;96.2313064155063
319.678676019237;95.8122961528553
319.700293268148;95.4169945906809
319.72191051706;95.044660041244
319.743527765971;94.687000292522
319.765145014883;94.3507275252628
319.786762263794;94.0550510095538
319.808379512706;93.8198141696648
319.829996761618;93.6462205942965
319.851614010529;93.5307079805552
319.873231259441;93.4738776478467
319.894848508352;93.4724650304698
319.916465757264;93.5178105001787
319.938083006175;93.594902767703
319.959700255087;93.693629543131
319.981317503998;93.8108607962052
320.00293475291;93.9433953979032
320.024552001821;94.0720747405632
320.046169250733;94.1856081545003
320.067786499644;94.293702859668
320.089403748556;94.4030619958188
320.111020997467;94.5225281722578
320.132638246379;94.6654526922056
320.15425549529;94.8411018311542
320.175872744202;95.0646505116159
320.197489993113;95.3463778732943
320.219107242025;95.6899156375761
320.240724490936;96.0998510332843
320.262341739848;96.5741678736301
320.283958988759;97.105484390958
320.305576237671;97.6850577514055
320.327193486582;98.3005842776242
320.348810735494;98.9399425505505
320.370427984405;99.6088073823413
320.392045233317;100.307163080172
320.413662482228;100.998690166103
320.43527973114;101.635172802219
320.456896980051;102.208909950202
320.478514228963;102.713055104842
320.500131477874;103.121740254075
320.521748726786;103.423087097382
320.543365975697;103.612145715219
320.564983224609;103.694414951435
320.58660047352;103.692551912318
320.608217722432;103.612447350115
320.629834971343;103.459682834567
320.651452220255;103.252369227154
320.673069469166;103.018166986511
320.694686718078;102.781093971584
320.716303966989;102.546378382333
320.737921215901;102.321146865473
320.759538464812;102.124638581683
320.781155713724;101.960900217247
320.802772962635;101.816796941747
320.824390211547;101.687471986764
320.846007460458;101.574951547758
320.86762470937;101.480105144214
320.889241958281;101.396535826567
320.910859207193;101.313912323829
320.932476456104;101.222422043602
320.954093705016;101.123136239574
320.975710953927;101.0230490739
320.997328202839;100.924237584459
321.01894545175;100.823590256875
321.040562700662;100.724330509087
321.062179949574;100.635347108541
321.083797198485;100.557518123623
321.105414447397;100.486339545785
321.127031696308;100.419393608422
321.14864894522;100.360264060843
321.170266194131;100.316625135152
321.191883443043;100.285959644271
321.213500691954;100.257099212921
321.235117940866;100.222015378656
321.256735189777;100.180548500183
321.278352438689;100.135742894919
321.2999696876;100.096036950538
321.321586936512;100.06433882306
321.343204185423;100.024843953759
321.364821434335;99.978513817052
321.386438683246;99.9317215576155
321.408055932158;99.8884839075602
321.429673181069;99.8564785672802
321.451290429981;99.8463239831335
321.472907678892;99.8698007778718
321.494524927804;99.9320031708253
321.516142176715;100.029315377488
321.537759425627;100.163147434058
321.559376674538;100.339600976009
321.58099392345;100.554440497729
321.602611172361;100.79554103537
321.624228421273;101.051992332329
321.645845670184;101.324755752732
321.667462919096;101.618686100399
321.689080168007;101.925161817809
321.710697416919;102.225548706462
321.73231466583;102.507600281006
321.753931914742;102.774175676621
321.775549163653;103.031576263678
321.797166412565;103.285320527042
321.818783661476;103.539653138502
321.840400910388;103.795585404422
321.862018159299;104.047203571327
321.883635408211;104.278000611954
321.905252657122;104.480080429791
321.926869906034;104.660443063169
321.948487154945;104.831429527562
321.970104403857;105.001679583953
321.991721652768;105.172364184444
322.01333890168;105.344964180443
322.034956150591;105.528587864689
322.056573399503;105.723075425211
322.078190648414;105.911711989497
322.099807897326;106.093134882519
322.121425146237;106.27406749666
322.143042395149;106.455331386018
322.16465964406;106.629339370541
322.186276892972;106.784807862479
322.207894141883;106.912547009062
322.229511390795;107.007171166381
322.251128639707;107.070138027421
322.272745888618;107.104389923033
322.29436313753;107.117673209314
322.315980386441;107.1182285492
322.337597635353;107.106635567298
322.359214884264;107.079578975333
322.380832133176;107.028710945965
322.402449382087;106.953201289656
322.424066630999;106.859696210329
322.44568387991;106.756304204911
322.467301128822;106.6327347931
322.488918377733;106.484271969918
322.510535626645;106.317095366023
322.532152875556;106.133513903651
322.553770124468;105.929563076437
322.575387373379;105.703485757471
322.597004622291;105.457503040639
322.618621871202;105.194343014035
322.640239120114;104.917371419777
322.661856369025;104.638102004902
322.683473617937;104.372927391261
322.705090866848;104.128671101291
322.72670811576;103.908912647325
322.748325364671;103.709581847638
322.769942613583;103.519770217713
322.791559862494;103.339094269511
322.813177111406;103.174814205196
322.834794360317;103.029752865651
322.856411609229;102.908113465946
322.87802885814;102.802215965828
322.899646107052;102.692893692678
322.921263355963;102.568627338444
322.942880604875;102.436357624772
322.964497853786;102.291061689661
322.986115102698;102.125761844943
323.007732351609;101.944094944521
323.029349600521;101.755815715524
323.050966849432;101.567463700715
323.072584098344;101.373705574829
323.094201347255;101.175717827917
323.115818596167;100.985365334158
323.137435845078;100.806468806267
323.15905309399;100.636467109331
323.180670342901;100.480792039659
323.202287591813;100.344195999243
323.223904840724;100.236843047937
323.245522089636;100.168574179449
323.267139338547;100.131255663556
323.288756587459;100.111109150186
323.31037383637;100.099216932129
323.331991085282;100.099939067393
323.353608334193;100.112105272498
323.375225583105;100.125221448673
323.396842832016;100.133212743306
323.418460080928;100.136373172329
323.440077329839;100.137255626702
323.461694578751;100.131451293714
323.483311827663;100.109812517667
323.504929076574;100.072410442819
323.526546325486;100.024585209956
323.548163574397;99.9715604933453
323.569780823309;99.9120102398815
323.59139807222;99.8450757623568
323.613015321132;99.7728226870587
323.634632570043;99.7017720222978
323.656249818955;99.6332987167993
323.677867067866;99.5616951155775
323.699484316778;99.4846555655165
323.721101565689;99.4072869091343
323.742718814601;99.3413811419061
323.764336063512;99.2970679934918
323.785953312424;99.2654152864919
323.807570561335;99.2371901712668
323.829187810247;99.2141875239349
323.850805059158;99.2037744024231
323.87242230807;99.2159190455457
323.894039556981;99.2576286653914
323.915656805893;99.3307525040047
323.937274054804;99.4415964853065
323.958891303716;99.5880920366863
323.980508552627;99.7582787545902
324.002125801539;99.9428511229132
324.02374305045;100.146939621521
324.045360299362;100.38841961384
324.066977548273;100.656896376687
324.088594797185;100.914395336049
324.110212046096;101.147103180183
324.131829295008;101.340371126469
324.153446543919;101.47261796455
324.175063792831;101.548367500672
324.196681041742;101.569600167609
324.218298290654;101.515275838357
324.239915539565;101.36895330482
324.261532788477;101.148900036104
324.283150037388;100.860415712176
324.3047672863;100.492369092393
324.326384535211;100.032954847807
324.348001784123;99.4844561519155
324.369619033034;98.8863762208643
324.391236281946;98.2667244728272
324.412853530857;97.6096907036817
324.434470779769;96.9160195665912
324.45608802868;96.2167598623963
324.477705277592;95.5222519199104
324.499322526503;94.8367218937231
324.520939775415;94.1663533465653
324.542557024326;93.5018397007715
324.564174273238;92.8523837858933
324.585791522149;92.2436926696872
324.607408771061;91.6752203406259
324.629026019972;91.1226790551689
324.650643268884;90.5668707600802
324.672260517796;90.0082609401055
324.693877766707;89.4624876835143
324.715495015619;88.9404683950181
324.73711226453;88.4381073832815
324.758729513442;87.955974145254
324.780346762353;87.5015093652455
