Name;BF_ESR_01_360s_Y_gon_0dg_result

Recipe
Accumulations;5;Number of accumulations
RetryCount;0;Number of retries on error
AbortOnError;True;Abort on error
EnableQFactorMeasurement;False;Enable/Disable q-Factor measurement
Bfrom;313;B from
Bto;363;B to
SweepTime;60;Sweep time
Modulation;0.2;Modulation
ModulationFreq;100;Modulation
BHoldEnabled;False;B hold enabled
BHold;0;B hold
MicrowavePower;2;Microwave power
MarkerEnabled;False;
MarkerStartField;0;
MarkerEndField;0;
Mode;;
KineticGFact;0;
KineticTotalTransientTime;0;
KineticTimeResolution;0;
TempFrom;5;
TempUseSlope;False;
TempTo;5;
TempdT;1;
TempSetupTime;0;
GonFrom;0;
GonTo;180;
GonSteps;20;
XRayEnabled;False;
XRayTime;3;
XRayVoltage;40;
XRayCurrent;0.5;
UVEnabled;False;
UVIntensity;0;
UVTime;0;
UVLeadTime;0;
UVWavelength;0;
PowSweepFrom;1;
PowSweepTo;5;
PowSweepSteps;5;
AmpModSweepFrom;0;
AmpModSweepTo;1;
AmpModSweepSteps;10;
ExtTriggerEnabled;False;
ExtTrigLeadTime;0;
ExtTrigOnTime;5;

Meas
BField [mT];MW_Absorption []
313.029169921875;64.2155744495532
313.050788788899;63.6694464977965
313.072407655922;63.0718108643744
313.094026522946;62.4418411155183
313.11564538997;61.7746290564898
313.137264256993;61.0405052502505
313.158883124017;60.2506478766144
313.180501991041;59.4906573405843
313.202120858064;58.8142030063153
313.223739725088;58.2043626199749
313.245358592112;57.6417874386216
313.266977459135;57.1238124583053
313.288596326159;56.663141457292
313.310215193183;56.2843342022182
313.331834060207;56.0007468535002
313.35345292723;55.8123848549424
313.375071794254;55.7113213656231
313.396690661278;55.6865870722559
313.418309528301;55.7290227709751
313.439928395325;55.8348762248145
313.461547262349;56.0012459961914
313.483166129372;56.207069831533
313.504784996396;56.425979681894
313.52640386342;56.6483916765248
313.548022730443;56.8700327462524
313.569641597467;57.0831420863741
313.591260464491;57.2725209515259
313.612879331514;57.4223480213523
313.634498198538;57.5347818524583
313.656117065562;57.6152911140661
313.677735932585;57.6771439562933
313.699354799609;57.7326348910402
313.720973666633;57.7732084312146
313.742592533657;57.8004717628128
313.76421140068;57.8228756924223
313.785830267704;57.8523434605671
313.807449134728;57.8927197925341
313.829068001751;57.9417766833758
313.850686868775;57.9992588050932
313.872305735799;58.0645955469512
313.893924602822;58.1351970350231
313.915543469846;58.2067793490199
313.93716233687;58.2760925702624
313.958781203893;58.339399097034
313.980400070917;58.385206984352
314.002018937941;58.4203139159491
314.023637804964;58.4524479825146
314.045256671988;58.4896509914546
314.066875539012;58.540607041244
314.088494406035;58.6082256395092
314.110113273059;58.6861077254636
314.131732140083;58.7723396303958
314.153351007106;58.8736296617318
314.17496987413;58.9976599254342
314.196588741154;59.147079278658
314.218207608178;59.3198993152379
314.239826475201;59.5111527343309
314.261445342225;59.7115572018397
314.283064209249;59.8966335826647
314.304683076272;60.0609189733825
314.326301943296;60.2024644456553
314.34792081032;60.3214717876258
314.369539677343;60.4085919099115
314.391158544367;60.4574421497917
314.412777411391;60.4712941188676
314.434396278414;60.4223685374939
314.456015145438;60.3083560096845
314.477634012462;60.1462436884213
314.499252879485;59.9639431042923
314.520871746509;59.7722738390436
314.542490613533;59.5693760914944
314.564109480556;59.3567691781664
314.58572834758;59.141595794882
314.607347214604;58.9433076462469
314.628966081628;58.7780922650362
314.650584948651;58.6499845547175
314.672203815675;58.5693498070812
314.693822682699;58.5499548376789
314.715441549722;58.5778956919738
314.737060416746;58.6476167619648
314.75867928377;58.7572283310906
314.780298150793;58.8971542370591
314.801917017817;59.0550474922858
314.823535884841;59.2207520960294
314.845154751864;59.3872715647653
314.866773618888;59.5533791980698
314.888392485912;59.7117522616473
314.910011352935;59.849391247983
314.931630219959;59.9646697792576
314.953249086983;60.0633451314496
314.974867954006;60.1437502337408
314.99648682103;60.2010268529375
315.018105688054;60.2339893018194
315.039724555078;60.2481992969146
315.061343422101;60.2495737987548
315.082962289125;60.2403980660425
315.104581156149;60.2179810717036
315.126200023172;60.17806077443
315.147818890196;60.125132935488
315.16943775722;60.0676933133691
315.191056624243;60.0046195078787
315.212675491267;59.9271985558958
315.234294358291;59.8326523732907
315.255913225314;59.7265509741589
315.277532092338;59.6147111073448
315.299150959362;59.4913444009982
315.320769826385;59.3609398539151
315.342388693409;59.2419287393529
315.364007560433;59.1259885726792
315.385626427456;59.0018589510062
315.40724529448;58.8821679394465
315.428864161504;58.7928018845159
315.450483028527;58.726965590829
315.472101895551;58.6657691386085
315.493720762575;58.6073591951251
315.515339629598;58.5516451450361
315.536958496622;58.4983831784325
315.558577363646;58.4518564666489
315.58019623067;58.4146889534316
315.601815097693;58.3668362674132
315.623433964717;58.2822637841291
315.645052831741;58.1796848057336
315.666671698764;58.0743169876011
315.688290565788;57.9617716675293
315.709909432812;57.8520757750879
315.731528299835;57.7459425382787
315.753147166859;57.6394493290847
315.774766033883;57.5291392136985
315.796384900906;57.4169147672816
315.81800376793;57.3106820172174
315.839622634954;57.2153814431524
315.861241501977;57.1300673744769
315.882860369001;57.0531437337643
315.904479236025;56.9866457190044
315.926098103049;56.9324909162615
315.947716970072;56.8935498317288
315.969335837096;56.8737927305967
315.99095470412;56.8771037577261
316.012573571143;56.9014075761482
316.034192438167;56.9465387394742
316.055811305191;57.0117899078131
316.077430172214;57.0960981236877
316.099049039238;57.1934810770149
316.120667906262;57.2992225896605
316.142286773285;57.4125850442255
316.163905640309;57.5164879682552
316.185524507333;57.6000269093089
316.207143374356;57.6674387480863
316.22876224138;57.7226869798559
316.250381108404;57.75657603074
316.271999975427;57.758541613785
316.293618842451;57.7278178926111
316.315237709475;57.6731290976377
316.336856576498;57.5988368811596
316.358475443522;57.5014482912968
316.380094310546;57.3816897163697
316.401713177569;57.2463116934595
316.423332044593;57.1043547034682
316.444950911617;56.968111536555
316.466569778641;56.8522491831847
316.488188645664;56.7543455011172
316.509807512688;56.6633996580197
316.531426379712;56.5694638262279
316.553045246735;56.4687635492269
316.574664113759;56.3696054427842
316.596282980783;56.2721686685669
316.617901847806;56.1688956263755
316.63952071483;56.0513553807772
316.661139581854;55.9108931597473
316.682758448877;55.7532275164318
316.704377315901;55.5847865924049
316.725996182925;55.4073570773889
316.747615049948;55.2383599243253
316.769233916972;55.092039276782
316.790852783996;54.9735742948416
316.812471651019;54.8855260993189
316.834090518043;54.830348576132
316.855709385067;54.8150401810658
316.877328252091;54.8441707421513
316.898947119114;54.9151538649397
316.920565986138;55.0224552576562
316.942184853162;55.1586561984905
316.963803720185;55.3165596599885
316.985422587209;55.4870577701412
317.007041454233;55.6517427374543
317.028660321256;55.793684868108
317.05027918828;55.9009999102043
317.071898055304;55.9655295338002
317.093516922327;55.9839005510764
317.115135789351;55.9552765555608
317.136754656375;55.8828867644635
317.158373523398;55.7703241851308
317.179992390422;55.6190350283821
317.201611257446;55.4290379269094
317.223230124469;55.2149426656384
317.244848991493;54.9872109384846
317.266467858517;54.7464909851821
317.288086725541;54.492160646635
317.309705592564;54.2284194468728
317.331324459588;53.9624443083034
317.352943326612;53.7004191254869
317.374562193635;53.440347094753
317.396181060659;53.1885277460037
317.417799927683;52.9490754686315
317.439418794706;52.7210395460311
317.46103766173;52.5029701576848
317.482656528754;52.2877836244604
317.504275395777;52.0870066438329
317.525894262801;51.9224711439363
317.547513129825;51.7894080545943
317.569131996848;51.6777802517161
317.590750863872;51.5904481656348
317.612369730896;51.5334359001867
317.633988597919;51.5088110416533
317.655607464943;51.5140999064107
317.677226331967;51.5498728814419
317.69884519899;51.6085202680857
317.720464066014;51.681666662628
317.742082933038;51.7718808652089
317.763701800061;51.8777062606957
317.785320667085;51.9871230288996
317.806939534109;52.0946749762936
317.828558401133;52.1987678816244
317.850177268156;52.2950499186087
317.87179613518;52.3739647532277
317.893415002204;52.4416500519266
317.915033869227;52.4940611165068
317.936652736251;52.5175724115407
317.958271603275;52.5055995285313
317.979890470298;52.4532306273627
318.001509337322;52.3582404320944
318.023128204346;52.230814829827
318.044747071369;52.0916781031634
318.066365938393;51.9590314816514
318.087984805417;51.8281582543801
318.10960367244;51.6961118823258
318.131222539464;51.5761797737566
318.152841406488;51.4825029280947
318.174460273512;51.4254522317876
318.196079140535;51.4178441112174
318.217698007559;51.4664388786009
318.239316874583;51.5550597958024
318.260935741606;51.6713868382986
318.28255460863;51.8169084994648
318.304173475654;51.9792330517604
318.325792342677;52.1135139001392
318.347411209701;52.2057819551014
318.369030076725;52.2636269870513
318.390648943748;52.2836797864446
318.412267810772;52.2440754706032
318.433886677796;52.1272829448761
318.455505544819;51.9471656329907
318.477124411843;51.7297207501552
318.498743278867;51.4892503606683
318.52036214589;51.2238005322299
318.541981012914;50.9446047920889
318.563599879938;50.6791455579035
318.585218746961;50.4455166073295
318.606837613985;50.2480420107286
318.628456481009;50.0854083666741
318.650075348032;49.9540081198157
318.671694215056;49.8437952015695
318.69331308208;49.7443609110963
318.714931949104;49.6461705520522
318.736550816127;49.5438395112043
318.758169683151;49.4218781934006
318.779788550175;49.2601447376435
318.801407417198;49.0587268781953
318.823026284222;48.8330391964837
318.844645151246;48.5900457246221
318.866264018269;48.3241695319696
318.887882885293;48.0380545009098
318.909501752317;47.7528314498241
318.93112061934;47.5026280925265
318.952739486364;47.3048514234383
318.974358353388;47.1642877099694
318.995977220411;47.0767289047674
319.017596087435;47.0385689912344
319.039214954459;47.0448262486781
319.060833821482;47.0887344445213
319.082452688506;47.1612310484525
319.10407155553;47.2471686537017
319.125690422554;47.3349494443677
319.147309289577;47.4169795472694
319.168928156601;47.4836668477119
319.190547023625;47.5218398374958
319.212165890648;47.5266673572012
319.233784757672;47.5050263236226
319.255403624696;47.4611936400639
319.277022491719;47.4024275947537
319.298641358743;47.3379161226523
319.320260225767;47.2709818129295
319.34187909279;47.2076993166516
319.363497959814;47.1556014971219
319.385116826838;47.1158995856193
319.406735693861;47.0815742344314
319.428354560885;47.0482836373472
319.449973427909;47.0115098577519
319.471592294932;46.966951572488
319.493211161956;46.9049353766013
319.51483002898;46.8129407521458
319.536448896003;46.6828922137886
319.558067763027;46.5150180271683
319.579686630051;46.3151473573583
319.601305497075;46.0930811584702
319.622924364098;45.8510402912919
319.644543231122;45.5946044401717
319.666162098146;45.3298995635903
319.687780965169;45.0665726024278
319.709399832193;44.8271228637023
319.731018699217;44.6239246141492
319.75263756624;44.4562490468246
319.774256433264;44.324811267242
319.795875300288;44.2324458174014
319.817494167311;44.1624975226767
319.839113034335;44.0981789147889
319.860731901359;44.0271268320194
319.882350768382;43.9441731779591
319.903969635406;43.8465047057204
319.92558850243;43.7355446941439
319.947207369453;43.6059360872583
319.968826236477;43.4499630005721
319.990445103501;43.268756860587
320.012063970524;43.0738790143761
320.033682837548;42.8804472445409
320.055301704572;42.7061140789137
320.076920571596;42.5655522783147
320.098539438619;42.4656104381879
320.120158305643;42.4047071614519
320.141777172667;42.3786090460127
320.16339603969;42.3886733666501
320.185014906714;42.4389046713892
320.206633773738;42.5245402727906
320.228252640761;42.6368948052721
320.249871507785;42.7664915652294
320.271490374809;42.9015450332158
320.293109241832;43.0344887066457
320.314728108856;43.1638103851579
320.33634697588;43.2866027196986
320.357965842903;43.4036059248518
320.379584709927;43.5172960642542
320.401203576951;43.6277100943023
320.422822443975;43.7385830063784
320.444441310998;43.8584867063935
320.466060178022;43.9996591724728
320.487679045046;44.1662001788793
320.509297912069;44.3398594315061
320.530916779093;44.5094453662229
320.552535646117;44.6798701068247
320.57415451314;44.8460053474883
320.595773380164;44.9944142838824
320.617392247188;45.1179028877732
320.639011114211;45.2137527220907
320.660629981235;45.2769567673845
320.682248848259;45.3048403339125
320.703867715282;45.3050870246396
320.725486582306;45.2843184689781
320.74710544933;45.2406475514244
320.768724316353;45.1683664864317
320.790343183377;45.0706988856975
320.811962050401;44.961046086901
320.833580917424;44.8442777869274
320.855199784448;44.7299967590778
320.876818651472;44.6296163484042
320.898437518495;44.5425085737705
320.920056385519;44.4645880059068
320.941675252543;44.396528024579
320.963294119567;44.3452844022999
320.98491298659;44.3166544448906
321.006531853614;44.3130505225564
321.028150720638;44.3345120974835
321.049769587661;44.3823763055476
321.071388454685;44.4634369859608
321.093007321709;44.5871139363675
321.114626188732;44.7595838395129
321.136245055756;44.985048667054
321.15786392278;45.2619769138535
321.179482789803;45.5720527985804
321.201101656827;45.9030645907439
321.222720523851;46.2533616762384
321.244339390874;46.6059102066185
321.265958257898;46.9413112043694
321.287577124922;47.2555995931044
321.309195991945;47.5566223776781
321.330814858969;47.8360081014794
321.352433725993;48.0713444845761
321.374052593017;48.248769720456
321.39567146004;48.3655744110202
321.417290327064;48.4224253914788
321.438909194088;48.4104228704291
321.460528061111;48.3251586211664
321.482146928135;48.1805002630081
321.503765795159;47.9837471453074
321.525384662182;47.7392559834401
321.547003529206;47.4585392955865
321.56862239623;47.1608588670361
321.590241263253;46.8630163576483
321.611860130277;46.5738444742681
321.633478997301;46.2975012120934
321.655097864324;46.0358101568962
321.676716731348;45.7913904026376
321.698335598372;45.5637060832702
321.719954465395;45.3454189041461
321.741573332419;45.1321457330672
321.763192199443;44.9162429207491
321.784811066466;44.6838790239646
321.80642993349;44.4293865067187
321.828048800514;44.1533927662902
321.849667667538;43.8513232828259
321.871286534561;43.5067574600882
321.892905401585;43.1102168586121
321.914524268609;42.6582741871539
321.936143135632;42.1597234320337
321.957762002656;41.6268525326707
321.97938086968;41.0672189050814
322.000999736703;40.4922964744163
322.022618603727;39.912409907886
322.044237470751;39.3274375925058
322.065856337774;38.7410201269206
322.087475204798;38.1650122550275
322.109094071822;37.6236182614363
322.130712938845;37.1424826779416
322.152331805869;36.7312177646158
322.173950672893;36.3916361963819
322.195569539916;36.1320164883269
322.21718840694;35.9639574011128
322.238807273964;35.8825918277889
322.260426140988;35.8697063465632
322.282045008011;35.9043196899757
322.303663875035;35.9694920251088
322.325282742059;36.0631393553359
322.346901609082;36.1799923964757
322.368520476106;36.3080309072731
322.39013934313;36.4330616637411
322.411758210153;36.5414587998658
322.433377077177;36.6302300750397
322.454995944201;36.7073156708975
322.476614811224;36.7822794834206
322.498233678248;36.8580706405657
322.519852545272;36.9381379482217
322.541471412295;37.0289822236185
322.563090279319;37.1374259926916
322.584709146343;37.2657671932892
322.606328013366;37.4049084498116
322.62794688039;37.5329749775306
322.649565747414;37.6566715870698
322.671184614437;37.7867828337679
322.692803481461;37.9101069342738
322.714422348485;38.00539066423
322.736041215509;38.0522697185787
322.757660082532;38.0490813464628
322.779278949556;38.0005179291975
322.80089781658;37.9135025953356
322.822516683603;37.7891353261951
322.844135550627;37.6328571854033
322.865754417651;37.465235221129
322.887373284674;37.3028662482917
322.908992151698;37.1477417194866
322.930611018722;36.9756750422521
322.952229885745;36.7985941594843
322.973848752769;36.6893039321372
322.995467619793;36.6245244168381
323.017086486816;36.5871228221979
323.03870535384;36.5699975769388
323.060324220864;36.5624822509394
323.081943087887;36.5532893297169
323.103561954911;36.5532612317116
323.125180821935;36.576533715388
323.146799688958;36.624468029166
323.168418555982;36.688486053158
323.190037423006;36.7631426586424
323.21165629003;36.847846012638
323.233275157053;36.9445306430773
323.254894024077;37.052013787755
323.276512891101;37.1715603218993
323.298131758124;37.305467414072
323.319750625148;37.4431340047076
323.341369492172;37.5665966453426
323.362988359195;37.6699668032676
323.384607226219;37.754558477077
323.406226093243;37.8191553372551
323.427844960266;37.8575865611031
323.44946382729;37.8693023093531
323.471082694314;37.8621689860225
323.492701561337;37.8499899258758
323.514320428361;37.8379061036284
323.535939295385;37.8238281616573
323.557558162408;37.8082221406307
323.579177029432;37.7967527622351
323.600795896456;37.8062663562008
323.62241476348;37.8399416292637
323.644033630503;37.8910108942342
323.665652497527;37.9520770900828
323.687271364551;38.026271994012
323.708890231574;38.1177893936465
323.730509098598;38.2211031338889
323.752127965622;38.3286998601255
323.773746832645;38.435952380101
323.795365699669;38.5368099026283
323.816984566693;38.6243288065587
323.838603433716;38.6953250892046
323.86022230074;38.746653322225
323.881841167764;38.7820892757859
323.903460034787;38.8049623433491
323.925078901811;38.8026243966859
323.946697768835;38.7628324294983
323.968316635858;38.6862117623593
323.989935502882;38.5818875846663
324.011554369906;38.4729615528311
324.033173236929;38.3495001589999
324.054792103953;38.1977715682705
324.076410970977;38.0240794285136
324.098029838001;37.8421362071428
324.119648705024;37.6505968897258
324.141267572048;37.4580236237771
324.162886439072;37.2877235850014
324.184505306095;37.1445460467418
324.206124173119;37.0247540877247
324.227743040143;36.9252556027156
324.249361907166;36.8521984285336
324.27098077419;36.8031944729355
324.292599641214;36.7670341960854
324.314218508237;36.7372470095477
324.335837375261;36.7115469863146
324.357456242285;36.6920480014522
324.379075109308;36.6816791755258
324.400693976332;36.6735261322716
324.422312843356;36.6544680680777
324.443931710379;36.6242040690691
324.465550577403;36.5923776519803
324.487169444427;36.5524566060331
324.508788311451;36.5000802095635
324.530407178474;36.4425595005253
324.552026045498;36.3855634245838
324.573644912522;36.3337409757886
324.595263779545;36.2951909970765
324.616882646569;36.265090938161
324.638501513593;36.2440232447691
324.660120380616;36.2426675555471
324.68173924764;36.275152530825
324.703358114664;36.3497736036193
324.724976981687;36.4591002067587
324.746595848711;36.5909006692646
324.768214715735;36.7459661227485
