Name;BF_ESR_01_1800s_Z_gon_180dg_result

Recipe
Accumulations;5;Number of accumulations
RetryCount;0;Number of retries on error
AbortOnError;True;Abort on error
EnableQFactorMeasurement;False;Enable/Disable q-Factor measurement
Bfrom;313;B from
Bto;363;B to
SweepTime;60;Sweep time
Modulation;0.2;Modulation
ModulationFreq;100;Modulation
BHoldEnabled;False;B hold enabled
BHold;0;B hold
MicrowavePower;2;Microwave power
MarkerEnabled;False;
MarkerStartField;0;
MarkerEndField;0;
Mode;;
KineticGFact;0;
KineticTotalTransientTime;0;
KineticTimeResolution;0;
TempFrom;5;
TempUseSlope;False;
TempTo;5;
TempdT;1;
TempSetupTime;0;
GonFrom;0;
GonTo;180;
GonSteps;20;
XRayEnabled;False;
XRayTime;3;
XRayVoltage;40;
XRayCurrent;0.5;
UVEnabled;False;
UVIntensity;0;
UVTime;0;
UVLeadTime;0;
UVWavelength;0;
PowSweepFrom;1;
PowSweepTo;5;
PowSweepSteps;5;
AmpModSweepFrom;0;
AmpModSweepTo;1;
AmpModSweepSteps;10;
ExtTriggerEnabled;False;
ExtTrigLeadTime;0;
ExtTrigOnTime;5;

Meas
BField [mT];MW_Absorption []
313.0219581604;54.1021337095364
313.043563963055;54.0949422911946
313.06516976571;54.0675657060139
313.086775568365;54.0155826092826
313.10838137102;53.9312131215912
313.129987173674;53.7995778131239
313.151592976329;53.6193344052181
313.173198778984;53.401039098433
313.194804581639;53.1481307864552
313.216410384294;52.8606627371429
313.238016186948;52.5504689251099
313.259621989603;52.2317283246104
313.281227792258;51.9157619175404
313.302833594913;51.6216705222765
313.324439397568;51.3598288604522
313.346045200222;51.1250586580196
313.367651002877;50.9120445465038
313.389256805532;50.7243932238356
313.410862608187;50.5633472081207
313.432468410842;50.4165719686227
313.454074213496;50.2797869862978
313.475680016151;50.1554641639054
313.497285818806;50.044937136735
313.518891621461;49.9493992929072
313.540497424116;49.8536012722991
313.562103226771;49.7459789410712
313.583709029425;49.6309531677555
313.60531483208;49.5124133579181
313.626920634735;49.3890619000773
313.64852643739;49.2618569208439
313.670132240045;49.1367364136495
313.691738042699;49.0209300045295
313.713343845354;48.9113698925628
313.734949648009;48.8095090544981
313.756555450664;48.728284468531
313.778161253319;48.6730129650646
313.799767055973;48.6343583008948
313.821372858628;48.6050180871873
313.842978661283;48.5974604238133
313.864584463938;48.6448229550695
313.886190266593;48.7599363870125
313.907796069247;48.9201847249063
313.929401871902;49.1055237643053
313.951007674557;49.3109496947915
313.972613477212;49.5215417265531
313.994219279867;49.7233313489527
314.015825082521;49.913830251352
314.037430885176;50.0928767362094
314.059036687831;50.2541365628826
314.080642490486;50.3875419648521
314.102248293141;50.4845446314109
314.123854095796;50.5322852060442
314.14545989845;50.5209840541374
314.167065701105;50.4691705017788
314.18867150376;50.3888771818054
314.210277306415;50.2921938326828
314.23188310907;50.182627136779
314.253488911724;50.072507668512
314.275094714379;49.9764027014526
314.296700517034;49.8951243286523
314.318306319689;49.8344383537642
314.339912122344;49.8116184729438
314.361517924998;49.8382409077843
314.383123727653;49.9028971449089
314.404729530308;49.9876726236253
314.426335332963;50.0841581906874
314.447941135618;50.1974344814835
314.469546938272;50.3289461210761
314.491152740927;50.4683175132026
314.512758543582;50.6047898493499
314.534364346237;50.7202269145712
314.555970148892;50.8001861712358
314.577575951546;50.8485499916059
314.599181754201;50.8760624814639
314.620787556856;50.8844153273734
314.642393359511;50.8651452675651
314.663999162166;50.8139264358474
314.685604964821;50.7317667523161
314.707210767475;50.6220806744788
314.72881657013;50.5031979149143
314.750422372785;50.3850169031095
314.77202817544;50.2629710623323
314.793633978095;50.1352041116282
314.815239780749;50.0038158355603
314.836845583404;49.8745981536057
314.858451386059;49.7444732354016
314.880057188714;49.6079559534552
314.901662991369;49.4668695968722
314.923268794023;49.3277405805403
314.944874596678;49.1928749748109
314.966480399333;49.0678188960942
314.988086201988;48.9529231824624
315.009692004643;48.8401895635889
315.031297807297;48.725305489378
315.052903609952;48.6068830054083
315.074509412607;48.4694254759577
315.096115215262;48.3185635969482
315.117721017917;48.1691639234675
315.139326820572;48.0246860837295
315.160932623226;47.8763486375273
315.182538425881;47.7234190134891
315.204144228536;47.5649006412896
315.225750031191;47.3919356027852
315.247355833846;47.216683986594
315.2689616365;47.0560325795265
315.290567439155;46.9167533856843
315.31217324181;46.8129857082549
315.333779044465;46.753489077083
315.35538484712;46.7407808515286
315.376990649774;46.7760372650315
315.398596452429;46.8646750413518
315.420202255084;47.0052915385385
315.441808057739;47.1872409533909
315.463413860394;47.3991872023603
315.485019663048;47.6311015331575
315.506625465703;47.8706509681885
315.528231268358;48.1074513838086
315.549837071013;48.3379221181942
315.571442873668;48.5577108810573
315.593048676322;48.7554722111387
315.614654478977;48.9115787366871
315.636260281632;49.0269121721965
315.657866084287;49.1097037099534
315.679471886942;49.1485357354073
315.701077689597;49.1194267328121
315.722683492251;49.0100020606055
315.744289294906;48.8148569095795
315.765895097561;48.5348619253184
315.787500900216;48.1714858676266
315.809106702871;47.7154556156755
315.830712505525;47.1717858549202
315.85231830818;46.5641748453022
315.873924110835;45.9132464978468
315.89552991349;45.2378422704192
315.917135716145;44.5508695425015
315.938741518799;43.8837233890005
315.960347321454;43.2751012089542
315.981953124109;42.7336704636279
316.003558926764;42.260313808004
316.025164729419;41.8578106559041
316.046770532073;41.5266556238668
316.068376334728;41.2640099016997
316.089982137383;41.0653250081749
316.111587940038;40.9314111500624
316.133193742693;40.8687478132274
316.154799545347;40.8752865354146
316.176405348002;40.9320188380514
316.198011150657;41.0221778332885
316.219616953312;41.1325921028475
316.241222755967;41.2505816598072
316.262828558621;41.3671813203782
316.284434361276;41.4765578543316
316.306040163931;41.5770605027584
316.327645966586;41.6646862305717
316.349251769241;41.7353875949224
316.370857571896;41.7845131251072
316.39246337455;41.8105699556242
316.414069177205;41.8228660641643
316.43567497986;41.8330359391012
316.457280782515;41.8456629428614
316.47888658517;41.8641388670889
316.500492387824;41.8916413534037
316.522098190479;41.9235119378549
316.543703993134;41.9576630376112
316.565309795789;41.9901756645552
316.586915598444;42.0112418065442
316.608521401098;42.012670186049
316.630127203753;41.9824001575321
316.651733006408;41.9160576572685
316.673338809063;41.8142537806166
316.694944611718;41.6790084529873
316.716550414372;41.512810467712
316.738156217027;41.3208993386231
316.759762019682;41.1157152014133
316.781367822337;40.909132955931
316.802973624992;40.7046437824154
316.824579427646;40.5141314127513
316.846185230301;40.3487671334439
316.867791032956;40.2161098535847
316.889396835611;40.1270169701435
316.911002638266;40.0910743892327
316.93260844092;40.1074510832565
316.954214243575;40.178983105963
316.97582004623;40.3082719425598
316.997425848885;40.4858418715086
317.01903165154;40.7123895127658
317.040637454195;40.9877745722146
317.062243256849;41.3078982952632
317.083849059504;41.6784845807328
317.105454862159;42.1003458592429
317.127060664814;42.569425770126
317.148666467469;43.0642002613396
317.170272270123;43.5606246337121
317.191878072778;44.0501252190642
317.213483875433;44.5328542838951
317.235089678088;45.0024247865244
317.256695480743;45.4567492797187
317.278301283397;45.8897077201367
317.299907086052;46.2819168127922
317.321512888707;46.6110417469391
317.343118691362;46.8721498138406
317.364724494017;47.0764032150386
317.386330296671;47.2390926358406
317.407936099326;47.3676407986516
317.429541901981;47.4658840119978
317.451147704636;47.5388695976694
317.472753507291;47.5954696651995
317.494359309946;47.6590034824624
317.5159651126;47.7556586905519
317.537570915255;47.8750909996054
317.55917671791;48.0051814640377
317.580782520565;48.1445226542629
317.60238832322;48.2853033367519
317.623994125874;48.4204709933559
317.645599928529;48.5414007553311
317.667205731184;48.6334269448821
317.688811533839;48.6821484447596
317.710417336494;48.6749809335711
317.732023139148;48.5997011007833
317.753628941803;48.446085031421
317.775234744458;48.2059660351433
317.796840547113;47.879396526722
317.818446349768;47.4810709973713
317.840052152422;47.0188769715919
317.861657955077;46.4867253307181
317.883263757732;45.878532263687
317.904869560387;45.2046422248542
317.926475363042;44.4987826357193
317.948081165696;43.8095644788953
317.969686968351;43.1623324869319
317.991292771006;42.5557504452784
318.012898573661;41.9836113020434
318.034504376316;41.4481096044277
318.056110178971;40.9501071064678
318.077715981625;40.4923424057896
318.09932178428;40.0956325731527
318.120927586935;39.774588870414
318.14253338959;39.5217028445766
318.164139192245;39.3296899335975
318.185744994899;39.1962121425284
318.207350797554;39.1177447949531
318.228956600209;39.0847034268062
318.250562402864;39.088050782689
318.272168205519;39.1289395673822
318.293774008173;39.2074847231508
318.315379810828;39.3201050767045
318.336985613483;39.4603778521082
318.358591416138;39.6192865011048
318.380197218793;39.7966030667675
318.401803021447;40.0057996034243
318.423408824102;40.2543612689889
318.445014626757;40.523275962829
318.466620429412;40.8029021423751
318.488226232067;41.1042310130428
318.509832034721;41.4324497864752
318.531437837376;41.7798548103402
318.553043640031;42.1273600987837
318.574649442686;42.44952095995
318.596255245341;42.7419828295037
318.617861047996;43.0130407222712
318.63946685065;43.262761994949
318.661072653305;43.4673706500975
318.68267845596;43.6096561704883
318.704284258615;43.7005519740853
318.72589006127;43.7413544036104
318.747495863924;43.7244322060532
318.769101666579;43.6649087624821
318.790707469234;43.5766428010779
318.812313271889;43.4663612167369
318.833919074544;43.3347728813556
318.855524877198;43.1867873266091
318.877130679853;43.0191234045541
318.898736482508;42.8303976922558
318.920342285163;42.6390827662602
318.941948087818;42.4499122097391
318.963553890472;42.2505203649312
318.985159693127;42.0370036218361
319.006765495782;41.8216865278102
319.028371298437;41.6167553742418
319.049977101092;41.4276432126884
319.071582903746;41.2508941394866
319.093188706401;41.0823456940476
319.114794509056;40.9223002425996
319.136400311711;40.7792404184159
319.158006114366;40.6728835986055
319.179611917021;40.6141421677472
319.201217719675;40.6029595779803
319.22282352233;40.6447642253494
319.244429324985;40.7466299061099
319.26603512764;40.9219958690267
319.287640930295;41.1415024245639
319.309246732949;41.3846918205003
319.330852535604;41.6532841298292
319.352458338259;41.9463781104893
319.374064140914;42.2502084942279
319.395669943569;42.5382486945786
319.417275746223;42.7960581872616
319.438881548878;43.0107648860162
319.460487351533;43.1770445624731
319.482093154188;43.2899538542751
319.503698956843;43.3505021038586
319.525304759497;43.351802653042
319.546910562152;43.2816683045065
319.568516364807;43.1444909670574
319.590122167462;42.948707604579
319.611727970117;42.7014596152359
319.633333772771;42.4140453788893
319.654939575426;42.1090073383396
319.676545378081;41.8072541035254
319.698151180736;41.5158880586094
319.719756983391;41.2325019877826
319.741362786046;40.9560424625776
319.7629685887;40.6947331376038
319.784574391355;40.4561393632098
319.80618019401;40.2435103730492
319.827785996665;40.0555581789302
319.84939179932;39.8849724152328
319.870997601974;39.7323846065102
319.892603404629;39.6097203128968
319.914209207284;39.5237472568791
319.935815009939;39.4693789897838
319.957420812594;39.4474955149604
319.979026615248;39.4609081528455
320.000632417903;39.5071239958017
320.022238220558;39.5856176739671
320.043844023213;39.7040708253628
320.065449825868;39.8589644858933
320.087055628522;40.032411309465
320.108661431177;40.210420693393
320.130267233832;40.3869444369232
320.151873036487;40.558710959171
320.173478839142;40.7184665182549
320.195084641796;40.8581284938579
320.216690444451;40.971984243523
320.238296247106;41.0519711448529
320.259902049761;41.0949571145925
320.281507852416;41.1057038803316
320.30311365507;41.0954708870708
320.324719457725;41.068875089202
320.34632526038;41.0274201580028
320.367931063035;40.9765621110856
320.38953686569;40.9218982510932
320.411142668345;40.8643707180527
320.432748470999;40.7997828688277
320.454354273654;40.7265601035064
320.475960076309;40.6458935293178
320.497565878964;40.5588473797569
320.519171681619;40.4623304843844
320.540777484273;40.3477912773071
320.562383286928;40.2054353279507
320.583989089583;40.0285631369879
320.605594892238;39.8205371779597
320.627200694893;39.605977869742
320.648806497547;39.4030031505334
320.670412300202;39.2053441508199
320.692018102857;39.0031961367463
320.713623905512;38.8044196335783
320.735229708167;38.6362169256335
320.756835510821;38.5093535983273
320.778441313476;38.4210711757478
320.800047116131;38.3725636596884
320.821652918786;38.3689029433661
320.843258721441;38.4076128660462
320.864864524095;38.478016036142
320.88647032675;38.5743484018926
320.908076129405;38.695924542369
320.92968193206;38.8351991354275
320.951287734715;38.9743709047879
320.97289353737;39.0942791862213
320.994499340024;39.1768911844891
321.016105142679;39.2220607751608
321.037710945334;39.2235598078748
321.059316747989;39.1651592762868
321.080922550644;39.0399038467856
321.102528353298;38.8550779243204
321.124134155953;38.6047686908136
321.145739958608;38.2752364772102
321.167345761263;37.8691278016439
321.188951563918;37.4004907766715
321.210557366572;36.8873175954741
321.232163169227;36.3498621315619
321.253768971882;35.7957771298583
321.275374774537;35.2128080372261
321.296980577192;34.6024106644879
321.318586379846;33.9937872001554
321.340192182501;33.404279539726
321.361797985156;32.8328851297044
321.383403787811;32.2785663330156
321.405009590466;31.7433160444558
321.42661539312;31.2452640729667
321.448221195775;30.8219929385549
321.46982699843;30.4926255648641
321.491432801085;30.247711417415
321.51303860374;30.0802717373193
321.534644406395;29.9860078341405
321.556250209049;29.9668965459217
321.577856011704;30.0302125689765
321.599461814359;30.1710340803793
321.621067617014;30.3735714679324
321.642673419669;30.6320276695157
321.664279222323;30.9412110146235
321.685885024978;31.2880946348409
321.707490827633;31.6490613361301
321.729096630288;32.0359469377178
321.750702432943;32.4632105097764
321.772308235597;32.9085079856709
321.793914038252;33.3461959673151
321.815519840907;33.7798391579964
321.837125643562;34.220647511871
321.858731446217;34.6599310482501
321.880337248871;35.0919862227809
321.901943051526;35.5111924259265
321.923548854181;35.9161313495501
321.945154656836;36.3135853975374
321.966760459491;36.7109600111975
321.988366262145;37.1143014195234
322.0099720648;37.5224633315788
322.031577867455;37.9086328719843
322.05318367011;38.2479515462647
322.074789472765;38.5509387016358
322.09639527542;38.8524493229219
322.118001078074;39.1647915351307
322.139606880729;39.4915920407692
322.161212683384;39.8259219763911
322.182818486039;40.1568828551076
322.204424288694;40.474565291023
322.226030091348;40.780877568352
322.247635894003;41.080761279018
322.269241696658;41.3757740286284
322.290847499313;41.647544334024
322.312453301968;41.8814880249102
322.334059104622;42.0850490066948
322.355664907277;42.2524664358499
322.377270709932;42.3809728366093
322.398876512587;42.4771248971975
322.420482315242;42.5451967374788
322.442088117896;42.5830990216928
322.463693920551;42.5901429294902
322.485299723206;42.5700620171998
322.506905525861;42.5267233777467
322.528511328516;42.4586873831646
322.550117131171;42.3584315251866
322.571722933825;42.2163911041581
322.59332873648;42.0224840286337
322.614934539135;41.7720956122196
322.63654034179;41.4754767299527
322.658146144445;41.1520615665919
322.679751947099;40.8075548564277
322.701357749754;40.4355465540763
322.722963552409;40.042095706777
322.744569355064;39.6389893902592
322.766175157719;39.2227702052218
322.787780960373;38.7927479986941
322.809386763028;38.3528483573169
322.830992565683;37.8913773343021
322.852598368338;37.4075968508015
322.874204170993;36.9136617531836
322.895809973647;36.4228675070619
322.917415776302;35.9402251545942
322.939021578957;35.4676310528454
322.960627381612;35.0228032914139
322.982233184267;34.6436760779771
323.003838986921;34.3572287298885
323.025444789576;34.1566202398283
323.047050592231;34.0313338916581
323.068656394886;33.9829661503897
323.090262197541;33.9956457171225
323.111868000196;34.0701567549504
323.13347380285;34.1935860941228
323.155079605505;34.3462921447976
323.17668540816;34.511003803957
323.198291210815;34.6713899162168
323.21989701347;34.8320496559632
323.241502816124;34.980359476018
323.263108618779;35.0758529009618
323.284714421434;35.0910321122261
323.306320224089;35.0458430556935
323.327926026744;34.9524084691637
323.349531829398;34.8083200365582
323.371137632053;34.6337132950193
323.392743434708;34.4354363964882
323.414349237363;34.205122721199
323.435955040018;33.9442756708564
323.457560842672;33.6640870543163
323.479166645327;33.378314831257
323.500772447982;33.1012404636859
323.522378250637;32.8368579064778
323.543984053292;32.5840420875233
323.565589855946;32.3534907372024
323.587195658601;32.1597157808026
323.608801461256;32.0019139644101
323.630407263911;31.867513454227
323.652013066566;31.7531068702927
323.67361886922;31.6673415960783
323.695224671875;31.6155910594271
323.71683047453;31.5969764583275
323.738436277185;31.6077703060096
323.76004207984;31.6341170265423
323.781647882495;31.6604194488002
323.803253685149;31.6823233399151
323.824859487804;31.7001288866059
323.846465290459;31.7044261777245
323.868071093114;31.6847984185255
323.889676895769;31.6448790886852
323.911282698423;31.5941535132036
323.932888501078;31.5399505624853
323.954494303733;31.4950039452464
323.976100106388;31.4682795774638
323.997705909043;31.4630796938433
324.019311711697;31.4902418455979
324.040917514352;31.5575537307333
324.062523317007;31.6593735171125
324.084129119662;31.7822770338418
324.105734922317;31.9199180849839
324.127340724971;32.072838780294
324.148946527626;32.2362736116705
324.170552330281;32.3974573929882
324.192158132936;32.5447939543178
324.213763935591;32.6719992398303
324.235369738245;32.7714420964132
324.2569755409;32.8499762033471
324.278581343555;32.9184026641307
324.30018714621;32.9793669947868
324.321792948865;33.0340631868076
324.343398751519;33.0850689486213
324.365004554174;33.132844633368
324.386610356829;33.1792890262072
324.408216159484;33.2363175460051
324.429821962139;33.3085032618295
324.451427764794;33.3919769728215
324.473033567448;33.4665096215605
324.494639370103;33.5094162585726
324.516245172758;33.5167052562892
324.537850975413;33.489352624682
324.559456778068;33.4262835862915
324.581062580722;33.3253928024033
324.602668383377;33.1886933064274
324.624274186032;33.0116871156823
324.645879988687;32.7854844095816
324.667485791342;32.5079947354074
324.689091593996;32.1783244633723
324.710697396651;31.8188256963454
324.732303199306;31.4409228006741
324.753909001961;31.0357694543248
