Name;BF_ESR_01_Natural_Z_gon_0dg_result

Recipe
Accumulations;5;Number of accumulations
RetryCount;0;Number of retries on error
AbortOnError;True;Abort on error
EnableQFactorMeasurement;False;Enable/Disable q-Factor measurement
Bfrom;313;B from
Bto;363;B to
SweepTime;60;Sweep time
Modulation;0.2;Modulation
ModulationFreq;100;Modulation
BHoldEnabled;False;B hold enabled
BHold;0;B hold
MicrowavePower;2;Microwave power
MarkerEnabled;False;
MarkerStartField;0;
MarkerEndField;0;
Mode;;
KineticGFact;0;
KineticTotalTransientTime;0;
KineticTimeResolution;0;
TempFrom;5;
TempUseSlope;False;
TempTo;5;
TempdT;1;
TempSetupTime;0;
GonFrom;0;
GonTo;180;
GonSteps;20;
XRayEnabled;False;
XRayTime;3;
XRayVoltage;40;
XRayCurrent;0.5;
UVEnabled;False;
UVIntensity;0;
UVTime;0;
UVLeadTime;0;
UVWavelength;0;
PowSweepFrom;1;
PowSweepTo;5;
PowSweepSteps;5;
AmpModSweepFrom;0;
AmpModSweepTo;1;
AmpModSweepSteps;10;
ExtTriggerEnabled;False;
ExtTrigLeadTime;0;
ExtTrigOnTime;5;

Meas
BField [mT];MW_Absorption []
313.015495986938;51.8139766301132
313.03711481597;51.7155441968297
313.058733645001;51.6018538140851
313.080352474033;51.47050878246
313.101971303064;51.3190581934743
313.123590132096;51.1487913447156
313.145208961127;50.9646633379773
313.166827790158;50.7725795739112
313.18844661919;50.5693484562866
313.210065448221;50.3461615570288
313.231684277253;50.1047389124678
313.253303106284;49.8639413275569
313.274921935315;49.6435977758548
313.296540764347;49.4505861853537
313.318159593378;49.277375510537
313.33977842241;49.1117321678488
313.361397251441;48.9528232618178
313.383016080472;48.8123651448607
313.404634909504;48.7069632881001
313.426253738535;48.6337908148923
313.447872567567;48.5808704154997
313.469491396598;48.54157297352
313.49111022563;48.5114732355447
313.512729054661;48.4937643831697
313.534347883692;48.4995614352301
313.555966712724;48.5191710601907
313.577585541755;48.53646893722
313.599204370787;48.5587169882658
313.620823199818;48.6205063167226
313.642442028849;48.7214229944272
313.664060857881;48.8408029509047
313.685679686912;48.968684550497
313.707298515944;49.1034722135461
313.728917344975;49.2513993443564
313.750536174007;49.4108064773006
313.772155003038;49.5739285157056
313.793773832069;49.736150777187
313.815392661101;49.8904699791752
313.837011490132;50.0417505659436
313.858630319164;50.206307255813
313.880249148195;50.4009961558958
313.901867977227;50.6178249485582
313.923486806258;50.8330465010022
313.945105635289;51.0497675759857
313.966724464321;51.2798239054639
313.988343293352;51.5228391431711
314.009962122384;51.7675370076748
314.031580951415;51.9924308607662
314.053199780446;52.1903777042178
314.074818609478;52.359892117827
314.096437438509;52.4962004008533
314.118056267541;52.5872165676407
314.139675096572;52.6271367661399
314.161293925604;52.6172320552031
314.182912754635;52.557683085284
314.204531583666;52.4545252506227
314.226150412698;52.3201151504625
314.247769241729;52.1655839528579
314.269388070761;51.9956834108452
314.291006899792;51.817818618517
314.312625728823;51.6407410764523
314.334244557855;51.466375807825
314.355863386886;51.2953796110921
314.377482215918;51.131327869358
314.399101044949;50.9810807069762
314.42071987398;50.8529379676338
314.442338703012;50.748949405359
314.463957532043;50.6651008490427
314.485576361075;50.6051700820202
314.507195190106;50.5732204195121
314.528814019138;50.5712672281876
314.550432848169;50.5963909886806
314.5720516772;50.6551690902136
314.593670506232;50.7527659625279
314.615289335263;50.8910799141894
314.636908164295;51.0738464573761
314.658526993326;51.3030017833447
314.680145822357;51.5738490991357
314.701764651389;51.8740427608841
314.72338348042;52.1866399311394
314.745002309452;52.4856005772476
314.766621138483;52.7575858369789
314.788239967515;52.9991811731118
314.809858796546;53.2180034113549
314.831477625577;53.4089080783337
314.853096454609;53.5628538369793
314.87471528364;53.6793722921044
314.896334112672;53.765950431696
314.917952941703;53.8342935321575
314.939571770734;53.8823934529944
314.961190599766;53.901194586812
314.982809428797;53.8890268168727
315.004428257829;53.853212190246
315.02604708686;53.8027858868371
315.047665915892;53.7421151416926
315.069284744923;53.6728335671932
315.090903573954;53.5941815933488
315.112522402986;53.5013345307793
315.134141232017;53.3853077536125
315.155760061049;53.2416475804278
315.17737889008;53.075150651219
315.198997719111;52.8918667945585
315.220616548143;52.6956292180212
315.242235377174;52.4777267831492
315.263854206206;52.2261946773652
315.285473035237;51.9393742122917
315.307091864269;51.6178300744197
315.3287106933;51.2645161143811
315.350329522331;50.8833909317231
315.371948351363;50.4832104648851
315.393567180394;50.0850132677287
315.415186009426;49.6942163880233
315.436804838457;49.3087861537496
315.458423667488;48.9349532984568
315.48004249652;48.5790860903816
315.501661325551;48.2532843699191
315.523280154583;47.9768347422172
315.544898983614;47.7628917912541
315.566517812645;47.6107036240382
315.588136641677;47.5170848747002
315.609755470708;47.4674245938888
315.63137429974;47.4439745443344
315.652993128771;47.4450517697927
315.674611957803;47.4731062487319
315.696230786834;47.5246975656697
315.717849615865;47.5989149632668
315.739468444897;47.6896193964226
315.761087273928;47.7828944330693
315.78270610296;47.8594075961822
315.804324931991;47.901633308168
315.825943761022;47.9016051475538
315.847562590054;47.8648889198402
315.869181419085;47.8084419961967
315.890800248117;47.7388536634184
315.912419077148;47.6526360657181
315.93403790618;47.5539806099482
315.955656735211;47.4609637172738
315.977275564242;47.3857553854651
315.998894393274;47.3335115381044
316.020513222305;47.3049096740021
316.042132051337;47.2965564064897
316.063750880368;47.307063130733
316.085369709399;47.3391509270733
316.106988538431;47.3935612017917
316.128607367462;47.4601636065996
316.150226196494;47.526123935909
316.171845025525;47.5792782686822
316.193463854557;47.6103947149824
316.215082683588;47.6192360404833
316.236701512619;47.6073091175405
316.258320341651;47.5738672835804
316.279939170682;47.5228520636062
316.301557999714;47.4637787224356
316.323176828745;47.4025425180386
316.344795657776;47.3377478023111
316.366414486808;47.2742399070323
316.388033315839;47.2269778110174
316.409652144871;47.2030239072227
316.431270973902;47.2006971866243
316.452889802934;47.2197890290019
316.474508631965;47.2641222398293
316.496127460996;47.3347049717362
316.517746290028;47.4197277792505
316.539365119059;47.5100673300667
316.560983948091;47.6107070608962
316.582602777122;47.7264191433421
316.604221606153;47.850203831442
316.625840435185;47.9770149316409
316.647459264216;48.1104784581856
316.669078093248;48.2433422738005
316.690696922279;48.3667577760743
316.712315751311;48.4923419635957
316.733934580342;48.6203215608577
316.755553409373;48.7418732163966
316.777172238405;48.8498866423795
316.798791067436;48.9402227625361
316.820409896468;49.0154867312575
316.842028725499;49.0739858192606
316.86364755453;49.1040687280037
316.885266383562;49.1040475000189
316.906885212593;49.0773559367328
316.928504041625;49.0225990974518
316.950122870656;48.9412150090915
316.971741699688;48.8370641688389
316.993360528719;48.7146261825239
317.01497935775;48.5676292768376
317.036598186782;48.3879496873462
317.058217015813;48.1894648052168
317.079835844845;47.9838394111195
317.101454673876;47.7687852847773
317.123073502907;47.5506692680173
317.144692331939;47.3342507689139
317.16631116097;47.1182086307491
317.187929990002;46.9089067090603
317.209548819033;46.7197040929301
317.231167648065;46.5598521610382
317.252786477096;46.4275086010547
317.274405306127;46.3190875225454
317.296024135159;46.2332827839641
317.31764296419;46.181553404454
317.339261793222;46.1716516194044
317.360880622253;46.195367729241
317.382499451284;46.2287324394551
317.404118280316;46.2681163279912
317.425737109347;46.3126954271641
317.447355938379;46.3570969827324
317.46897476741;46.4025982713643
317.490593596442;46.4495943943261
317.512212425473;46.4954278827583
317.533831254504;46.5471739362037
317.555450083536;46.6112456779941
317.577068912567;46.6904019159565
317.598687741599;46.7829875251649
317.62030657063;46.893935680273
317.641925399661;47.0287331001786
317.663544228693;47.1797111148515
317.685163057724;47.3149092754728
317.706781886756;47.429525543759
317.728400715787;47.5258476163572
317.750019544818;47.6008089743189
317.77163837385;47.6545749866753
317.793257202881;47.6706105725318
317.814876031913;47.6507343641943
317.836494860944;47.6109838929443
317.858113689976;47.5539554913432
317.879732519007;47.4739940019512
317.901351348038;47.3747623063926
317.92297017707;47.2604501011384
317.944589006101;47.1349653785479
317.966207835133;47.007105913935
317.987826664164;46.8841899731385
318.009445493195;46.7692673976365
318.031064322227;46.6693156847183
318.052683151258;46.5972295582857
318.07430198029;46.5611580159303
318.095920809321;46.5659723979513
318.117539638353;46.6080241479596
318.139158467384;46.6756116411895
318.160777296415;46.7631372352925
318.182396125447;46.875632159472
318.204014954478;47.0213548882406
318.22563378351;47.1973663485032
318.247252612541;47.3863037952488
318.268871441572;47.5763685877713
318.290490270604;47.7719028549454
318.312109099635;47.9827763074625
318.333727928667;48.2023317695941
318.355346757698;48.4015681150329
318.37696558673;48.5667609943804
318.398584415761;48.7108020230966
318.420203244792;48.8444794208803
318.441822073824;48.9649276799558
318.463440902855;49.0672345702709
318.485059731887;49.1538452198982
318.506678560918;49.2273900348068
318.528297389949;49.2841941747793
318.549916218981;49.3211760059406
318.571535048012;49.3355794558438
318.593153877044;49.3147168289665
318.614772706075;49.2419021395938
318.636391535107;49.1199795576081
318.658010364138;48.9608897357455
318.679629193169;48.7540280849784
318.701248022201;48.4969378577707
318.722866851232;48.2141863406522
318.744485680264;47.9285949481681
318.766104509295;47.6335844115091
318.787723338326;47.3336045319084
318.809342167358;47.0476962787777
318.830960996389;46.7827668558332
318.852579825421;46.5334563383442
318.874198654452;46.3025325182736
318.895817483483;46.1066564039816
318.917436312515;45.9431429514955
318.939055141546;45.8131795693278
318.960673970578;45.7140102503581
318.982292799609;45.6370380706228
319.003911628641;45.5651940000176
319.025530457672;45.5014552157777
319.047149286703;45.4614184679164
319.068768115735;45.4472149167562
319.090386944766;45.446236554498
319.112005773798;45.4521374474059
319.133624602829;45.4668207180899
319.15524343186;45.4873260002948
319.176862260892;45.5124278781256
319.198481089923;45.5486931431176
319.220099918955;45.5986934075074
319.241718747986;45.6533527398291
319.263337577018;45.7047320791032
319.284956406049;45.7524592590504
319.30657523508;45.7964521196202
319.328194064112;45.8340840899885
319.349812893143;45.869336640682
319.371431722175;45.9065381264
319.393050551206;45.9452606332847
319.414669380237;45.9889311329417
319.436288209269;46.0394473782916
319.4579070383;46.0997235111526
319.479525867332;46.1819091267968
319.501144696363;46.2955111934565
319.522763525395;46.439456092596
319.544382354426;46.6026128243539
319.566001183457;46.783811215122
319.587620012489;46.9853535933314
319.60923884152;47.2059225145344
319.630857670552;47.4398478082437
319.652476499583;47.671967083058
319.674095328615;47.8777006781723
319.695714157646;48.0560743582829
319.717332986677;48.2253791099604
319.738951815709;48.3958736087864
319.76057064474;48.5527325978807
319.782189473772;48.6730609712869
319.803808302803;48.7473629022081
319.825427131834;48.7751159539628
319.847045960866;48.7524968751824
319.868664789897;48.6762933134912
319.890283618929;48.544924263581
319.91190244796;48.3657313635367
319.933521276991;48.1490738667648
319.955140106023;47.898569579818
319.976758935054;47.6165177125699
319.998377764086;47.3025338196479
320.019996593117;46.9667999427774
320.041615422149;46.6354673624995
320.06323425118;46.3193190553161
320.084853080211;46.0154292919054
320.106471909243;45.7250045703322
320.128090738274;45.455596149804
320.149709567306;45.2104252581518
320.171328396337;44.9729722436752
320.192947225368;44.7279642210327
320.2145660544;44.48839074689
320.236184883431;44.2573033165276
320.257803712463;44.0092848454006
320.279422541494;43.7318201399327
320.301041370526;43.429545622692
320.322660199557;43.1165730435374
320.344279028588;42.8025994145222
320.36589785762;42.4863736734499
320.387516686651;42.1589625422455
320.409135515683;41.8133685954704
320.430754344714;41.4474261782191
320.452373173745;41.0915899666233
320.473992002777;40.7687034363453
320.495610831808;40.4652269997014
320.51722966084;40.1718112495292
320.538848489871;39.8962970453613
320.560467318903;39.6602878541217
320.582086147934;39.4713586889136
320.603704976965;39.3189213895915
320.625323805997;39.199526876347
320.646942635028;39.1195073620333
320.66856146406;39.0778663426574
320.690180293091;39.0713428630135
320.711799122122;39.1027515598547
320.733417951154;39.1736392297511
320.755036780185;39.2779583980049
320.776655609217;39.4087461108689
320.798274438248;39.5512151625744
320.81989326728;39.6960920040611
320.841512096311;39.8421405574563
320.863130925342;39.9881649519073
320.884749754374;40.1369183208442
320.906368583405;40.2917090909729
320.927987412437;40.4510850709192
320.949606241468;40.6120078092114
320.971225070499;40.771564951296
320.992843899531;40.9237017920069
321.014462728562;41.0647400156747
321.036081557594;41.1903021306379
321.057700386625;41.2888874370613
321.079319215656;41.3493600414957
321.100938044688;41.3674489935777
321.122556873719;41.3385317514487
321.144175702751;41.2548874779245
321.165794531782;41.1085237149579
321.187413360814;40.9016090976775
321.209032189845;40.6497939723751
321.230651018876;40.3656503140424
321.252269847908;40.0590904570533
321.273888676939;39.7412586715191
321.295507505971;39.4227134342171
321.317126335002;39.1128116932142
321.338745164033;38.8190921593162
321.360363993065;38.5436780135987
321.381982822096;38.2888235953995
321.403601651128;38.0665571479286
321.425220480159;37.8866422029819
321.446839309191;37.7507795172391
321.468458138222;37.6548439971799
321.490076967253;37.5970637415966
321.511695796285;37.5859013347395
321.533314625316;37.6206191267293
321.554933454348;37.6874747821705
321.576552283379;37.779157944016
321.59817111241;37.8939048505576
321.619789941442;38.0232853146124
321.641408770473;38.1584114229106
321.663027599505;38.2997993125404
321.684646428536;38.4509116945727
321.706265257568;38.6137511838808
321.727884086599;38.7818460364588
321.74950291563;38.9491370454496
321.771121744662;39.111964906915
321.792740573693;39.2669944081062
321.814359402725;39.4183600713545
321.835978231756;39.5712931655866
321.857597060787;39.7193106864954
321.879215889819;39.8559213985109
321.90083471885;39.9810893961117
321.922453547882;40.0795567041715
321.944072376913;40.1383205268321
321.965691205945;40.1550251855852
321.987310034976;40.1352615693656
322.008928864007;40.0898143587105
322.030547693039;40.0193997664628
322.05216652207;39.9108915605073
322.073785351102;39.7638351121696
322.095404180133;39.5922782801186
322.117023009164;39.3990212103906
322.138641838196;39.1787015025912
322.160260667227;38.9394707948382
322.181879496259;38.738075113032
322.20349832529;38.5968740401743
322.225117154322;38.4970695651389
322.246735983353;38.4235009429026
322.268354812384;38.3691957768968
322.289973641416;38.3283381812652
322.311592470447;38.2881861580547
322.333211299479;38.2373528209151
322.35483012851;38.164763351013
322.376448957541;38.0603085636954
322.398067786573;37.918724857054
322.419686615604;37.7385009072049
322.441305444636;37.5212268276741
322.462924273667;37.2710538879365
322.484543102699;36.9964005716019
322.50616193173;36.6998896585569
322.527780760761;36.3719296018335
322.549399589793;36.0212408469338
322.571018418824;35.6988770410578
322.592637247856;35.4213359253947
322.614256076887;35.1747518575715
322.635874905918;34.9494682967589
322.65749373495;34.7410680117836
322.679112563981;34.5370106711681
322.700731393013;34.3350131100445
322.722350222044;34.1349046386479
322.743969051076;33.9383779926566
322.765587880107;33.7417797749484
322.787206709138;33.5363160382401
322.80882553817;33.3164306193609
322.830444367201;33.0887905888566
322.852063196233;32.8642078887022
322.873682025264;32.6511447219747
322.895300854295;32.4562885024696
322.916919683327;32.2913842476008
322.938538512358;32.1728772797945
322.96015734139;32.11308532697
322.981776170421;32.1137918678744
323.003394999453;32.1653586035234
323.025013828484;32.2619046401537
323.046632657515;32.3954761906689
323.068251486547;32.553511449129
323.089870315578;32.7290046226824
323.11148914461;32.9221760218402
323.133107973641;33.1200249607035
323.154726802672;33.3049298142339
323.176345631704;33.4653578668815
323.197964460735;33.6049121457426
323.219583289767;33.7263990919937
323.241202118798;33.8273528817506
323.262820947829;33.9035889954257
323.284439776861;33.9563817741933
323.306058605892;33.9900904907963
323.327677434924;34.0066934213758
323.349296263955;34.0072676743808
323.370915092987;33.9911547128327
323.392533922018;33.9619969191859
323.414152751049;33.9218565068317
323.435771580081;33.8764078969554
323.457390409112;33.8310263576898
323.479009238144;33.7811837214223
323.500628067175;33.7205407980244
323.522246896206;33.6447216402874
323.543865725238;33.5561804566054
323.565484554269;33.4589134019384
323.587103383301;33.3514670074095
323.608722212332;33.2336294716849
323.630341041364;33.1058706459303
323.651959870395;32.9676678372676
323.673578699426;32.8176018046167
323.695197528458;32.6591075156625
323.716816357489;32.4962354035018
323.738435186521;32.3276028324461
323.760054015552;32.1570390039639
323.781672844583;32.0053864853015
323.803291673615;31.872581715215
323.824910502646;31.7533507262934
323.846529331678;31.6487249585579
323.868148160709;31.5534624857795
323.889766989741;31.4671962151355
323.911385818772;31.3856418557854
323.933004647803;31.3078036801046
323.954623476835;31.2348837237957
323.976242305866;31.1557145487748
323.997861134898;31.0578840995385
324.019479963929;30.9488943891743
324.04109879296;30.8260322566054
324.062717621992;30.678713529214
324.084336451023;30.4982461038034
324.105955280055;30.3069350734064
324.127574109086;30.1223664926352
324.149192938117;29.9452816379171
324.170811767149;29.789147957404
324.19243059618;29.6621374619482
324.214049425212;29.5620819066194
324.235668254243;29.4826175364872
324.257287083275;29.4162104632821
324.278905912306;29.3572026327418
324.300524741337;29.3063962294098
324.322143570369;29.2645727978772
324.3437623994;29.225846860782
324.365381228432;29.187458401476
324.387000057463;29.1529495917569
324.408618886494;29.1219787009427
324.430237715526;29.0968858309712
324.451856544557;29.0760209160534
324.473475373589;29.061902575521
324.49509420262;29.065628870441
324.516713031652;29.0875996233302
324.538331860683;29.1175062309527
324.559950689714;29.149425391713
324.581569518746;29.1733009291584
324.603188347777;29.2034992673734
324.624807176809;29.2498536675835
324.64642600584;29.3098242942869
324.668044834871;29.3674292793784
324.689663663903;29.3740087907189
324.711282492934;29.3228345126703
324.732901321966;29.2262027566353
324.754520150997;29.0898770612098
