Name;BF_ESR_01_1800s_X_gon_0dg_result

Recipe
Accumulations;5;Number of accumulations
RetryCount;0;Number of retries on error
AbortOnError;True;Abort on error
EnableQFactorMeasurement;False;Enable/Disable q-Factor measurement
Bfrom;313;B from
Bto;363;B to
SweepTime;60;Sweep time
Modulation;0.2;Modulation
ModulationFreq;100;Modulation
BHoldEnabled;False;B hold enabled
BHold;0;B hold
MicrowavePower;2;Microwave power
MarkerEnabled;False;
MarkerStartField;0;
MarkerEndField;0;
Mode;;
KineticGFact;0;
KineticTotalTransientTime;0;
KineticTimeResolution;0;
TempFrom;5;
TempUseSlope;False;
TempTo;5;
TempdT;1;
TempSetupTime;0;
GonFrom;0;
GonTo;180;
GonSteps;20;
XRayEnabled;False;
XRayTime;3;
XRayVoltage;40;
XRayCurrent;0.5;
UVEnabled;False;
UVIntensity;0;
UVTime;0;
UVLeadTime;0;
UVWavelength;0;
PowSweepFrom;1;
PowSweepTo;5;
PowSweepSteps;5;
AmpModSweepFrom;0;
AmpModSweepTo;1;
AmpModSweepSteps;10;
ExtTriggerEnabled;False;
ExtTrigLeadTime;0;
ExtTrigOnTime;5;

Meas
BField [mT];MW_Absorption []
313.010483474731;135.623511032148
313.032092178536;135.431947862002
313.053700882341;135.215707760376
313.075309586145;134.972296938651
313.09691828995;134.713207330884
313.118526993755;134.443043123417
313.140135697559;134.164278608642
313.161744401364;133.890279292461
313.183353105169;133.636820180631
313.204961808974;133.405992373548
313.226570512778;133.19823113985
313.248179216583;133.012322443315
313.269787920388;132.842284392538
313.291396624192;132.687629661094
313.313005327997;132.559516417424
313.334614031802;132.454897839584
313.356222735606;132.358485005647
313.377831439411;132.265249827023
313.399440143216;132.180519344015
313.42104884702;132.10748113903
313.442657550825;132.041361845864
313.46426625463;131.975383686591
313.485874958434;131.907438254848
313.507483662239;131.840290147601
313.529092366044;131.76819136909
313.550701069848;131.679325494655
313.572309773653;131.567129222096
313.593918477458;131.430856442213
313.615527181262;131.28471378338
313.637135885067;131.143796981021
313.658744588872;131.007554270132
313.680353292676;130.868885652023
313.701961996481;130.714609933049
313.723570700286;130.546924481097
313.74517940409;130.38130863379
313.766788107895;130.223641320825
313.7883968117;130.07641623454
313.810005515504;129.939444280041
313.831614219309;129.815530724984
313.853222923114;129.704415933282
313.874831626918;129.598571759199
313.896440330723;129.501798619451
313.918049034528;129.428318529191
313.939657738332;129.391100834783
313.961266442137;129.38798728798
313.982875145942;129.402090213357
314.004483849747;129.443499310994
314.026092553551;129.514776416271
314.047701257356;129.609777731549
314.069309961161;129.724890046254
314.090918664965;129.852942873742
314.11252736877;129.98958276705
314.134136072575;130.13167008055
314.155744776379;130.271115430384
314.177353480184;130.398514832011
314.198962183989;130.514514552598
314.220570887793;130.614789777032
314.242179591598;130.692899931326
314.263788295403;130.753691102443
314.285396999207;130.803578389897
314.307005703012;130.84540610096
314.328614406817;130.885357153536
314.350223110621;130.928491147657
314.371831814426;130.976605524223
314.393440518231;131.034646856084
314.415049222035;131.106497876568
314.43665792584;131.184572424079
314.458266629645;131.254438956736
314.479875333449;131.307636066299
314.501484037254;131.340675143309
314.523092741059;131.352134427791
314.544701444863;131.343086696144
314.566310148668;131.317580126553
314.587918852473;131.279002170031
314.609527556277;131.229135232152
314.631136260082;131.179129180928
314.652744963887;131.144408275407
314.674353667691;131.129888991548
314.695962371496;131.141279367299
314.717571075301;131.193115688661
314.739179779105;131.304613843795
314.76078848291;131.494684437832
314.782397186715;131.757723436408
314.80400589052;132.086478564778
314.825614594324;132.484304905287
314.847223298129;132.948805407579
314.868832001934;133.469328209699
314.890440705738;134.038524954663
314.912049409543;134.649187576431
314.933658113348;135.283765725796
314.955266817152;135.921768668606
314.976875520957;136.549311246143
314.998484224762;137.165852613555
315.020092928566;137.764426434041
315.041701632371;138.316404251746
315.063310336176;138.802452018373
315.08491903998;139.217113639292
315.106527743785;139.565248473435
315.12813644759;139.847897757862
315.149745151394;140.059290503056
315.171353855199;140.203737055121
315.192962559004;140.30252902987
315.214571262808;140.364025598893
315.236179966613;140.387004674917
315.257788670418;140.386009156748
315.279397374222;140.375269247176
315.301006078027;140.367857482707
315.322614781832;140.384518772206
315.344223485636;140.438578490467
315.365832189441;140.529748121727
315.387440893246;140.653451073126
315.40904959705;140.803449927576
315.430658300855;140.983858935692
315.45226700466;141.200011081738
315.473875708465;141.444113178758
315.495484412269;141.692229472776
315.517093116074;141.921106243981
315.538701819879;142.118400444631
315.560310523683;142.278132829629
315.581919227488;142.401373725833
315.603527931293;142.483759924695
315.625136635097;142.506144506443
315.646745338902;142.457842213026
315.668354042707;142.351709276511
315.689962746511;142.19897909126
315.711571450316;141.99921926049
315.733180154121;141.75243953793
315.754788857925;141.466307316574
315.77639756173;141.151620663332
315.798006265535;140.841727031205
315.819614969339;140.553187267608
315.841223673144;140.277056028988
315.862832376949;140.034746549736
315.884441080753;139.8543294777
315.906049784558;139.725544809261
315.927658488363;139.629995686893
315.949267192167;139.571017485495
315.970875895972;139.556325081549
315.992484599777;139.579381782591
316.014093303581;139.620594651911
316.035702007386;139.676344654136
316.057310711191;139.746208356325
316.078919414995;139.8211573641
316.1005281188;139.880334143741
316.122136822605;139.904219118568
316.143745526409;139.887164888464
316.165354230214;139.830468444264
316.186962934019;139.731627687413
316.208571637823;139.584966727914
316.230180341628;139.392751022415
316.251789045433;139.16517109142
316.273397749238;138.911235224671
316.295006453042;138.636889262801
316.316615156847;138.34551573475
316.338223860652;138.051809558453
316.359832564456;137.783820718515
316.381441268261;137.550774349152
316.403049972066;137.345852935035
316.42465867587;137.159135917797
316.446267379675;136.990349035828
316.46787608348;136.844293650026
316.489484787284;136.714925895736
316.511093491089;136.587776807862
316.532702194894;136.447569042863
316.554310898698;136.290525569239
316.575919602503;136.123505664547
316.597528306308;135.946348027894
316.619137010112;135.756399962178
316.640745713917;135.565595053047
316.662354417722;135.383634230444
316.683963121526;135.212516863321
316.705571825331;135.052880814554
316.727180529136;134.906842775752
316.74878923294;134.780007384577
316.770397936745;134.67913720244
316.79200664055;134.604899611097
316.813615344354;134.551914968642
316.835224048159;134.515183216294
316.856832751964;134.484910408111
316.878441455768;134.445959672327
316.900050159573;134.393314311215
316.921658863378;134.331761945772
316.943267567182;134.265169342935
316.964876270987;134.184990839315
316.986484974792;134.083688435211
317.008093678596;133.960355479104
317.029702382401;133.813979091286
317.051311086206;133.647655974143
317.072919790011;133.464555305823
317.094528493815;133.271842894576
317.11613719762;133.082702415765
317.137745901425;132.90209847825
317.159354605229;132.72626513363
317.180963309034;132.554713588673
317.202572012839;132.398277870699
317.224180716643;132.261048078397
317.245789420448;132.137294493132
317.267398124253;132.029995607554
317.289006828057;131.940331985281
317.310615531862;131.865812874353
317.332224235667;131.807725025919
317.353832939471;131.769954125911
317.375441643276;131.751937153676
317.397050347081;131.75299052839
317.418659050885;131.775111083388
317.44026775469;131.810981216416
317.461876458495;131.851902987013
317.483485162299;131.893365382483
317.505093866104;131.940561108966
317.526702569909;132.0016012278
317.548311273713;132.069592612165
317.569919977518;132.123521477566
317.591528681323;132.137369416171
317.613137385127;132.115410924321
317.634746088932;132.060397709537
317.656354792737;131.976172538116
317.677963496541;131.86560864225
317.699572200346;131.727732322049
317.721180904151;131.555391420699
317.742789607956;131.347744101852
317.76439831176;131.121181308738
317.786007015565;130.892430785287
317.807615719369;130.67082441217
317.829224423174;130.461798664346
317.850833126979;130.267384204055
317.872441830784;130.080119562564
317.894050534588;129.885915544459
317.915659238393;129.672231832213
317.937267942198;129.433562769628
317.958876646002;129.175060068745
317.980485349807;128.914349012947
318.002094053612;128.656647064452
318.023702757416;128.401539523242
318.045311461221;128.142862802079
318.066920165026;127.88442162175
318.08852886883;127.649892225474
318.110137572635;127.444934569187
318.13174627644;127.263087026422
318.153354980244;127.098304065113
318.174963684049;126.955192450604
318.196572387854;126.83806454776
318.218181091658;126.744902823571
318.239789795463;126.669822776629
318.261398499268;126.604236297637
318.283007203072;126.53865719056
318.304615906877;126.467005894446
318.326224610682;126.3872033391
318.347833314486;126.301626666912
318.369442018291;126.214648216507
318.391050722096;126.126521301292
318.4126594259;126.037092737887
318.434268129705;125.948864826771
318.45587683351;125.865008901362
318.477485537314;125.789879394923
318.499094241119;125.724508780729
318.520702944924;125.665628323506
318.542311648729;125.608976565934
318.563920352533;125.551738606135
318.585529056338;125.492044131358
318.607137760143;125.424002035887
318.628746463947;125.352796534082
318.650355167752;125.279160000329
318.671963871557;125.193038032727
318.693572575361;125.08839584444
318.715181279166;124.968790038526
318.736789982971;124.842057518476
318.758398686775;124.712592262797
318.78000739058;124.583214559087
318.801616094385;124.448321782597
318.823224798189;124.294267368375
318.844833501994;124.116869391413
318.866442205799;123.919737756437
318.888050909603;123.712679540165
318.909659613408;123.506961604249
318.931268317213;123.308250364742
318.952877021017;123.116330819276
318.974485724822;122.922625756643
318.996094428627;122.735772471953
319.017703132431;122.582790022667
319.039311836236;122.457862873941
319.060920540041;122.353596707832
319.082529243845;122.273830973873
319.10413794765;122.214555662848
319.125746651455;122.158194625205
319.147355355259;122.086829323111
319.168964059064;122.001743628955
319.190572762869;121.9172397422
319.212181466673;121.827034746892
319.233790170478;121.723140466376
319.255398874283;121.609094622611
319.277007578087;121.487299465882
319.298616281892;121.363876887863
319.320224985697;121.242197556385
319.341833689502;121.113625494164
319.363442393306;120.966093685272
319.385051097111;120.804171622138
319.406659800916;120.63562612291
319.42826850472;120.455351133884
319.449877208525;120.263968682298
319.47148591233;120.072008943275
319.493094616134;119.867625490834
319.514703319939;119.637073311497
319.536312023744;119.372321273081
319.557920727548;119.095657363141
319.579529431353;118.839551634633
319.601138135158;118.596912014833
319.622746838962;118.358831405765
319.644355542767;118.124724176428
319.665964246572;117.889657166428
319.687572950376;117.652994501894
319.709181654181;117.432428080387
319.730790357986;117.232864344845
319.75239906179;117.039237919402
319.774007765595;116.8396474049
319.7956164694;116.628244309511
319.817225173204;116.40306492142
319.838833877009;116.172819325549
319.860442580814;115.957081261077
319.882051284618;115.761326478756
319.903659988423;115.575020858829
319.925268692228;115.397074229295
319.946877396032;115.235966936533
319.968486099837;115.100890546678
319.990094803642;114.999129879307
320.011703507447;114.933995487058
320.033312211251;114.914091777514
320.054920915056;114.955306344369
320.07652961886;115.061513861061
320.098138322665;115.21678500813
320.11974702647;115.405908298582
320.141355730275;115.628006007194
320.162964434079;115.874305421042
320.184573137884;116.129108570608
320.206181841689;116.384094150355
320.227790545493;116.621535714162
320.249399249298;116.82214901412
320.271007953103;116.974828095243
320.292616656907;117.067620976457
320.314225360712;117.080177703383
320.335834064517;117.009557483888
320.357442768321;116.843362272306
320.379051472126;116.577133503911
320.400660175931;116.227285784581
320.422268879735;115.826230597705
320.44387758354;115.385299029774
320.465486287345;114.895296328671
320.487094991149;114.370364876163
320.508703694954;113.840706026506
320.530312398759;113.310846483469
320.551921102563;112.787548905068
320.573529806368;112.293480931685
320.595138510173;111.858659820206
320.616747213977;111.494138419286
320.638355917782;111.191446380202
320.659964621587;110.947217111195
320.681573325391;110.761937283105
320.703182029196;110.630680321737
320.724790733001;110.547155477885
320.746399436805;110.511203075186
320.76800814061;110.519583054275
320.789616844415;110.560059274443
320.81122554822;110.616905260529
320.832834252024;110.673712045196
320.854442955829;110.705923785292
320.876051659634;110.692932437863
320.897660363438;110.634214986186
320.919269067243;110.534218567925
320.940877771048;110.385791270219
320.962486474852;110.173941203633
320.984095178657;109.89754919621
321.005703882462;109.561440792024
321.027312586266;109.166712275245
321.048921290071;108.708929045676
321.070529993876;108.188442330848
321.09213869768;107.613142801017
321.113747401485;107.000095441075
321.13535610529;106.381686048183
321.156964809094;105.775319337184
321.178573512899;105.17353451223
321.200182216704;104.568840577031
321.221790920508;103.986697422794
321.243399624313;103.460599792244
321.265008328118;102.998670090996
321.286617031922;102.601958390855
321.308225735727;102.276538985349
321.329834439532;102.020608115451
321.351443143336;101.837706777579
321.373051847141;101.74157082811
321.394660550946;101.728175462686
321.41626925475;101.780705170718
321.437877958555;101.888036194662
321.45948666236;102.043152620141
321.481095366164;102.233486053956
321.502704069969;102.434809340056
321.524312773774;102.626043942262
321.545921477578;102.80232856341
321.567530181383;102.955972393138
321.589138885188;103.075595890656
321.610747588993;103.167282642393
321.632356292797;103.233125879516
321.653964996602;103.268925517917
321.675573700407;103.283892237545
321.697182404211;103.287409692067
321.718791108016;103.287933153394
321.740399811821;103.288562070184
321.762008515625;103.291649582456
321.78361721943;103.308139029272
321.805225923235;103.344325059895
321.826834627039;103.398430176186
321.848443330844;103.474207599816
321.870052034649;103.568581061452
321.891660738453;103.670096562409
321.913269442258;103.773465037319
321.934878146063;103.874875911306
321.956486849867;103.969698362786
321.978095553672;104.053377955389
321.999704257477;104.128883432997
322.021312961281;104.200501262288
322.042921665086;104.265017761618
322.064530368891;104.316402297894
322.086139072695;104.351759661734
322.1077477765;104.369260921306
322.129356480305;104.358387101326
322.150965184109;104.311902549415
322.172573887914;104.227714841004
322.194182591719;104.09800072293
322.215791295523;103.921180639625
322.237399999328;103.712087459259
322.259008703133;103.467222269787
322.280617406937;103.158952921255
322.302226110742;102.779739469044
322.323834814547;102.356995569894
322.345443518351;101.923355474697
322.367052222156;101.493454110736
322.388660925961;101.04527874549
322.410269629766;100.552519230325
322.43187833357;99.9897102226681
322.453487037375;99.3646293757138
322.47509574118;98.7089170977933
322.496704444984;98.0287753429362
322.518313148789;97.3260545995554
322.539921852594;96.616748164254
322.561530556398;95.8847339216861
322.583139260203;95.111470251579
322.604747964008;94.31960985252
322.626356667812;93.5512857650879
322.647965371617;92.8535330226576
322.669574075422;92.2410485505151
322.691182779226;91.6729665668501
322.712791483031;91.14036745561
322.734400186836;90.6616206330067
322.75600889064;90.2561577526511
322.777617594445;89.9209781518173
322.79922629825;89.6430174566338
322.820835002054;89.4232024024126
322.842443705859;89.2490922807369
322.864052409664;89.0957644490797
322.885661113468;88.9492434389572
322.907269817273;88.8082254843314
322.928878521078;88.6654621390717
322.950487224882;88.501995146209
322.972095928687;88.3086600935155
322.993704632492;88.0861273669503
323.015313336296;87.8356661477685
323.036922040101;87.5552687449148
323.058530743906;87.2413182426137
323.080139447711;86.9002519917068
323.101748151515;86.5444480907362
323.12335685532;86.1752335050677
323.144965559125;85.8000906634664
323.166574262929;85.444164044202
323.188182966734;85.1172000135836
323.209791670539;84.8118620891702
323.231400374343;84.5255595151746
323.253009078148;84.2582218795522
323.274617781953;84.0107812681007
323.296226485757;83.7876841882678
323.317835189562;83.5909113877971
323.339443893367;83.4127592216008
323.361052597171;83.2430147556995
323.382661300976;83.0761204429999
323.404270004781;82.9162007884111
323.425878708585;82.7739497669462
323.44748741239;82.6643240979495
323.469096116195;82.5807470793939
323.490704819999;82.4985525841665
323.512313523804;82.4120545392207
323.533922227609;82.3299597269339
323.555530931413;82.2629958709234
323.577139635218;82.2167645608215
323.598748339023;82.1815763845715
323.620357042827;82.1448867032493
323.641965746632;82.1023158979208
323.663574450437;82.047771993839
323.685183154241;81.9772878307447
323.706791858046;81.8883560043086
323.728400561851;81.7782498432367
323.750009265655;81.6444364213903
323.77161796946;81.4862803275159
323.793226673265;81.2999341982424
323.814835377069;81.1092223979292
323.836444080874;80.9268057519124
323.858052784679;80.7376764949094
323.879661488484;80.5238807854955
323.901270192288;80.2772189451129
323.922878896093;80.0066192213775
323.944487599898;79.7312548900129
323.966096303702;79.4565094738344
323.987705007507;79.1759822812041
324.009313711312;78.8879941238602
324.030922415116;78.5997414472743
324.052531118921;78.3189580200198
324.074139822726;78.0463924920938
324.09574852653;77.7803061207987
324.117357230335;77.5324699227986
324.13896593414;77.3115907100534
324.160574637944;77.1025731955677
324.182183341749;76.8875803311489
324.203792045554;76.6717826054661
324.225400749358;76.4563233888054
324.247009453163;76.2269029462278
324.268618156968;75.9627688726848
324.290226860772;75.6589875706178
324.311835564577;75.3163952380058
324.333444268382;74.930546368723
324.355052972186;74.5015591704023
324.376661675991;74.0363840304411
324.398270379796;73.5546892319157
324.4198790836;73.0692752555034
324.441487787405;72.5740362174767
324.46309649121;72.0428658434724
324.484705195014;71.4621978131196
324.506313898819;70.8349588653388
324.527922602624;70.1662900126087
324.549531306428;69.4670690275882
324.571140010233;68.7534875776647
324.592748714038;68.0221018592278
324.614357417842;67.264196951923
324.635966121647;66.4945848029705
324.657574825452;65.7255186897169
324.679183529257;64.9469546502197
324.700792233061;64.138380480621
324.722400936866;63.2878918107257
324.744009640671;62.4030454118818
324.765618344475;61.5226514753449
