Name;BF_ESR_01_3600s_X_gon_0dg_result

Recipe
Accumulations;5;Number of accumulations
RetryCount;0;Number of retries on error
AbortOnError;True;Abort on error
EnableQFactorMeasurement;False;Enable/Disable q-Factor measurement
Bfrom;313;B from
Bto;363;B to
SweepTime;60;Sweep time
Modulation;0.2;Modulation
ModulationFreq;100;Modulation
BHoldEnabled;False;B hold enabled
BHold;0;B hold
MicrowavePower;2;Microwave power
MarkerEnabled;False;
MarkerStartField;0;
MarkerEndField;0;
Mode;;
KineticGFact;0;
KineticTotalTransientTime;0;
KineticTimeResolution;0;
TempFrom;5;
TempUseSlope;False;
TempTo;5;
TempdT;1;
TempSetupTime;0;
GonFrom;0;
GonTo;180;
GonSteps;20;
XRayEnabled;False;
XRayTime;3;
XRayVoltage;40;
XRayCurrent;0.5;
UVEnabled;False;
UVIntensity;0;
UVTime;0;
UVLeadTime;0;
UVWavelength;0;
PowSweepFrom;1;
PowSweepTo;5;
PowSweepSteps;5;
AmpModSweepFrom;0;
AmpModSweepTo;1;
AmpModSweepSteps;10;
ExtTriggerEnabled;False;
ExtTrigLeadTime;0;
ExtTrigOnTime;5;

Meas
BField [mT];MW_Absorption []
313.022395248413;97.8274638661994
313.044001109509;98.017865753286
313.065606970606;98.157571391518
313.087212831702;98.2631600742469
313.108818692798;98.3405831552673
313.130424553894;98.3693762556005
313.152030414991;98.3427684908016
313.173636276087;98.2734832243078
313.195242137183;98.1763578541484
313.216847998279;98.0543737753756
313.238453859375;97.9052364039469
313.260059720472;97.7339235591949
313.281665581568;97.5602172118003
313.303271442664;97.3948245182113
313.32487730376;97.2420960371101
313.346483164857;97.1051209260353
313.368089025953;96.9932452467966
313.389694887049;96.9083954771224
313.411300748145;96.8418693884109
313.432906609242;96.794429108563
313.454512470338;96.7683755777946
313.476118331434;96.7601924024627
313.49772419253;96.7580170172669
313.519330053626;96.7436859411783
313.540935914723;96.7124319499763
313.562541775819;96.6705200619769
313.584147636915;96.6176229018203
313.605753498011;96.5547143490948
313.627359359108;96.4910464167304
313.648965220204;96.4254388149878
313.6705710813;96.3564766121498
313.692176942396;96.2822847744607
313.713782803493;96.2065705958617
313.735388664589;96.1386465419659
313.756994525685;96.0898758606987
313.778600386781;96.0607424310387
313.800206247878;96.0442522711765
313.821812108974;96.043276903404
313.84341797007;96.0590012971434
313.865023831166;96.0838027475579
313.886629692262;96.10339609582
313.908235553359;96.1066387321967
313.929841414455;96.0979452309217
313.951447275551;96.0874865718881
313.973053136647;96.0734610811494
313.994658997744;96.0453502529913
314.01626485884;95.9964813920908
314.037870719936;95.9343524370214
314.059476581032;95.8710403125471
314.081082442129;95.8117557732026
314.102688303225;95.754749490066
314.124294164321;95.7004030324603
314.145900025417;95.6558998301529
314.167505886513;95.6335938591318
314.18911174761;95.646856597672
314.210717608706;95.6948593973371
314.232323469802;95.7717930533747
314.253929330898;95.878862948044
314.275535191995;96.0193139657965
314.297141053091;96.1914411594399
314.318746914187;96.3894644101845
314.340352775283;96.6124103292867
314.36195863638;96.8625119398961
314.383564497476;97.1401315770005
314.405170358572;97.4429882374323
314.426776219668;97.7653457525256
314.448382080765;98.0831859952711
314.469987941861;98.3902956609102
314.491593802957;98.6919493807544
314.513199664053;98.9869076375923
314.534805525149;99.2752618702197
314.556411386246;99.5495812463867
314.578017247342;99.7937336143718
314.599623108438;100.000246127934
314.621228969534;100.16092477625
314.642834830631;100.271542240911
314.664440691727;100.330455120784
314.686046552823;100.340610804483
314.707652413919;100.310291157856
314.729258275016;100.240918133373
314.750864136112;100.121778032195
314.772469997208;99.9502812486972
314.794075858304;99.7446265697634
314.8156817194;99.5325908592582
314.837287580497;99.3256538206336
314.858893441593;99.1196999127202
314.880499302689;98.9039359002016
314.902105163785;98.6798373827298
314.923711024882;98.4595336493107
314.945316885978;98.2548200887012
314.966922747074;98.0786049049864
314.98852860817;97.9355840238252
315.010134469267;97.8247706504581
315.031740330363;97.7390162690285
315.053346191459;97.6687018312778
315.074952052555;97.6124577719274
315.096557913652;97.5695414508572
315.118163774748;97.5365799579378
315.139769635844;97.5119295548467
315.16137549694;97.5040217897048
315.182981358036;97.5126451217492
315.204587219133;97.5228214038468
315.226193080229;97.5236726439053
315.247798941325;97.5196705700013
315.269404802421;97.5183527623362
315.291010663518;97.5248660782094
315.312616524614;97.5442770356213
315.33422238571;97.5762825034398
315.355828246806;97.6113612995093
315.377434107903;97.643588729193
315.399039968999;97.6763552622516
315.420645830095;97.7081692604999
315.442251691191;97.7348762162734
315.463857552287;97.7548537347997
315.485463413384;97.7599169868722
315.50706927448;97.746490454666
315.528675135576;97.7147176853948
315.550280996672;97.6638572853454
315.571886857769;97.5915403872628
315.593492718865;97.4972413409373
315.615098579961;97.3873403123811
315.636704441057;97.2713373601511
315.658310302154;97.1540194253843
315.67991616325;97.0321648727529
315.701522024346;96.9101333773787
315.723127885442;96.8025460732446
315.744733746539;96.7231627150681
315.766339607635;96.6637915905026
315.787945468731;96.6199920713321
315.809551329827;96.5954548036817
315.831157190923;96.6031926308345
315.85276305202;96.6446827727466
315.874368913116;96.7075081345991
315.895974774212;96.7829741116654
315.917580635308;96.8658559133944
315.939186496405;96.9550626398192
315.960792357501;97.049700259733
315.982398218597;97.1426231612263
316.004004079693;97.2330025337865
316.02560994079;97.3204077983595
316.047215801886;97.4009378391384
316.068821662982;97.4781898264948
316.090427524078;97.5565698669186
316.112033385175;97.6418044358314
316.133639246271;97.7395723088141
316.155245107367;97.850128669047
316.176850968463;97.9699582473993
316.198456829559;98.1072626799536
316.220062690656;98.263199134787
316.241668551752;98.4301928460571
316.263274412848;98.6090874874928
316.284880273944;98.7979713491411
316.306486135041;98.9911823272179
316.328091996137;99.1750155487336
316.349697857233;99.3373374803617
316.371303718329;99.4651499696919
316.392909579426;99.5424452156316
316.414515440522;99.5673577895097
316.436121301618;99.5484771200224
316.457727162714;99.4891007808144
316.47933302381;99.3852150855771
316.500938884907;99.242838927195
316.522544746003;99.0694076922727
316.544150607099;98.8920361825736
316.565756468195;98.737245882416
316.587362329292;98.6194193092515
316.608968190388;98.5359192145477
316.630574051484;98.4846096525776
316.65217991258;98.4710531293336
316.673785773677;98.5016653236123
316.695391634773;98.5758331809996
316.716997495869;98.6872059808198
316.738603356965;98.8304198556364
316.760209218062;98.9987756168851
316.781815079158;99.1821900980531
316.803420940254;99.3719925238819
316.82502680135;99.5722151390776
316.846632662446;99.7904992603057
316.868238523543;100.0137813488
316.889844384639;100.225607440539
316.911450245735;100.423605000403
316.933056106831;100.608056277042
316.954661967928;100.768888681128
316.976267829024;100.893588442772
316.99787369012;100.983917682979
317.019479551216;101.051591680464
317.041085412313;101.101501646992
317.062691273409;101.134227893886
317.084297134505;101.158051382271
317.105902995601;101.181398493492
317.127508856697;101.205932243159
317.149114717794;101.241199776484
317.17072057889;101.301136056781
317.192326439986;101.398762339478
317.213932301082;101.540733265817
317.235538162179;101.71459667393
317.257144023275;101.924393236532
317.278749884371;102.171346797311
317.300355745467;102.44459269693
317.321961606564;102.744275729382
317.34356746766;103.071084554147
317.365173328756;103.414342794833
317.386779189852;103.762410280125
317.408385050949;104.10937436358
317.429990912045;104.450497898278
317.451596773141;104.776477484342
317.473202634237;105.073157456467
317.494808495333;105.323099295937
317.51641435643;105.523573447097
317.538020217526;105.666554192026
317.559626078622;105.750726930744
317.581231939718;105.777500151179
317.602837800815;105.750311413291
317.624443661911;105.671149573238
317.646049523007;105.546045868695
317.667655384103;105.385294383349
317.6892612452;105.192228248961
317.710867106296;104.971103072335
317.732472967392;104.728417548949
317.754078828488;104.477831958589
317.775684689584;104.229582880964
317.797290550681;103.987040886495
317.818896411777;103.747092590781
317.840502272873;103.502408944944
317.862108133969;103.247966236817
317.883713995066;102.98160191146
317.905319856162;102.707583276442
317.926925717258;102.430558665558
317.948531578354;102.152299309911
317.970137439451;101.872999175207
317.991743300547;101.58372070898
318.013349161643;101.274971729395
318.034955022739;100.954270858932
318.056560883836;100.631670749398
318.078166744932;100.306046268225
318.099772606028;99.9660237675233
318.121378467124;99.6048123689789
318.14298432822;99.2219029173357
318.164590189317;98.8175074909252
318.186196050413;98.3697902319395
318.207801911509;97.8610835359799
318.229407772605;97.3310733402896
318.251013633702;96.8199760850912
318.272619494798;96.318810073306
318.294225355894;95.8052578204638
318.31583121699;95.2631540797428
318.337437078087;94.695055942333
318.359042939183;94.1217290138042
318.380648800279;93.5403715259497
318.402254661375;92.9672737865997
318.423860522472;92.4468811653717
318.445466383568;91.9882392756868
318.467072244664;91.575973936124
318.48867810576;91.206243716977
318.510283966856;90.8900293564261
318.531889827953;90.6365044489188
318.553495689049;90.4532382290751
318.575101550145;90.3546528205123
318.596707411241;90.3289621293117
318.618313272338;90.3569085743806
318.639919133434;90.4458331317762
318.66152499453;90.6057404969652
318.683130855626;90.8380560537318
318.704736716723;91.1298603596691
318.726342577819;91.4527754187192
318.747948438915;91.7970525968422
318.769554300011;92.1573824706361
318.791160161107;92.5126935406318
318.812766022204;92.8437650697565
318.8343718833;93.141724774144
318.855977744396;93.4016266848581
318.877583605492;93.6013624016163
318.899189466589;93.716089109632
318.920795327685;93.7305637789789
318.942401188781;93.6582275875454
318.964007049877;93.5146892175821
318.985612910974;93.3056606974104
319.00721877207;93.0350938766584
319.028824633166;92.7171586499839
319.050430494262;92.3770997620887
319.072036355359;92.0279131380859
319.093642216455;91.6837312050126
319.115248077551;91.3610098991459
319.136853938647;91.086728446533
319.158459799743;90.8844472980995
319.18006566084;90.754078540976
319.201671521936;90.6817725445992
319.223277383032;90.6639512196291
319.244883244128;90.7115876435935
319.266489105225;90.8303523708527
319.288094966321;91.0276938587561
319.309700827417;91.2933163854978
319.331306688513;91.6005905570801
319.35291254961;91.9343297560039
319.374518410706;92.2952280441202
319.396124271802;92.6729324006515
319.417730132898;93.04532419721
319.439335993994;93.4075254157859
319.460941855091;93.7570675233341
319.482547716187;94.0834572724216
319.504153577283;94.3939579143194
319.525759438379;94.7032669741425
319.547365299476;95.0328179505936
319.568971160572;95.3632398411149
319.590577021668;95.6743084461542
319.612182882764;95.9778124146248
319.633788743861;96.2978225830201
319.655394604957;96.6476844354174
319.677000466053;97.0247579198634
319.698606327149;97.4063173449108
319.720212188246;97.7900125255385
319.741818049342;98.1879825557519
319.763423910438;98.615962620596
319.785029771534;99.0773266697523
319.80663563263;99.5577181497314
319.828241493727;100.045656720689
319.849847354823;100.532350566149
319.871453215919;101.010469307237
319.893059077015;101.487313752866
319.914664938112;101.980495914546
319.936270799208;102.480383245862
319.957876660304;102.974773649253
319.9794825214;103.46194594536
320.001088382497;103.944359998162
320.022694243593;104.435465148082
320.044300104689;104.942837222202
320.065905965785;105.462980629337
320.087511826882;106.003932486546
320.109117687978;106.579491815461
320.130723549074;107.195110587606
320.15232941017;107.846624387937
320.173935271266;108.530250029431
320.195541132363;109.247693402351
320.217146993459;109.999933058644
320.238752854555;110.758875112136
320.260358715651;111.51300600332
320.281964576748;112.237211520218
320.303570437844;112.916884712712
320.32517629894;113.565977926738
320.346782160036;114.164363714027
320.368388021133;114.686561240994
320.389993882229;115.135257211191
320.411599743325;115.511393057976
320.433205604421;115.795839484986
320.454811465517;115.98870887599
320.476417326614;116.105170165962
320.49802318771;116.152074585263
320.519629048806;116.133725641395
320.541234909902;116.057255445656
320.562840770999;115.931266210754
320.584446632095;115.765128498137
320.606052493191;115.568823801689
320.627658354287;115.358082873999
320.649264215384;115.150543559445
320.67087007648;114.954506836949
320.692475937576;114.75321717046
320.714081798672;114.535856584527
320.735687659769;114.31851035006
320.757293520865;114.124988016135
320.778899381961;113.964231256668
320.800505243057;113.848112910149
320.822111104153;113.777273477788
320.84371696525;113.731913517504
320.865322826346;113.696018284959
320.886928687442;113.659677410325
320.908534548538;113.620420059995
320.930140409635;113.581627158071
320.951746270731;113.530523264935
320.973352131827;113.437893626961
320.994957992923;113.293730761415
321.01656385402;113.090781604151
321.038169715116;112.820643733902
321.059775576212;112.481058031236
321.081381437308;112.087565639803
321.102987298404;111.648910561227
321.124593159501;111.149527279815
321.146199020597;110.582449505777
321.167804881693;109.97347029214
321.189410742789;109.346039605066
321.211016603886;108.690474405564
321.232622464982;107.984265791711
321.254228326078;107.218203313136
321.275834187174;106.419988269255
321.297440048271;105.634094094097
321.319045909367;104.863252768658
321.340651770463;104.088602772409
321.362257631559;103.303567322068
321.383863492656;102.503695480605
321.405469353752;101.664983358382
321.427075214848;100.789120489658
321.448681075944;99.9187235066611
321.47028693704;99.0701644828385
321.491892798137;98.2471768839071
321.513498659233;97.4606786579121
321.535104520329;96.717381530706
321.556710381425;96.0240354255851
321.578316242522;95.379118359311
321.599922103618;94.7765941051583
321.621527964714;94.2163374300625
321.64313382581;93.7075729336425
321.664739686907;93.2504738061702
321.686345548003;92.8463472897169
321.707951409099;92.5048451198941
321.729557270195;92.2270330363665
321.751163131291;91.9970432742915
321.772768992388;91.8018031377273
321.794374853484;91.626145660289
321.81598071458;91.4537837620521
321.837586575676;91.2679189514572
321.859192436773;91.0547110381907
321.880798297869;90.805971974596
321.902404158965;90.5199331892927
321.924010020061;90.1917489424977
321.945615881158;89.8205571941971
321.967221742254;89.4175502043996
321.98882760335;88.9991880424986
322.010433464446;88.5742376533104
322.032039325543;88.1456577055764
322.053645186639;87.7192821612423
322.075251047735;87.3032014180193
322.096856908831;86.9032264570376
322.118462769927;86.5280477254723
322.140068631024;86.1881673454368
322.16167449212;85.8746810513373
322.183280353216;85.5733417664408
322.204886214312;85.2799828354241
322.226492075409;85.0019159918451
322.248097936505;84.7441687908738
322.269703797601;84.5026848202193
322.291309658697;84.2734370320663
322.312915519794;84.054137585873
322.33452138089;83.8379651468576
322.356127241986;83.6099366702763
322.377733103082;83.3628129641427
322.399338964178;83.1154107442063
322.420944825275;82.879150575354
322.442550686371;82.6411859255274
322.464156547467;82.3892038878307
322.485762408563;82.1152063706388
322.50736826966;81.8208387454919
322.528974130756;81.5093516848529
322.550579991852;81.2066759019235
322.572185852948;80.9396723820102
322.593791714045;80.7058293698044
322.615397575141;80.4910552182054
322.637003436237;80.2917612088164
322.658609297333;80.1139001304975
322.68021515843;79.969884371838
322.701821019526;79.873536443468
322.723426880622;79.8362300457805
322.745032741718;79.8554819417145
322.766638602814;79.9210142152382
322.788244463911;80.0205516504779
322.809850325007;80.1528782197597
322.831456186103;80.3077174767782
322.853062047199;80.456976301063
322.874667908296;80.5827607300934
322.896273769392;80.6800804471788
322.917879630488;80.7453570741242
322.939485491584;80.7808542084018
322.961091352681;80.8018740636773
322.982697213777;80.7943843967086
323.004303074873;80.7071979406006
323.025908935969;80.5426452584837
323.047514797066;80.3320454824057
323.069120658162;80.1022086641047
323.090726519258;79.8352200183502
323.112332380354;79.5355939369768
323.13393824145;79.2159684570612
323.155544102547;78.8665279971432
323.177149963643;78.4709490523217
323.198755824739;78.0347861218336
323.220361685835;77.5934138524575
323.241967546932;77.1715824246729
323.263573408028;76.7662196494478
323.285179269124;76.3534383656362
323.30678513022;75.9312108605199
323.328390991317;75.5365842075763
323.349996852413;75.1859134970407
323.371602713509;74.8892005013487
323.393208574605;74.6503900621101
323.414814435701;74.444666240909
323.436420296798;74.266008216676
323.458026157894;74.1133167268677
323.47963201899;73.9812802469231
323.501237880086;73.8566664604661
323.522843741183;73.7214243391138
323.544449602279;73.5681564021894
323.566055463375;73.3973881831424
323.587661324471;73.2023391748287
323.609267185568;72.9563751695537
323.630873046664;72.6462536177517
323.65247890776;72.2922927331581
323.674084768856;71.9094021491823
323.695690629953;71.4908843512582
323.717296491049;71.0238653133347
323.738902352145;70.4944206489896
323.760508213241;69.92313401791
323.782114074337;69.3579441645438
323.803719935434;68.81273062767
323.82532579653;68.2860838510757
323.846931657626;67.7902101607017
323.868537518722;67.3511680321051
323.890143379819;66.9683140911198
323.911749240915;66.6263066402927
323.933355102011;66.3188384096074
323.954960963107;66.0557559923131
323.976566824204;65.8653024550424
323.9981726853;65.7489866514467
324.019778546396;65.7008161361816
324.041384407492;65.7068227480727
324.062990268588;65.7627821109741
324.084596129685;65.8711362246309
324.106201990781;66.0300898005655
324.127807851877;66.2141614172876
324.149413712973;66.4154915438166
324.17101957407;66.6332323426172
324.192625435166;66.8363502039255
324.214231296262;67.0045201030841
324.235837157358;67.1437570045846
324.257443018455;67.268317060739
324.279048879551;67.3840849291996
324.300654740647;67.4868161795894
324.322260601743;67.5703940420717
324.34386646284;67.6314736330167
324.365472323936;67.6749364554125
324.387078185032;67.7077950603538
324.408684046128;67.7224174690402
324.430289907224;67.7123900412591
324.451895768321;67.6746619270233
324.473501629417;67.6002643339065
324.495107490513;67.4902579015728
324.516713351609;67.3533029810772
324.538319212706;67.1761553802908
324.559925073802;66.9425623660928
324.581530934898;66.6655911931544
324.603136795994;66.3632425228323
324.624742657091;66.0299763285629
324.646348518187;65.6586356422853
324.667954379283;65.2525378434197
324.689560240379;64.8284445401264
324.711166101476;64.3994236130048
324.732771962572;63.9792637832078
324.754377823668;63.58497843546
324.775983684764;63.2178848322028
