Name;BF_ESR_01_14400s_X_gon_20dg_result

Recipe
Accumulations;5;Number of accumulations
RetryCount;0;Number of retries on error
AbortOnError;True;Abort on error
EnableQFactorMeasurement;False;Enable/Disable q-Factor measurement
Bfrom;313;B from
Bto;363;B to
SweepTime;60;Sweep time
Modulation;0.2;Modulation
ModulationFreq;100;Modulation
BHoldEnabled;False;B hold enabled
BHold;0;B hold
MicrowavePower;2;Microwave power
MarkerEnabled;False;
MarkerStartField;0;
MarkerEndField;0;
Mode;;
KineticGFact;0;
KineticTotalTransientTime;0;
KineticTimeResolution;0;
TempFrom;5;
TempUseSlope;False;
TempTo;5;
TempdT;1;
TempSetupTime;0;
GonFrom;0;
GonTo;180;
GonSteps;20;
XRayEnabled;False;
XRayTime;3;
XRayVoltage;40;
XRayCurrent;0.5;
UVEnabled;False;
UVIntensity;0;
UVTime;0;
UVLeadTime;0;
UVWavelength;0;
PowSweepFrom;1;
PowSweepTo;5;
PowSweepSteps;5;
AmpModSweepFrom;0;
AmpModSweepTo;1;
AmpModSweepSteps;10;
ExtTriggerEnabled;False;
ExtTrigLeadTime;0;
ExtTrigOnTime;5;

Meas
BField [mT];MW_Absorption []
313.014555435181;121.314075835674
313.036163388025;122.595416506518
313.057771340869;123.826092688455
313.079379293712;125.02614534382
313.100987246556;126.236445076579
313.1225951994;127.502370504461
313.144203152244;128.835269703673
313.165811105088;130.20881677668
313.187419057932;131.583401953046
313.209027010776;132.959234891744
313.23063496362;134.379128309072
313.252242916464;135.880390466126
313.273850869307;137.461643237784
313.295458822151;138.994196481075
313.317066774995;140.504630629241
313.338674727839;142.090892655022
313.360282680683;143.80121678995
313.381890633527;145.57058306791
313.403498586371;147.285872897784
313.425106539215;148.890964607017
313.446714492059;150.394198383011
313.468322444903;151.853472692541
313.489930397746;153.309186063098
313.51153835059;154.764749671477
313.533146303434;156.210288777624
313.554754256278;157.597692831275
313.576362209122;158.896517351276
313.597970161966;160.107579885937
313.61957811481;161.26659197367
313.641186067654;162.428186076627
313.662794020498;163.615798410082
313.684401973342;164.792512301798
313.706009926186;165.923686596127
313.727617879029;167.060487124057
313.749225831873;168.242063274857
313.770833784717;169.456703512581
313.792441737561;170.675952114147
313.814049690405;171.939822083322
313.835657643249;173.287180248357
313.857265596093;174.695089769037
313.878873548937;176.096115756535
313.900481501781;177.503259635355
313.922089454624;179.010986009887
313.943697407468;180.616094006832
313.965305360312;182.250939652978
313.986913313156;183.878146401925
314.008521266;185.508154071754
314.030129218844;187.156972708683
314.051737171688;188.846401557114
314.073345124532;190.586693469742
314.094953077376;192.316740698454
314.11656103022;193.982306377696
314.138168983064;195.600605135532
314.159776935907;197.205694183314
314.181384888751;198.806859560332
314.202992841595;200.393262519011
314.224600794439;201.98373263307
314.246208747283;203.601391256968
314.267816700127;205.241518263624
314.289424652971;206.836941175251
314.311032605815;208.359786495579
314.332640558659;209.848980488217
314.354248511503;211.337091602161
314.375856464346;212.832105975184
314.39746441719;214.299007477366
314.419072370034;215.676698491941
314.440680322878;216.939095569557
314.462288275722;218.09868083968
314.483896228566;219.185585800522
314.50550418141;220.214191035556
314.527112134254;221.169300989118
314.548720087098;222.023911886727
314.570328039942;222.801752538854
314.591935992785;223.536576551593
314.613543945629;224.244337887067
314.635151898473;224.92714742759
314.656759851317;225.584753424898
314.678367804161;226.241815179413
314.699975757005;226.918358315655
314.721583709849;227.623030096036
314.743191662693;228.372251808923
314.764799615537;229.164540738719
314.786407568381;229.988268800664
314.808015521224;230.83596551502
314.829623474068;231.646216644129
314.851231426912;232.42908062349
314.872839379756;233.243756587781
314.8944473326;234.126142174841
314.916055285444;235.050670378974
314.937663238288;235.982688095202
314.959271191132;236.921829892305
314.980879143976;237.871544390906
315.002487096819;238.839676508551
315.024095049663;239.864917907683
315.045703002507;240.961519274382
315.067310955351;242.09879181618
315.088918908195;243.249478904036
315.110526861039;244.443389946396
315.132134813883;245.735079098756
315.153742766727;247.144198637161
315.175350719571;248.617166912786
315.196958672415;250.088068287287
315.218566625259;251.5306767712
315.240174578102;252.907760948719
315.261782530946;254.211999497669
315.28339048379;255.476470164173
315.304998436634;256.741678338113
315.326606389478;257.977249007809
315.348214342322;259.135601198106
315.369822295166;260.218274542921
315.39143024801;261.252570063365
315.413038200854;262.260669918864
315.434646153698;263.244701914775
315.456254106541;264.186783744611
315.477862059385;265.075365447205
315.499470012229;265.910960864066
315.521077965073;266.701758360551
315.542685917917;267.46014984861
315.564293870761;268.190666463255
315.585901823605;268.900219721295
315.607509776449;269.599878280241
315.629117729293;270.296364147059
315.650725682137;270.961886799762
315.67233363498;271.583838704564
315.693941587824;272.175416388868
315.715549540668;272.772190080129
315.737157493512;273.396912681707
315.758765446356;274.025703848962
315.7803733992;274.635432837696
315.801981352044;275.232725556563
315.823589304888;275.825742316905
315.845197257732;276.411685693219
315.866805210576;276.984524111232
315.888413163419;277.55114987805
315.910021116263;278.120314985374
315.931629069107;278.688475359526
315.953237021951;279.224457685646
315.974844974795;279.710252840215
315.996452927639;280.145287400742
316.018060880483;280.522427330027
316.039668833327;280.821214747155
316.061276786171;281.027508637731
316.082884739015;281.143060484659
316.104492691858;281.170716661728
316.126100644702;281.103514367035
316.147708597546;280.923491611168
316.16931655039;280.625742448272
316.190924503234;280.21869285122
316.212532456078;279.717471860618
316.234140408922;279.134824956414
316.255748361766;278.462454764738
316.27735631461;277.691757935888
316.298964267454;276.853046759261
316.320572220297;275.96783531875
316.342180173141;275.026269409191
316.363788125985;274.03653631402
316.385396078829;273.050332472628
316.407004031673;272.100401252331
316.428611984517;271.1541091095
316.450219937361;270.164603155398
316.471827890205;269.12090567788
316.493435843049;268.048215280593
316.515043795893;266.977719048728
316.536651748736;265.926787080249
316.55825970158;264.898204133493
316.579867654424;263.858602518463
316.601475607268;262.776035702816
316.623083560112;261.662937505944
316.644691512956;260.538583229375
316.6662994658;259.390984249228
316.687907418644;258.205419477887
316.709515371488;257.022947636686
316.731123324332;255.87669132279
316.752731277175;254.710147751933
316.774339230019;253.498858597534
316.795947182863;252.250284627951
316.817555135707;250.953684382531
316.839163088551;249.645642350126
316.860771041395;248.359118495297
316.882378994239;247.072886541348
316.903986947083;245.747538273739
316.925594899927;244.380267534291
316.947202852771;242.983508810671
316.968810805614;241.542002886278
316.990418758458;240.034060347242
317.012026711302;238.468484492031
317.033634664146;236.852543358937
317.05524261699;235.240768679503
317.076850569834;233.664955504653
317.098458522678;232.125005373626
317.120066475522;230.599705366037
317.141674428366;229.046780271267
317.16328238121;227.44672935397
317.184890334053;225.826655043488
317.206498286897;224.224932519761
317.228106239741;222.645345875206
317.249714192585;221.074582129196
317.271322145429;219.507961272047
317.292930098273;217.933698361908
317.314538051117;216.362306991157
317.336146003961;214.815499746597
317.357753956805;213.254151247956
317.379361909649;211.651527776586
317.400969862492;210.006532602515
317.422577815336;208.30124438942
317.44418576818;206.512748106393
317.465793721024;204.615101576865
317.487401673868;202.62329160056
317.509009626712;200.604393473329
317.530617579556;198.576971554827
317.5522255324;196.504955285544
317.573833485244;194.361410313674
317.595441438088;192.142632339746
317.617049390931;189.864603469508
317.638657343775;187.555461970171
317.660265296619;185.226274482351
317.681873249463;182.858885622455
317.703481202307;180.46414718747
317.725089155151;178.105391167858
317.746697107995;175.820143789334
317.768305060839;173.583252907433
317.789913013683;171.441383156759
317.811520966527;169.38051259585
317.83312891937;167.34423093094
317.854736872214;165.292267360938
317.876344825058;163.210030832224
317.897952777902;161.133361779475
317.919560730746;159.088105570539
317.94116868359;157.047929616255
317.962776636434;155.090575547175
317.984384589278;153.214122418167
318.005992542122;151.305976648803
318.027600494966;149.302907877429
318.049208447809;147.26499213275
318.070816400653;145.295952106166
318.092424353497;143.359916118364
318.114032306341;141.39569268372
318.135640259185;139.411906462199
318.157248212029;137.427436840697
318.178856164873;135.423000011984
318.200464117717;133.394262373764
318.222072070561;131.411188443551
318.243680023405;129.510390988985
318.265287976248;127.656923415716
318.286895929092;125.832596038959
318.308503881936;124.073688791264
318.33011183478;122.421509605969
318.351719787624;120.915017417198
318.373327740468;119.537947294092
318.394935693312;118.247641233809
318.416543646156;116.988518039629
318.438151599;115.749175828211
318.459759551844;114.560346583311
318.481367504687;113.474900980395
318.502975457531;112.500745110415
318.524583410375;111.599490181219
318.546191363219;110.742495490134
318.567799316063;109.917888078646
318.589407268907;109.129019790558
318.611015221751;108.388799156336
318.632623174595;107.695016817159
318.654231127439;107.032255208799
318.675839080283;106.395153546106
318.697447033126;105.79549084835
318.71905498597;105.221743519284
318.740662938814;104.6398677137
318.762270891658;104.066265012977
318.783878844502;103.52996220612
318.805486797346;103.012123682352
318.82709475019;102.508239670571
318.848702703034;102.030697465864
318.870310655878;101.578350229842
318.891918608722;101.137462423369
318.913526561566;100.701125818517
318.935134514409;100.281976481903
318.956742467253;99.884322038215
318.978350420097;99.5070097786456
318.999958372941;99.148284435033
319.021566325785;98.7959510093419
319.043174278629;98.4622601613672
319.064782231473;98.1587765160278
319.086390184317;97.8743387787059
319.107998137161;97.5899474247594
319.129606090004;97.2814241112675
319.151214042848;96.9333558850095
319.172821995692;96.5490056237748
319.194429948536;96.1240257624353
319.21603790138;95.6452396936851
319.237645854224;95.1070193332918
319.259253807068;94.4977288353502
319.280861759912;93.7928109739955
319.302469712756;92.9794047336895
319.3240776656;92.1115946843003
319.345685618444;91.2139436323799
319.367293571287;90.2366479693355
319.388901524131;89.138331843014
319.410509476975;87.9360462314673
319.432117429819;86.6741649970951
319.453725382663;85.3852675145841
319.475333335507;84.0592536869199
319.496941288351;82.6932299958197
319.518549241195;81.3309579783287
319.540157194039;79.9657094304707
319.561765146882;78.5956070490826
319.583373099726;77.221891452863
319.60498105257;75.8313993279637
319.626589005414;74.3995678501077
319.648196958258;72.9304947928595
319.669804911102;71.391149797897
319.691412863946;69.8140642747728
319.71302081679;68.2378000981172
319.734628769634;66.6378241621231
319.756236722478;65.0280458810458
319.777844675321;63.4189195018368
319.799452628165;61.7349683445658
319.821060581009;59.8977491400683
319.842668533853;57.9944142624691
319.864276486697;56.1652313458562
319.885884439541;54.416151866342
319.907492392385;52.6850253313102
319.929100345229;50.9256930486932
319.950708298073;49.160592785187
319.972316250917;47.4456110236325
319.993924203761;45.8316877111461
320.015532156604;44.3413802454326
320.037140109448;42.9334074082429
320.058748062292;41.5705658158183
320.080356015136;40.2356470828005
320.10196396798;38.9237114390654
320.123571920824;37.6513208003587
320.145179873668;36.4841369505412
320.166787826512;35.4081086319178
320.188395779356;34.3626455422691
320.210003732199;33.320969667587
320.231611685043;32.3117645498593
320.253219637887;31.3333279823275
320.274827590731;30.3599430028504
320.296435543575;29.3734515835994
320.318043496419;28.3519040701931
320.339651449263;27.2742113116301
320.361259402107;26.1352380831324
320.382867354951;24.9467861099409
320.404475307795;23.7066800761173
320.426083260639;22.4022886284627
320.447691213482;21.0425028307358
320.469299166326;19.6519657237309
320.49090711917;18.2917324289072
320.512515072014;16.9973374946241
320.534123024858;15.7683087270852
320.555730977702;14.5827884707051
320.577338930546;13.427605572143
320.59894688339;12.3213379026272
320.620554836234;11.2859639503818
320.642162789078;10.3183612362334
320.663770741921;9.41547887824008
320.685378694765;8.59162309177052
320.706986647609;7.85074566116323
320.728594600453;7.19009047072188
320.750202553297;6.60485883381085
320.771810506141;6.09187616710012
320.793418458985;5.64642851900528
320.815026411829;5.26897060814355
320.836634364673;4.95163345131424
320.858242317517;4.6813551224751
320.87985027036;4.4457547178429
320.901458223204;4.2311789501035
320.923066176048;4.02424892056567
320.944674128892;3.816730541775
320.966282081736;3.6040615966118
320.98789003458;3.37166602636495
321.009497987424;3.09825879320958
321.031105940268;2.78862454877738
321.052713893112;2.46419098553282
321.074321845956;2.13006002535182
321.095929798799;1.77904937754757
321.117537751643;1.42901323281967
321.139145704487;1.10067617685749
321.160753657331;0.79986063488613
321.182361610175;0.533789496326278
321.203969563019;0.315739736511702
321.225577515863;0.158938312285429
321.247185468707;0.0938622479313125
321.268793421551;0.137664929107459
321.290401374394;0.284733712458333
321.312009327238;0.545071984044213
321.333617280082;0.947625352568267
321.355225232926;1.47884380004896
321.37683318577;2.09635120762961
321.398441138614;2.79386691664065
321.420049091458;3.57676106153514
321.441657044302;4.45281256816416
321.463264997146;5.44406613009589
321.48487294999;6.55260612555347
321.506480902834;7.73812712171004
321.528088855677;8.95103002098054
321.549696808521;10.1808680500466
321.571304761365;11.4014033600374
321.592912714209;12.5825293031946
321.614520667053;13.7220777004304
321.636128619897;14.8386501406119
321.657736572741;15.9556469210445
321.679344525585;17.0782223726255
321.700952478429;18.1750996242144
321.722560431273;19.2275351964446
321.744168384116;20.2635712605178
321.76577633696;21.3067055872196
321.787384289804;22.3363107071507
321.808992242648;23.3265245980587
321.830600195492;24.2774386080416
321.852208148336;25.2083455755012
321.87381610118;26.1358099806961
321.895424054024;27.0642585952716
321.917032006868;27.9803692942735
321.938639959712;28.8661062141173
321.960247912555;29.6980145094058
321.981855865399;30.4745998368845
322.003463818243;31.2221477425467
322.025071771087;31.974330619902
322.046679723931;32.748299236534
322.068287676775;33.548324225816
322.089895629619;34.3633659425584
322.111503582463;35.1950808430782
322.133111535307;36.0608753941457
322.154719488151;36.9759856148711
322.176327440994;37.9380919909392
322.197935393838;38.9224180091737
322.219543346682;39.9111821355623
322.241151299526;40.8842883472479
322.26275925237;41.8460342946712
322.284367205214;42.802411685507
322.305975158058;43.7318070479009
322.327583110902;44.6114894557138
322.349191063746;45.42513371184
322.37079901659;46.1732576382689
322.392406969433;46.8980316874456
322.414014922277;47.6241036612408
322.435622875121;48.360939835222
322.457230827965;49.1172078557463
322.478838780809;49.899480809992
322.500446733653;50.702874574854
322.522054686497;51.5069752574414
322.543662639341;52.3094412633638
322.565270592185;53.1257796339409
322.586878545029;53.9671958211866
322.608486497872;54.8387995897469
322.630094450716;55.7462521450975
322.65170240356;56.6816072273263
322.673310356404;57.6098117420346
322.694918309248;58.5064656253333
322.716526262092;59.3529760802555
322.738134214936;60.1461154232421
322.75974216778;60.8928512133545
322.781350120624;61.5905447651208
322.802958073468;62.2320962535192
322.824566026311;62.8127262396951
322.846173979155;63.3602398812939
322.867781931999;63.9050231252533
322.889389884843;64.4589286708968
322.910997837687;65.0086583809915
322.932605790531;65.53168541291
322.954213743375;66.0128064955718
322.975821696219;66.4637370705405
322.997429649063;66.9060699239879
323.019037601907;67.3404259665679
323.04064555475;67.7735896551303
323.062253507594;68.2197604878456
323.083861460438;68.6810752648574
323.105469413282;69.1386611899555
323.127077366126;69.5794119205546
323.14868531897;70.0149228564716
323.170293271814;70.4680517208904
323.191901224658;70.9524570841915
323.213509177502;71.4753029286215
323.235117130346;72.0421795294244
323.256725083189;72.6481091757179
323.278333036033;73.2896374035321
323.299940988877;73.973549522791
323.321548941721;74.6902811657568
323.343156894565;75.4169727443184
323.364764847409;76.134205303012
323.386372800253;76.8268139854125
323.407980753097;77.4788447430741
323.429588705941;78.080568151924
323.451196658785;78.6308144042206
323.472804611628;79.1463473839618
323.494412564472;79.6480515572939
323.516020517316;80.1358410573193
323.53762847016;80.6098391441863
323.559236423004;81.0798458789199
323.580844375848;81.5597253596714
323.602452328692;82.0493294130623
323.624060281536;82.55824815879
323.64566823438;83.1002193327829
323.667276187224;83.6667964169726
323.688884140067;84.2626180328
323.710492092911;84.9069502944397
323.732100045755;85.601735650518
323.753707998599;86.3188776912867
323.775315951443;87.0435500809839
323.796923904287;87.7740613799485
323.818531857131;88.5065210380446
323.840139809975;89.238585905059
323.861747762819;89.9749467048493
323.883355715663;90.7302301610833
323.904963668506;91.4899358754204
323.92657162135;92.21931053601
323.948179574194;92.9134734620476
323.969787527038;93.5924327268614
323.991395479882;94.2674777095587
324.013003432726;94.9364752120891
324.03461138557;95.5837707991218
324.056219338414;96.2314105397183
324.077827291258;96.9161768562086
324.099435244102;97.6052033718853
324.121043196945;98.2717658279824
324.142651149789;98.9003175883338
324.164259102633;99.5003784915352
324.185867055477;100.084079493553
324.207475008321;100.662548285302
324.229082961165;101.228329138015
324.250690914009;101.754460423559
324.272298866853;102.242371511128
324.293906819697;102.696133264552
324.315514772541;103.083465985372
324.337122725384;103.402787138003
324.358730678228;103.672807277258
324.380338631072;103.900890820911
324.401946583916;104.082997382435
324.42355453676;104.203153247695
324.445162489604;104.258889548298
324.466770442448;104.263422879607
324.488378395292;104.202530560128
324.509986348136;104.076871274052
324.53159430098;103.888352381741
324.553202253823;103.630150106321
324.574810206667;103.302709080713
324.596418159511;102.898579728135
324.618026112355;102.407874117418
324.639634065199;101.840888289988
324.661242018043;101.20088261626
324.682849970887;100.492348157378
324.704457923731;99.7362632783118
324.726065876575;98.9458409609626
324.747673829419;98.09917621993
324.769281782262;97.1658414012511
