Name;BF_ESR_01_14400s_X_gon_100dg_result

Recipe
Accumulations;5;Number of accumulations
RetryCount;0;Number of retries on error
AbortOnError;True;Abort on error
EnableQFactorMeasurement;False;Enable/Disable q-Factor measurement
Bfrom;313;B from
Bto;363;B to
SweepTime;60;Sweep time
Modulation;0.2;Modulation
ModulationFreq;100;Modulation
BHoldEnabled;False;B hold enabled
BHold;0;B hold
MicrowavePower;2;Microwave power
MarkerEnabled;False;
MarkerStartField;0;
MarkerEndField;0;
Mode;;
KineticGFact;0;
KineticTotalTransientTime;0;
KineticTimeResolution;0;
TempFrom;5;
TempUseSlope;False;
TempTo;5;
TempdT;1;
TempSetupTime;0;
GonFrom;0;
GonTo;180;
GonSteps;20;
XRayEnabled;False;
XRayTime;3;
XRayVoltage;40;
XRayCurrent;0.5;
UVEnabled;False;
UVIntensity;0;
UVTime;0;
UVLeadTime;0;
UVWavelength;0;
PowSweepFrom;1;
PowSweepTo;5;
PowSweepSteps;5;
AmpModSweepFrom;0;
AmpModSweepTo;1;
AmpModSweepSteps;10;
ExtTriggerEnabled;False;
ExtTrigLeadTime;0;
ExtTrigOnTime;5;

Meas
BField [mT];MW_Absorption []
313.02166053772;89.8260424787309
313.043269252909;89.5439670863552
313.064877968098;89.2162851741623
313.086486683288;88.9147574001912
313.108095398477;88.6403624904621
313.129704113667;88.392620747646
313.151312828856;88.1917481557247
313.172921544045;88.0508327529542
313.194530259235;87.9680278390892
313.216138974424;87.9403521848757
313.237747689613;87.9647128692296
313.259356404803;88.0277774428457
313.280965119992;88.1187703591056
313.302573835182;88.2357377108399
313.324182550371;88.3809413855665
313.34579126556;88.5551983903404
313.36739998075;88.7510187016855
313.389008695939;88.9603085907372
313.410617411128;89.1855438102531
313.432226126318;89.434877297519
313.453834841507;89.7134035015158
313.475443556697;90.0160215836783
313.497052271886;90.3328527440516
313.518660987075;90.6618057181068
313.540269702265;91.008621062069
313.561878417454;91.3629045952915
313.583487132643;91.7065419757825
313.605095847833;92.0338066463311
313.626704563022;92.3458479183224
313.648313278211;92.6226744328902
313.669921993401;92.8414873064021
313.69153070859;93.0045095345801
313.71313942378;93.1190829743646
313.734748138969;93.1808155254797
313.756356854158;93.193455877853
313.777965569348;93.1764211288027
313.799574284537;93.1553583413512
313.821182999726;93.1459548436764
313.842791714916;93.1509116428369
313.864400430105;93.1737886812322
313.886009145295;93.2188828957319
313.907617860484;93.291237447385
313.929226575673;93.3835924506156
313.950835290863;93.4889381178541
313.972444006052;93.5949586134273
313.994052721241;93.6895581643296
314.015661436431;93.7646801590803
314.03727015162;93.81421038894
314.058878866809;93.8439338851858
314.080487581999;93.8623487291445
314.102096297188;93.8678585561334
314.123705012378;93.8620135615864
314.145313727567;93.849257021583
314.166922442756;93.8272757292735
314.188531157946;93.7980794144663
314.210139873135;93.7743490585605
314.231748588324;93.7559741980243
314.253357303514;93.7341559310128
314.274966018703;93.7046673398475
314.296574733893;93.6584923190856
314.318183449082;93.5883441628392
314.339792164271;93.4978793543547
314.361400879461;93.387955986305
314.38300959465;93.2465688861752
314.404618309839;93.0706704323877
314.426227025029;92.8760282136494
314.447835740218;92.6789112164759
314.469444455407;92.4746752039901
314.491053170597;92.2518820179466
314.512661885786;92.0089886299154
314.534270600976;91.7515194554161
314.555879316165;91.4929455959193
314.577488031354;91.2491138406806
314.599096746544;91.0205975164132
314.620705461733;90.802269513457
314.642314176922;90.6000246703806
314.663922892112;90.4159466290161
314.685531607301;90.2430446479533
314.707140322491;90.0741047732094
314.72874903768;89.906220370378
314.750357752869;89.7370764077381
314.771966468059;89.5629989348761
314.793575183248;89.3739462406252
314.815183898437;89.1656083366737
314.836792613627;88.9347851737113
314.858401328816;88.6760976055409
314.880010044006;88.3864024975431
314.901618759195;88.0500146208359
314.923227474384;87.6507409949462
314.944836189574;87.2067485608865
314.966444904763;86.7454469926024
314.988053619952;86.278339406507
315.009662335142;85.7987919990574
315.031271050331;85.2932084484228
315.05287976552;84.7640454843541
315.07448848071;84.2344866989522
315.096097195899;83.7226306697006
315.117705911089;83.2458846620775
315.139314626278;82.8161442980816
315.160923341467;82.4360525036797
315.182532056657;82.1110187431801
315.204140771846;81.8516578236824
315.225749487035;81.6601298234771
315.247358202225;81.523331569768
315.268966917414;81.4311808590517
315.290575632604;81.3897622355474
315.312184347793;81.398003139535
315.333793062982;81.4386710957744
315.355401778172;81.4928784897957
315.377010493361;81.544887313521
315.39861920855;81.5873550302625
315.42022792374;81.6145575163232
315.441836638929;81.6199611331047
315.463445354119;81.5925788414932
315.485054069308;81.5139943200005
315.506662784497;81.3829936949148
315.528271499687;81.1982247800587
315.549880214876;80.9597531455214
315.571488930065;80.6658946520236
315.593097645255;80.3162655390126
315.614706360444;79.9114311831181
315.636315075633;79.4529257399836
315.657923790823;78.950702237051
315.679532506012;78.419305218007
315.701141221202;77.8758848112549
315.722749936391;77.3359202648625
315.74435865158;76.8080822758954
315.76596736677;76.2931915139671
315.787576081959;75.8014710797506
315.809184797148;75.338995118325
315.830793512338;74.8968154186101
315.852402227527;74.4714085681089
315.874010942717;74.0770709609208
315.895619657906;73.7297263243439
315.917228373095;73.4346510403034
315.938837088285;73.1936837650007
315.960445803474;73.0102580393648
315.982054518663;72.8879027696498
316.003663233853;72.8220906954061
316.025271949042;72.812488129052
316.046880664231;72.8780738736497
316.068489379421;73.0240355410847
316.09009809461;73.2366058587869
316.1117068098;73.4921896270001
316.133315524989;73.7796601254643
316.154924240178;74.0939542228303
316.176532955368;74.4245795188551
316.198141670557;74.7646096673238
316.219750385746;75.1154848873968
316.241359100936;75.4618005318642
316.262967816125;75.7878145706235
316.284576531315;76.1070238004132
316.306185246504;76.4281368339832
316.327793961693;76.7420379522984
316.349402676883;77.0537783180663
316.371011392072;77.3751472813734
316.392620107261;77.7065181604571
316.414228822451;78.0496851543095
316.43583753764;78.4186780900905
316.45744625283;78.8098169159821
316.479054968019;79.216675135558
316.500663683208;79.6331245953619
316.522272398398;80.0532200751137
316.543881113587;80.4616330673068
316.565489828776;80.8458287358266
316.587098543966;81.1987118577055
316.608707259155;81.5005609481315
316.630315974344;81.7457877394316
316.651924689534;81.9358207185729
316.673533404723;82.065503949397
316.695142119913;82.1314634732112
316.716750835102;82.137639335166
316.738359550291;82.0913803284281
316.759968265481;81.9960223218394
316.78157698067;81.8571612897278
316.803185695859;81.6896714785514
316.824794411049;81.5097333307817
316.846403126238;81.3331992625894
316.868011841428;81.1790921527077
316.889620556617;81.0570445061162
316.911229271806;80.9696937648069
316.932837986996;80.9242893199969
316.954446702185;80.9127389535891
316.976055417374;80.9368411108862
316.997664132564;81.009741960959
317.019272847753;81.1358285994766
317.040881562943;81.303765473976
317.062490278132;81.512201741201
317.084098993321;81.7762117526175
317.105707708511;82.0992758860144
317.1273164237;82.4629321215439
317.148925138889;82.8535576112319
317.170533854079;83.2708044628544
317.192142569268;83.6965672880683
317.213751284457;84.1121614737502
317.235359999647;84.5138914951892
317.256968714836;84.8975181848008
317.278577430026;85.2598087152667
317.300186145215;85.600869397351
317.321794860404;85.9161553556076
317.343403575594;86.1831237955147
317.365012290783;86.3990919801707
317.386621005972;86.5952239356914
317.408229721162;86.8039113013495
317.429838436351;87.0328855157108
317.45144715154;87.2738423228889
317.47305586673;87.4923157201368
317.494664581919;87.6768842001598
317.516273297109;87.8445950734586
317.537882012298;87.9966578542884
317.559490727487;88.1085042178158
317.581099442677;88.1700236996694
317.602708157866;88.1753990603282
317.624316873055;88.1205522014378
317.645925588245;88.0087126732564
317.667534303434;87.8375848296642
317.689143018624;87.6146297117126
317.710751733813;87.3521705535464
317.732360449002;87.0621206688517
317.753969164192;86.7628873141628
317.775577879381;86.4721900721373
317.79718659457;86.204795173643
317.81879530976;85.975838247464
317.840404024949;85.7963019044793
317.862012740139;85.6699867723652
317.883621455328;85.6001288952836
317.905230170517;85.5841373324023
317.926838885707;85.6179006396361
317.948447600896;85.7042147042603
317.970056316085;85.8398783714249
317.991665031275;86.013059834856
318.013273746464;86.2096003401254
318.034882461653;86.4246514227739
318.056491176843;86.6617605876367
318.078099892032;86.9201559550882
318.099708607222;87.1848440342065
318.121317322411;87.4433910898901
318.1429260376;87.7066756076032
318.16453475279;87.9889281952305
318.186143467979;88.282496521764
318.207752183168;88.572757007401
318.229360898358;88.8771123953527
318.250969613547;89.2199001788647
318.272578328737;89.6201451402814
318.294187043926;90.0722171911105
318.315795759115;90.5692621736202
318.337404474305;91.1229261157869
318.359013189494;91.7354536776432
318.380621904683;92.3852687674997
318.402230619873;93.0495427720498
318.423839335062;93.7133871675674
318.445448050252;94.3846650112949
318.467056765441;95.0681195395597
318.48866548063;95.7518245912449
318.51027419582;96.410628055499
318.531882911009;97.0211679715901
318.553491626198;97.5662916972334
318.575100341388;98.0385374463018
318.596709056577;98.4355346015777
318.618317771766;98.7471879094331
318.639926486956;98.965607850501
318.661535202145;99.0946467403975
318.683143917335;99.1607204748607
318.704752632524;99.1772705782673
318.726361347713;99.1412360956616
318.747970062903;99.0548937389375
318.769578778092;98.9410944895387
318.791187493281;98.8110847677794
318.812796208471;98.6717274553897
318.83440492366;98.5291741586794
318.85601363885;98.3950293745754
318.877622354039;98.2754883322598
318.899231069228;98.1731698913349
318.920839784418;98.0888724159691
318.942448499607;98.0174840495899
318.964057214796;97.9479339539045
318.985665929986;97.8742575993272
319.007274645175;97.7961457877479
319.028883360364;97.7243885978968
319.050492075554;97.6624833387082
319.072100790743;97.6049992803788
319.093709505933;97.5590311305365
319.115318221122;97.534079516701
319.136926936311;97.5239777066045
319.158535651501;97.5200228507718
319.18014436669;97.5289739551068
319.201753081879;97.5618399317372
319.223361797069;97.6161373151791
319.244970512258;97.6818599752119
319.266579227448;97.7654649202173
319.288187942637;97.8675377769121
319.309796657826;97.9848808941589
319.331405373016;98.1169936336553
319.353014088205;98.2654325631463
319.374622803394;98.4290387262635
319.396231518584;98.606943141754
319.417840233773;98.794824780215
319.439448948962;98.9800635297202
319.461057664152;99.1575801746985
319.482666379341;99.3242400024543
319.504275094531;99.4800802501941
319.52588380972;99.6109773974267
319.547492524909;99.6939142579278
319.569101240099;99.7207762648788
319.590709955288;99.6984401457329
319.612318670477;99.636464742556
319.633927385667;99.547752927757
319.655536100856;99.4219556350352
319.677144816046;99.2458612115881
319.698753531235;99.0158131455124
319.720362246424;98.7462545331262
319.741970961614;98.4392496801184
319.763579676803;98.0907235372411
319.785188391992;97.7000229931412
319.806797107182;97.2601192818956
319.828405822371;96.7600448002447
319.850014537561;96.2097868643623
319.87162325275;95.6454220743895
319.893231967939;95.0772896085666
319.914840683129;94.4982291512394
319.936449398318;93.9139872574554
319.958058113507;93.346729154208
319.979666828697;92.7947538725398
320.001275543886;92.233572978373
320.022884259075;91.6419114724973
320.044492974265;91.0261985104716
320.066101689454;90.4200245195378
320.087710404644;89.852653809101
320.109319119833;89.3170266477951
320.130927835022;88.8141940627802
320.152536550212;88.3712863683929
320.174145265401;88.0034552108142
320.19575398059;87.7145579987548
320.21736269578;87.507782323781
320.238971410969;87.4084487839152
320.260580126159;87.4128542699737
320.282188841348;87.5039862354859
320.303797556537;87.6655033452783
320.325406271727;87.8874692785145
320.347014986916;88.1612601014755
320.368623702105;88.473640966821
320.390232417295;88.7966640594838
320.411841132484;89.0945783466696
320.433449847674;89.3291248195691
320.455058562863;89.4850107396659
320.476667278052;89.564921185857
320.498275993242;89.5647115178239
320.519884708431;89.4720818405079
320.54149342362;89.284037103754
320.56310213881;89.0241466837142
320.584710853999;88.7306831646833
320.606319569188;88.4217853881242
320.627928284378;88.102204497899
320.649536999567;87.7849493333869
320.671145714757;87.4853911391055
320.692754429946;87.2168291953036
320.714363145135;86.9911539837026
320.735971860325;86.8074029961229
320.757580575514;86.6633713485382
320.779189290703;86.5585187610877
320.800798005893;86.4946728986646
320.822406721082;86.4795167385855
320.844015436271;86.5108014137367
320.865624151461;86.5784018843412
320.88723286665;86.6680903830713
320.90884158184;86.7643231820248
320.930450297029;86.8602647070832
320.952059012218;86.9535987626366
320.973667727408;87.0410778037325
320.995276442597;87.113356265313
321.016885157786;87.1538939400125
321.038493872976;87.1547608016342
321.060102588165;87.11606773722
321.081711303355;87.0371981086755
321.103320018544;86.9127613835656
321.124928733733;86.7283216257696
321.146537448923;86.4700302436768
321.168146164112;86.1452176517144
321.189754879301;85.7649196322972
321.211363594491;85.3288809200412
321.23297230968;84.8491852242101
321.25458102487;84.3508104550633
321.276189740059;83.8529195599655
321.297798455248;83.3629244781303
321.319407170438;82.889698985607
321.341015885627;82.4483748181494
321.362624600816;82.0504050849495
321.384233316006;81.7014271699511
321.405842031195;81.3975962308939
321.427450746384;81.1351944949593
321.449059461574;80.9200556140759
321.470668176763;80.7581138123199
321.492276891953;80.6393445800323
321.513885607142;80.553582443937
321.535494322331;80.5000573519517
321.557103037521;80.4794912603432
321.57871175271;80.4831024699547
321.600320467899;80.5000294800757
321.621929183089;80.5236480785819
321.643537898278;80.5513931942904
321.665146613468;80.5893441233626
321.686755328657;80.6403627495852
321.708364043846;80.7013425021
321.729972759036;80.7688716857056
321.751581474225;80.844987568075
321.773190189414;80.9304924065729
321.794798904604;81.0176056533529
321.816407619793;81.1029146738328
321.838016334983;81.1846732678311
321.859625050172;81.2545364372143
321.881233765361;81.3068981590326
321.902842480551;81.3431582065007
321.92445119574;81.364575154217
321.946059910929;81.3718740971553
321.967668626119;81.3635869039622
321.989277341308;81.3326531165418
322.010886056497;81.2734813774226
322.032494771687;81.1882139246053
322.054103486876;81.0806591489842
322.075712202066;80.9559215877733
322.097320917255;80.8158829576165
322.118929632444;80.6524016076778
322.140538347634;80.4517582962991
322.162147062823;80.2156716090963
322.183755778012;79.9577785253176
322.205364493202;79.686190582447
322.226973208391;79.3940766799891
322.248581923581;79.0766513988439
322.27019063877;78.741938947721
322.291799353959;78.3936860874797
322.313408069149;78.0327961669007
322.335016784338;77.6773420695816
322.356625499527;77.331542240393
322.378234214717;76.9865896580091
322.399842929906;76.6330920096676
322.421451645095;76.2828486468273
322.443060360285;75.9633335736184
322.464669075474;75.6667158232775
322.486277790664;75.3813156023642
322.507886505853;75.1133709187698
322.529495221042;74.8721427688888
322.551103936232;74.6497845120728
322.572712651421;74.4416547906256
322.59432136661;74.2446330818346
322.6159300818;74.0541326864837
322.637538796989;73.867146379624
322.659147512179;73.6966899194365
322.680756227368;73.5626852524502
322.702364942557;73.4730182560505
322.723973657747;73.4228437265331
322.745582372936;73.4107276970417
322.767191088125;73.4512703863355
322.788799803315;73.55805679429
322.810408518504;73.7217956904742
322.832017233693;73.9284639313071
322.853625948883;74.1748538645651
322.875234664072;74.4692851237952
322.896843379262;74.8266309645344
322.918452094451;75.2442657847218
322.94006080964;75.7029393222973
322.96166952483;76.1751637697407
322.983278240019;76.6449533711336
323.004886955208;77.123794055665
323.026495670398;77.6213321359446
323.048104385587;78.141606233519
323.069713100777;78.6751665633606
323.091321815966;79.2068539867589
323.112930531155;79.7493993114315
323.134539246345;80.3230767836673
323.156147961534;80.9465311473612
323.177756676723;81.6301579542918
323.199365391913;82.3555118233735
323.220974107102;83.0609585137802
323.242582822292;83.772490029315
323.264191537481;84.5463630700155
323.28580025267;85.3993677177407
323.30740896786;86.25765699413
323.329017683049;87.0924962977459
323.350626398238;87.9009533672616
323.372235113428;88.6725488732061
323.393843828617;89.4136002237111
323.415452543806;90.1355746296386
323.437061258996;90.8446733145751
323.458669974185;91.5227405158646
323.480278689375;92.1661834709982
323.501887404564;92.8164202792305
323.523496119753;93.5019510547623
323.545104834943;94.2119615947762
323.566713550132;94.9274777942427
323.588322265321;95.6657001190095
323.609930980511;96.4443762521316
323.6315396957;97.2560650781779
323.65314841089;98.0934752591437
323.674757126079;98.9447643478307
323.696365841268;99.7900531313288
323.717974556458;100.634321832376
323.739583271647;101.467603676549
323.761191986836;102.255997309397
323.782800702026;102.990996120362
323.804409417215;103.673374937554
323.826018132405;104.296322496259
323.847626847594;104.847382431981
323.869235562783;105.318755043775
323.890844277973;105.717967652487
323.912452993162;106.059990663245
323.934061708351;106.347747645733
323.955670423541;106.594491516852
323.97727913873;106.829773540005
323.998887853919;107.078382000572
324.020496569109;107.330048506701
324.042105284298;107.574272076036
324.063713999488;107.815372054305
324.085322714677;108.060901684539
324.106931429866;108.308904517627
324.128540145056;108.560770248685
324.150148860245;108.816658285677
324.171757575434;109.060742143469
324.193366290624;109.2699459223
324.214975005813;109.431597405568
324.236583721003;109.553360521836
324.258192436192;109.653477211002
324.279801151381;109.751677483805
324.301409866571;109.844074162513
324.32301858176;109.915476613922
324.344627296949;109.969811176901
324.366236012139;110.011171355943
324.387844727328;110.050633948506
324.409453442517;110.108115258753
324.431062157707;110.176380937357
324.452670872896;110.246670808521
324.474279588086;110.31679845841
324.495888303275;110.384492936455
324.517497018464;110.44450959952
324.539105733654;110.487862318156
324.560714448843;110.505838793683
324.582323164032;110.490913146279
324.603931879222;110.437692190292
324.625540594411;110.33560630522
324.647149309601;110.189313994484
324.66875802479;110.006466034773
324.690366739979;109.785484349186
324.711975455169;109.526195088216
324.733584170358;109.235885382251
324.755192885547;108.923948389597
324.776801600737;108.593528063201
