Name;BF_ESR_01_7202s_X_gon_60dg_result

Recipe
Accumulations;5;Number of accumulations
RetryCount;0;Number of retries on error
AbortOnError;True;Abort on error
EnableQFactorMeasurement;False;Enable/Disable q-Factor measurement
Bfrom;313;B from
Bto;363;B to
SweepTime;60;Sweep time
Modulation;0.2;Modulation
ModulationFreq;100;Modulation
BHoldEnabled;False;B hold enabled
BHold;0;B hold
MicrowavePower;2;Microwave power
MarkerEnabled;False;
MarkerStartField;0;
MarkerEndField;0;
Mode;;
KineticGFact;0;
KineticTotalTransientTime;0;
KineticTimeResolution;0;
TempFrom;5;
TempUseSlope;False;
TempTo;5;
TempdT;1;
TempSetupTime;0;
GonFrom;0;
GonTo;180;
GonSteps;20;
XRayEnabled;False;
XRayTime;3;
XRayVoltage;40;
XRayCurrent;0.5;
UVEnabled;False;
UVIntensity;0;
UVTime;0;
UVLeadTime;0;
UVWavelength;0;
PowSweepFrom;1;
PowSweepTo;5;
PowSweepSteps;5;
AmpModSweepFrom;0;
AmpModSweepTo;1;
AmpModSweepSteps;10;
ExtTriggerEnabled;False;
ExtTrigLeadTime;0;
ExtTrigOnTime;5;

Meas
BField [mT];MW_Absorption []
313.010582351685;154.515648017222
313.032184898353;154.125173950623
313.053787445022;153.719551176136
313.075389991691;153.320020683792
313.09699253836;152.91708610136
313.118595085029;152.500093394263
313.140197631697;152.071419918058
313.161800178366;151.646438506821
313.183402725035;151.239806146356
313.205005271704;150.866653177138
313.226607818373;150.526755287602
313.248210365041;150.218829092426
313.26981291171;149.944597215744
313.291415458379;149.698965649461
313.313018005048;149.470115708147
313.334620551717;149.243925307628
313.356223098385;149.012706078342
313.377825645054;148.776712327033
313.399428191723;148.531850998361
313.421030738392;148.27426887302
313.442633285061;148.001837797486
313.464235831729;147.705213975626
313.485838378398;147.37464823093
313.507440925067;147.007914884575
313.529043471736;146.610777864995
313.550646018405;146.183125422784
313.572248565073;145.718016438298
313.593851111742;145.229181747582
313.615453658411;144.742524151473
313.63705620508;144.268119132409
313.658658751749;143.809637086277
313.680261298418;143.365324196038
313.701863845086;142.933983293147
313.723466391755;142.532362044869
313.745068938424;142.200539089465
313.766671485093;141.947021759718
313.788274031762;141.751758538205
313.80987657843;141.600435866245
313.831479125099;141.489269957896
313.853081671768;141.425885282117
313.874684218437;141.412570284189
313.896286765106;141.435297551754
313.917889311774;141.475858514027
313.939491858443;141.521755065037
313.961094405112;141.567494252912
313.982696951781;141.605776725778
314.00429949845;141.630991235357
314.025902045118;141.637759044789
314.047504591787;141.618097858173
314.069107138456;141.567120130067
314.090709685125;141.486887464691
314.112312231794;141.380752093218
314.133914778462;141.249713876114
314.155517325131;141.092914545141
314.1771198718;140.91138862954
314.198722418469;140.709806263317
314.220324965138;140.490899499233
314.241927511806;140.251173462328
314.263530058475;139.988178875085
314.285132605144;139.707349685272
314.306735151813;139.412630825767
314.328337698482;139.097762775876
314.34994024515;138.758504110005
314.371542791819;138.39568786692
314.393145338488;138.015476237447
314.414747885157;137.632541560611
314.436350431826;137.258205215054
314.457952978495;136.87514951778
314.479555525163;136.471356423535
314.501158071832;136.057638016072
314.522760618501;135.644919182011
314.54436316517;135.228594058268
314.565965711839;134.813484335106
314.587568258507;134.416748371611
314.609170805176;134.058731276366
314.630773351845;133.740099661209
314.652375898514;133.459422357563
314.673978445183;133.215693339945
314.695580991851;133.000154241851
314.71718353852;132.801642211017
314.738786085189;132.612175363776
314.760388631858;132.429805396674
314.781991178527;132.236127491043
314.803593725195;132.014837381787
314.825196271864;131.759075851154
314.846798818533;131.461320208132
314.868401365202;131.110594564324
314.890003911871;130.693660305403
314.911606458539;130.209754018191
314.933209005208;129.675432366364
314.954811551877;129.109889561114
314.976414098546;128.516073377121
314.998016645215;127.902597666564
315.019619191883;127.306807646108
315.041221738552;126.773067769024
315.062824285221;126.307475722682
315.08442683189;125.898758344569
315.106029378559;125.549883655792
315.127631925227;125.277852793436
315.149234471896;125.088438810308
315.170837018565;124.965299090985
315.192439565234;124.886692093701
315.214042111903;124.848720492118
315.235644658571;124.858009246411
315.25724720524;124.903267738937
315.278849751909;124.961546722948
315.300452298578;125.017414797186
315.322054845247;125.064958727445
315.343657391915;125.102795495138
315.365259938584;125.122327965999
315.386862485253;125.105079995604
315.408465031922;125.041879951379
315.430067578591;124.933450604557
315.45167012526;124.785267107898
315.473272671928;124.586087548417
315.494875218597;124.332808668013
315.516477765266;124.02578831086
315.538080311935;123.680680466709
315.559682858604;123.31143964348
315.581285405272;122.925405497855
315.602887951941;122.52601581784
315.62449049861;122.121570143425
315.646093045279;121.719110359541
315.667695591948;121.329484472552
315.689298138616;120.983921573791
315.710900685285;120.688494764362
315.732503231954;120.459607016614
315.754105778623;120.299417855893
315.775708325292;120.229634933176
315.79731087196;120.235279644379
315.818913418629;120.292327077551
315.840515965298;120.402062732273
315.862118511967;120.575451061995
315.883721058636;120.803595327565
315.905323605304;121.069646535736
315.926926151973;121.359601366406
315.948528698642;121.662531024604
315.970131245311;121.975157670717
315.99173379198;122.287937174358
316.013336338648;122.582300919805
316.034938885317;122.842516835349
316.056541431986;123.05738441855
316.078143978655;123.219049505233
316.099746525324;123.325542756947
316.121349071992;123.377467335745
316.142951618661;123.377716681794
316.16455416533;123.332999862443
316.186156711999;123.246308715991
316.207759258668;123.122319568821
316.229361805337;122.981686807385
316.250964352005;122.844626959124
316.272566898674;122.719976548439
316.294169445343;122.614202450698
316.315771992012;122.540705946546
316.337374538681;122.513459273543
316.358977085349;122.531560286049
316.380579632018;122.589901612671
316.402182178687;122.69466717898
316.423784725356;122.850938934744
316.445387272025;123.043033438063
316.466989818693;123.26071776706
316.488592365362;123.500947824228
316.510194912031;123.758989602823
316.5317974587;124.02376606347
316.553400005369;124.2817618032
316.575002552037;124.509511841967
316.596605098706;124.707673304626
316.618207645375;124.874739284399
316.639810192044;125.013822645877
316.661412738713;125.127174620632
316.683015285381;125.224269430871
316.70461783205;125.322756607433
316.726220378719;125.430595657738
316.747822925388;125.549952665454
316.769425472057;125.689611615005
316.791028018725;125.862614500388
316.812630565394;126.065515828931
316.834233112063;126.285103700075
316.855835658732;126.528479811444
316.877438205401;126.78971160086
316.899040752069;127.051358562244
316.920643298738;127.300930337205
316.942245845407;127.526884439677
316.963848392076;127.714753495742
316.985450938745;127.860627010353
317.007053485414;127.972743914095
317.028656032082;128.050173832859
317.050258578751;128.076023825461
317.07186112542;128.041489354808
317.093463672089;127.956449153778
317.115066218758;127.838953976792
317.136668765426;127.687049883256
317.158271312095;127.499103085412
317.179873858764;127.277154450436
317.201476405433;127.03480248369
317.223078952102;126.782358680047
317.24468149877;126.517235445486
317.266284045439;126.23664247472
317.287886592108;125.942430459087
317.309489138777;125.635310119899
317.331091685446;125.316817722704
317.352694232114;124.985722870113
317.374296778783;124.634747466527
317.395899325452;124.259115011568
317.417501872121;123.881958968274
317.43910441879;123.531448825474
317.460706965458;123.194005110424
317.482309512127;122.853720924143
317.503912058796;122.507520370377
317.525514605465;122.160177291681
317.547117152134;121.81577552312
317.568719698802;121.479915455163
317.590322245471;121.161742600993
317.61192479214;120.868150293564
317.633527338809;120.596724120929
317.655129885478;120.337320241244
317.676732432146;120.076276199584
317.698334978815;119.800699314722
317.719937525484;119.490271780227
317.741540072153;119.123963833337
317.763142618822;118.717671930882
317.784745165491;118.276022062708
317.806347712159;117.776225568518
317.827950258828;117.191438024778
317.849552805497;116.536121865502
317.871155352166;115.852042531971
317.892757898835;115.127523041501
317.914360445503;114.353405391325
317.935962992172;113.540103830476
317.957565538841;112.696582330368
317.97916808551;111.845193918628
318.000770632179;111.007042417416
318.022373178847;110.189197029805
318.043975725516;109.39575957446
318.065578272185;108.650738152987
318.087180818854;107.966740021934
318.108783365523;107.328979600921
318.130385912191;106.744608116976
318.15198845886;106.225056478068
318.173591005529;105.760214239543
318.195193552198;105.326964134344
318.216796098867;104.914326664274
318.238398645535;104.538488576348
318.260001192204;104.210299826894
318.281603738873;103.915244023819
318.303206285542;103.634677936533
318.324808832211;103.356326497277
318.346411378879;103.079237480526
318.368013925548;102.805619087025
318.389616472217;102.526065016719
318.411219018886;102.233903424969
318.432821565555;101.926712556126
318.454424112223;101.592951298211
318.476026658892;101.224676668072
318.497629205561;100.82365072268
318.51923175223;100.393492003087
318.540834298899;99.9292068033644
318.562436845567;99.4214595775689
318.584039392236;98.8824617668598
318.605641938905;98.329320719991
318.627244485574;97.7637801815862
318.648847032243;97.1719146247586
318.670449578911;96.5800390611909
318.69205212558;96.0453410954095
318.713654672249;95.5788178184361
318.735257218918;95.1648655269768
318.756859765587;94.8004696842714
318.778462312256;94.4853511594396
318.800064858924;94.2087404444416
318.821667405593;93.9692881980892
318.843269952262;93.7620112513258
318.864872498931;93.5780100623275
318.8864750456;93.3983218811834
318.908077592268;93.2052886970322
318.929680138937;92.9850203096501
318.951282685606;92.7311866064482
318.972885232275;92.4381956339533
318.994487778944;92.100387783805
319.016090325612;91.7232056146592
319.037692872281;91.3156412835924
319.05929541895;90.8873104989451
319.080897965619;90.4477944437502
319.102500512288;90.0012100314183
319.124103058956;89.5537070628474
319.145705605625;89.1085509042684
319.167308152294;88.6478197403005
319.188910698963;88.1679223373625
319.210513245632;87.6705131388984
319.2321157923;87.1520270833574
319.253718338969;86.6101587290126
319.275320885638;86.0539015037476
319.296923432307;85.5030734634705
319.318525978976;84.9832722619437
319.340128525644;84.492587972913
319.361731072313;84.0169784233992
319.383333618982;83.5460960365202
319.404936165651;83.0747191589098
319.42653871232;82.6003676894111
319.448141258988;82.1372632814022
319.469743805657;81.7132274813955
319.491346352326;81.3325784418012
319.512948898995;80.9880914285563
319.534551445664;80.6773468570013
319.556153992333;80.3895294921456
319.577756539001;80.1127391182127
319.59935908567;79.843518391606
319.620961632339;79.5816334321631
319.642564179008;79.3259305836589
319.664166725677;79.0731648205099
319.685769272345;78.8254896590842
319.707371819014;78.5915311959128
319.728974365683;78.3771010184713
319.750576912352;78.1832803544298
319.772179459021;78.017128730937
319.793782005689;77.8882761052524
319.815384552358;77.8029394515545
319.836987099027;77.7686824248279
319.858589645696;77.7857099286982
319.880192192365;77.8502720229143
319.901794739033;77.9622528652126
319.923397285702;78.1222640861083
319.944999832371;78.324335416791
319.96660237904;78.550801866156
319.988204925709;78.7810996179587
320.009807472377;79.008136845102
320.031410019046;79.2379859000083
320.053012565715;79.4773758945631
320.074615112384;79.7254570598566
320.096217659053;79.9780124453963
320.117820205721;80.241109825229
320.13942275239;80.5337808845971
320.161025299059;80.8625741301588
320.182627845728;81.224240703557
320.204230392397;81.6186879702479
320.225832939065;82.0406269043875
320.247435485734;82.4816337219488
320.269038032403;82.9454009090992
320.290640579072;83.4442170622331
320.312243125741;83.9820821293824
320.33384567241;84.5311690532441
320.355448219078;85.042922137526
320.377050765747;85.5002487359496
320.398653312416;85.9149729526728
320.420255859085;86.2860440131353
320.441858405754;86.6025428723965
320.463460952422;86.8583047918567
320.485063499091;87.0534258095547
320.50666604576;87.177190380061
320.528268592429;87.2314568811647
320.549871139098;87.2294326623059
320.571473685766;87.1821281909751
320.593076232435;87.1062753656078
320.614678779104;87.0268290117161
320.636281325773;86.9587039824609
320.657883872442;86.910465640241
320.67948641911;86.9002831438456
320.701088965779;86.9388810407885
320.722691512448;87.022649702564
320.744294059117;87.154296062129
320.765896605786;87.3377765331505
320.787499152454;87.5666542777835
320.809101699123;87.8303795398185
320.830704245792;88.1260869242986
320.852306792461;88.435877623038
320.87390933913;88.7186471005184
320.895511885798;88.959749117549
320.917114432467;89.1573437578118
320.938716979136;89.3054204233905
320.960319525805;89.3944638368475
320.981922072474;89.4088580784338
321.003524619142;89.3392561268198
321.025127165811;89.1884130679664
321.04672971248;88.9629232427923
321.068332259149;88.6641655541781
321.089934805818;88.2809639645323
321.111537352486;87.8181010985581
321.133139899155;87.3050354231848
321.154742445824;86.7607062455739
321.176344992493;86.2090804792063
321.197947539162;85.6787426259362
321.219550085831;85.1849157573485
321.241152632499;84.726330906799
321.262755179168;84.2972962172475
321.284357725837;83.8949031892015
321.305960272506;83.5172166490349
321.327562819175;83.169142520095
321.349165365843;82.8682656116007
321.370767912512;82.6213234114776
321.392370459181;82.4158778439266
321.41397300585;82.2328109388884
321.435575552519;82.0539157752577
321.457178099187;81.8692060907553
321.478780645856;81.6769014713471
321.500383192525;81.4643019820005
321.521985739194;81.2162811519178
321.543588285863;80.9325251847185
321.565190832531;80.6321193337716
321.5867933792;80.3059934648237
321.608395925869;79.9390700623357
321.629998472538;79.5335305000623
321.651601019207;79.100783311686
321.673203565875;78.6370443677923
321.694806112544;78.1396128796849
321.716408659213;77.6272805153601
321.738011205882;77.1024373894752
321.759613752551;76.5499437240995
321.781216299219;75.9562834522214
321.802818845888;75.3360451571618
321.824421392557;74.6943264429759
321.846023939226;74.0310532230742
321.867626485895;73.3522336602461
321.889229032563;72.6730212748868
321.910831579232;72.011138504278
321.932434125901;71.377764420606
321.95403667257;70.7782680489208
321.975639219239;70.2188620280607
321.997241765908;69.7146702670893
322.018844312576;69.2634960986788
322.040446859245;68.8427950654027
322.062049405914;68.4422251633027
322.083651952583;68.0621524225506
322.105254499252;67.6993658993624
322.12685704592;67.3615395852013
322.148459592589;67.0520464912519
322.170062139258;66.7438138272964
322.191664685927;66.4141426247046
322.213267232596;66.050410846937
322.234869779264;65.6332319183643
322.256472325933;65.1481956961349
322.278074872602;64.615154318913
322.299677419271;64.0373198084483
322.32127996594;63.4087986468319
322.342882512608;62.7469004065691
322.364485059277;62.0641279071176
322.386087605946;61.3596020714476
322.407690152615;60.6211722122279
322.429292699284;59.8496059352139
322.450895245952;59.0731619239111
322.472497792621;58.3071378914346
322.49410033929;57.5621197263184
322.515702885959;56.8517493677844
322.537305432628;56.1917348120622
322.558907979296;55.5868205460213
322.580510525965;55.0284125171849
322.602113072634;54.5102259109225
322.623715619303;54.0374158725953
322.645318165972;53.6200549330228
322.66692071264;53.2418787660726
322.688523259309;52.8850352982564
322.710125805978;52.5540251236443
322.731728352647;52.2638229141676
322.753330899316;52.0204097217982
322.774933445984;51.81255835576
322.796535992653;51.6355262320879
322.818138539322;51.4948316983991
322.839741085991;51.3896224906619
322.86134363266;51.3217364822799
322.882946179328;51.2981250997843
322.904548725997;51.3220307305264
322.926151272666;51.3913845325324
322.947753819335;51.492289458526
322.969356366004;51.6078185057279
322.990958912673;51.72734966382
323.012561459341;51.8447263138437
323.03416400601;51.9540353525499
323.055766552679;52.0437307191541
323.077369099348;52.1019639356369
323.098971646017;52.1248852619945
323.120574192685;52.1093077398278
323.142176739354;52.0555421439667
323.163779286023;51.9686584122335
323.185381832692;51.8530042992287
323.206984379361;51.7104949396686
323.228586926029;51.5422741751978
323.250189472698;51.3468992374498
323.271792019367;51.1374294892261
323.293394566036;50.9258026128674
323.314997112705;50.7122690917198
323.336599659373;50.5016932719608
323.358202206042;50.3055754516794
323.379804752711;50.1243499449333
323.40140729938;49.9594884444972
323.423009846049;49.8199567704111
323.444612392717;49.7114098657732
323.466214939386;49.6252863699195
323.487817486055;49.5557754368656
323.509420032724;49.5050925577281
323.531022579393;49.4731227534035
323.552625126061;49.4529619592224
323.57422767273;49.4330611852096
323.595830219399;49.4147926008305
323.617432766068;49.3973466039261
323.639035312737;49.3893369206432
323.660637859405;49.3977280158112
323.682240406074;49.4184088822887
323.703842952743;49.45052060129
323.725445499412;49.5050385297187
323.747048046081;49.6087901298365
323.76865059275;49.7743306795353
323.790253139418;49.9843581359856
323.811855686087;50.223850905934
323.833458232756;50.4945918081969
323.855060779425;50.7993905693773
323.876663326094;51.1398503894975
323.898265872762;51.5179545716966
323.919868419431;51.9300276509969
323.9414709661;52.3688617414409
323.963073512769;52.8314977007085
323.984676059438;53.3193733555888
324.006278606106;53.8259952432532
324.027881152775;54.3308404323362
324.049483699444;54.8100805692749
324.071086246113;55.2565553885978
324.092688792782;55.6691458882197
324.11429133945;56.0443860385579
324.135893886119;56.3729273444539
324.157496432788;56.6445520126376
324.179098979457;56.8495064241187
324.200701526126;56.9716046890379
324.222304072794;56.9995148508189
324.243906619463;56.9370022974043
324.265509166132;56.7974579677533
324.287111712801;56.5922761547202
324.30871425947;56.321698661345
324.330316806138;55.9906437828251
324.351919352807;55.6142565444922
324.373521899476;55.2048557753726
324.395124446145;54.7688452536161
324.416726992814;54.3198407938293
324.438329539482;53.8755709828295
324.459932086151;53.4348560121917
324.48153463282;52.985995758002
324.503137179489;52.5329732602442
324.524739726158;52.0816807769598
324.546342272827;51.6254581319502
324.567944819495;51.1525328996802
324.589547366164;50.6546631723012
324.611149912833;50.1404307993069
324.632752459502;49.6214322988744
324.654355006171;49.1016140296702
324.675957552839;48.5968430775303
324.697560099508;48.1240492132136
324.719162646177;47.6958544119142
324.740765192846;47.3245176038099
