Name;BF_ESR_01_900s_Z_gon_100dg_result

Recipe
Accumulations;5;Number of accumulations
RetryCount;0;Number of retries on error
AbortOnError;True;Abort on error
EnableQFactorMeasurement;False;Enable/Disable q-Factor measurement
Bfrom;313;B from
Bto;363;B to
SweepTime;60;Sweep time
Modulation;0.2;Modulation
ModulationFreq;100;Modulation
BHoldEnabled;False;B hold enabled
BHold;0;B hold
MicrowavePower;2;Microwave power
MarkerEnabled;False;
MarkerStartField;0;
MarkerEndField;0;
Mode;;
KineticGFact;0;
KineticTotalTransientTime;0;
KineticTimeResolution;0;
TempFrom;5;
TempUseSlope;False;
TempTo;5;
TempdT;1;
TempSetupTime;0;
GonFrom;0;
GonTo;180;
GonSteps;20;
XRayEnabled;False;
XRayTime;3;
XRayVoltage;40;
XRayCurrent;0.5;
UVEnabled;False;
UVIntensity;0;
UVTime;0;
UVLeadTime;0;
UVWavelength;0;
PowSweepFrom;1;
PowSweepTo;5;
PowSweepSteps;5;
AmpModSweepFrom;0;
AmpModSweepTo;1;
AmpModSweepSteps;10;
ExtTriggerEnabled;False;
ExtTrigLeadTime;0;
ExtTrigOnTime;5;

Meas
BField [mT];MW_Absorption []
313.03525932312;91.2125336186313
313.056878193942;90.8064762350354
313.078497064764;90.3962051453906
313.100115935586;90.0033330395114
313.121734806408;89.6585823111205
313.143353677229;89.3500731454364
313.164972548051;89.07624963501
313.186591418873;88.858394503179
313.208210289695;88.7116776605089
313.229829160517;88.6180759356623
313.251448031339;88.5613620626981
313.273066902161;88.5281533277028
313.294685772983;88.5090339109232
313.316304643804;88.5153525531505
313.337923514626;88.5524316979044
313.359542385448;88.6057342937689
313.38116125627;88.6683471821421
313.402780127092;88.7428010801718
313.424398997914;88.8261667956609
313.446017868736;88.8964603731782
313.467636739557;88.9434549771545
313.489255610379;88.9629122615795
313.510874481201;88.9557369475758
313.532493352023;88.9259743137285
313.554112222845;88.8704320632618
313.575731093667;88.7811172880677
313.597349964489;88.6522647214938
313.618968835311;88.4897600430889
313.640587706132;88.3048623492868
313.662206576954;88.1122172298041
313.683825447776;87.9195668834365
313.705444318598;87.7224474791669
313.72706318942;87.5141123892385
313.748682060242;87.3010992717712
313.770300931064;87.1051052937995
313.791919801885;86.9360422103735
313.813538672707;86.7980571542914
313.835157543529;86.6956471181972
313.856776414351;86.6354829579263
313.878395285173;86.6181449348178
313.900014155995;86.6462799022963
313.921633026817;86.7178297894339
313.943251897639;86.8242997075239
313.96487076846;86.9595313906671
313.986489639282;87.1247043308433
314.008108510104;87.3219993583927
314.029727380926;87.5454615989283
314.051346251748;87.7821435705835
314.07296512257;88.0138172221487
314.094583993392;88.2221744656771
314.116202864213;88.4017552208034
314.137821735035;88.5535078322077
314.159440605857;88.6763184807615
314.181059476679;88.7660708088724
314.202678347501;88.8239903056436
314.224297218323;88.8531228454722
314.245916089145;88.8548153386113
314.267534959967;88.833507290648
314.289153830788;88.7954829329072
314.31077270161;88.7483574409574
314.332391572432;88.6937607756459
314.354010443254;88.6353578539195
314.375629314076;88.5807635880413
314.397248184898;88.533201960281
314.41886705572;88.4906298117765
314.440485926541;88.4431490448215
314.462104797363;88.3844762910992
314.483723668185;88.3240270621604
314.505342539007;88.2528630979365
314.526961409829;88.1626872058649
314.548580280651;88.0534110883844
314.570199151473;87.9275298351862
314.591818022295;87.7915779666123
314.613436893116;87.642718723201
314.635055763938;87.4744143558369
314.65667463476;87.2786137825563
314.678293505582;87.0537140611514
314.699912376404;86.7962798449522
314.721531247226;86.504884300256
314.743150118048;86.1850418669897
314.764768988869;85.8479276573849
314.786387859691;85.5062138307793
314.808006730513;85.1642735934541
314.829625601335;84.8272207879946
314.851244472157;84.506536683012
314.872863342979;84.2099083907883
314.894482213801;83.9457930285866
314.916101084622;83.7355929906924
314.937719955444;83.5826187515161
314.959338826266;83.4670189161411
314.980957697088;83.3858722049701
315.00257656791;83.3447186863683
315.024195438732;83.3393721287559
315.045814309554;83.3552384687727
315.067433180376;83.3693892843453
315.089052051197;83.361797126275
315.110670922019;83.3250312889583
315.132289792841;83.2676251039889
315.153908663663;83.201932931516
315.175527534485;83.1321606648791
315.197146405307;83.053053733114
315.218765276129;82.9568957099887
315.24038414695;82.8464438032166
315.262003017772;82.7152896615992
315.283621888594;82.5602447770141
315.305240759416;82.3993250545502
315.326859630238;82.2449677186012
315.34847850106;82.0835714367805
315.370097371882;81.9222788525689
315.391716242704;81.775288525162
315.413335113525;81.645345294054
315.434953984347;81.5278404997842
315.456572855169;81.4305075670711
315.478191725991;81.3592070294172
315.499810596813;81.3120400449844
315.521429467635;81.2791774229679
315.543048338457;81.2481858188036
315.564667209278;81.2135420664152
315.5862860801;81.1717865810396
315.607904950922;81.1270996679604
315.629523821744;81.0762533863775
315.651142692566;81.010859294678
315.672761563388;80.9153327335729
315.69438043421;80.7922025150049
315.715999305032;80.652726481355
315.737618175853;80.5055782795444
315.759237046675;80.357361557033
315.780855917497;80.2093808473155
315.802474788319;80.0523486582209
315.824093659141;79.8772624592594
315.845712529963;79.6881969331911
315.867331400785;79.494365409811
315.888950271606;79.3081456646805
315.910569142428;79.1338724839888
315.93218801325;78.9721118443102
315.953806884072;78.8249530591045
315.975425754894;78.6949182357388
315.997044625716;78.5833262291194
316.018663496538;78.4925696088434
316.04028236736;78.421700150368
316.061901238181;78.3676341027076
316.083520109003;78.3289387607872
316.105138979825;78.3069257003488
316.126757850647;78.3018273122064
316.148376721469;78.3104296728233
316.169995592291;78.3224901959048
316.191614463113;78.3273948298688
316.213233333934;78.3187005681102
316.234852204756;78.2872551130805
316.256471075578;78.2264806053083
316.2780899464;78.1306756312207
316.299708817222;78.0044304182912
316.321327688044;77.8509064044049
316.342946558866;77.6633484554226
316.364565429688;77.4353013300897
316.386184300509;77.1728383569215
316.407803171331;76.8929630873152
316.429422042153;76.6042258927817
316.451040912975;76.3141394638626
316.472659783797;76.0376243433577
316.494278654619;75.782135798532
316.515897525441;75.5368915623242
316.537516396262;75.2999722086496
316.559135267084;75.0725807374862
316.580754137906;74.8617082242112
316.602373008728;74.6713775896138
316.62399187955;74.4955847132556
316.645610750372;74.3266126804658
316.667229621194;74.1594375085065
316.688848492016;73.9939470912158
316.710467362837;73.8413434014606
316.732086233659;73.6979771896636
316.753705104481;73.5502493131898
316.775323975303;73.3894218859285
316.796942846125;73.2108943505505
316.818561716947;73.020224470513
316.840180587769;72.8271857070618
316.86179945859;72.633142483543
316.883418329412;72.4462887337844
316.905037200234;72.2739490052443
316.926656071056;72.1176656327234
316.948274941878;71.9758670598764
316.9698938127;71.8507907496024
316.991512683522;71.7438899510664
317.013131554344;71.6503735303413
317.034750425165;71.5684807164522
317.056369295987;71.4957122290671
317.077988166809;71.4312084194127
317.099607037631;71.3713863423608
317.121225908453;71.3104632768854
317.142844779275;71.2445361226998
317.164463650097;71.1726132413092
317.186082520918;71.1011505895458
317.20770139174;71.0399232261443
317.229320262562;70.9926563548426
317.250939133384;70.9587396277244
317.272558004206;70.9400665935239
317.294176875028;70.9446595303481
317.31579574585;70.9809112493871
317.337414616672;71.0522623042118
317.359033487493;71.1545503171103
317.380652358315;71.2802655019014
317.402271229137;71.4265416291197
317.423890099959;71.591394764367
317.445508970781;71.768233054023
317.467127841603;71.9557006618174
317.488746712425;72.153990467215
317.510365583246;72.3562019255373
317.531984454068;72.5543606582342
317.55360332489;72.7379611261322
317.575222195712;72.8944745878906
317.596841066534;73.0275712472918
317.618459937356;73.1417999732368
317.640078808178;73.2270450961526
317.661697679;73.2647305195543
317.683316549821;73.2536325166836
317.704935420643;73.1989452666105
317.726554291465;73.0993049794475
317.748173162287;72.9632359052438
317.769792033109;72.7920112555566
317.791410903931;72.5788811732257
317.813029774753;72.3177863022487
317.834648645574;72.0147778302917
317.856267516396;71.6896575653986
317.877886387218;71.3577680113302
317.89950525804;71.0199533576953
317.921124128862;70.6896765429554
317.942742999684;70.3819265662182
317.964361870506;70.0958879276402
317.985980741328;69.8267046840219
318.007599612149;69.5617651556918
318.029218482971;69.3040103011178
318.050837353793;69.0718207799677
318.072456224615;68.8787967739894
318.094075095437;68.729958501082
318.115693966259;68.6113041647667
318.137312837081;68.5023600349088
318.158931707902;68.3950061399715
318.180550578724;68.2876988727801
318.202169449546;68.1888463334424
318.223788320368;68.1038403978426
318.24540719119;68.0270656411249
318.267026062012;67.9496117726792
318.288644932834;67.8569159219552
318.310263803656;67.7431919928793
318.331882674477;67.6120256057612
318.353501545299;67.4655636626104
318.375120416121;67.3008712862924
318.396739286943;67.1162315450834
318.418358157765;66.9203257826588
318.439977028587;66.7239188169142
318.461595899409;66.5267852585102
318.48321477023;66.330733266075
318.504833641052;66.1486214200307
318.526452511874;66.000997830158
318.548071382696;65.8981659403718
318.569690253518;65.8343795106938
318.59130912434;65.8068566621907
318.612927995162;65.82540536904
318.634546865984;65.9005893005808
318.656165736805;66.0199794072529
318.677784607627;66.1655819044244
318.699403478449;66.330178700481
318.721022349271;66.4948320237102
318.742641220093;66.6484315359084
318.764260090915;66.7820746204522
318.785878961737;66.8902161088996
318.807497832558;66.9639810989035
318.82911670338;66.9915118267552
318.850735574202;66.9646504769064
318.872354445024;66.8858346825875
318.893973315846;66.7723857809884
318.915592186668;66.6338691126864
318.93721105749;66.4717567174915
318.958829928312;66.2999528383134
318.980448799133;66.1399676307104
319.002067669955;65.9973109762521
319.023686540777;65.8736013583984
319.045305411599;65.7783116849012
319.066924282421;65.7161433547991
319.088543153243;65.6887303323326
319.110162024065;65.6950525375518
319.131780894886;65.7318840084194
319.153399765708;65.7973914387427
319.17501863653;65.8743121422493
319.196637507352;65.9522437084128
319.218256378174;66.0353275500641
319.239875248996;66.1277414194688
319.261494119818;66.222206252983
319.283112990639;66.3102938661266
319.304731861461;66.3978201438729
319.326350732283;66.4871014500856
319.347969603105;66.558278713997
319.369588473927;66.600090541975
319.391207344749;66.6175156572304
319.412826215571;66.6184433793581
319.434445086393;66.6043210449703
319.456063957214;66.5609426042863
319.477682828036;66.4647651827662
319.499301698858;66.3217641842332
319.52092056968;66.1511237512687
319.542539440502;65.941718489102
319.564158311324;65.690822596782
319.585777182146;65.4087582708841
319.607396052967;65.1065846526166
319.629014923789;64.7974199052978
319.650633794611;64.4950284540069
319.672252665433;64.2027111683656
319.693871536255;63.9213348758027
319.715490407077;63.6471157000484
319.737109277899;63.3736306481425
319.758728148721;63.1063097810913
319.780347019542;62.8595041031756
319.801965890364;62.6343045477001
319.823584761186;62.4241856189524
319.845203632008;62.2274266351898
319.86682250283;62.0552929399557
319.888441373652;61.907730149157
319.910060244474;61.7664814798157
319.931679115295;61.620126036263
319.953297986117;61.4652965884847
319.974916856939;61.2957420067064
319.996535727761;61.102770970159
320.018154598583;60.8790040565102
320.039773469405;60.6270331608742
320.061392340227;60.3654711579534
320.083011211049;60.1155135441426
320.10463008187;59.8885381311947
320.126248952692;59.6869825725768
320.147867823514;59.5127521089831
320.169486694336;59.3698109344609
320.191105565158;59.2676646372611
320.21272443598;59.2242134854382
320.234343306802;59.2404430309457
320.255962177623;59.2966210910449
320.277581048445;59.3776561964894
320.299199919267;59.4748853905892
320.320818790089;59.5811643714001
320.342437660911;59.6847594665368
320.364056531733;59.7665972301314
320.385675402555;59.8189583510723
320.407294273377;59.8420282433501
320.428913144198;59.8417812961099
320.45053201502;59.8233942449323
320.472150885842;59.7889503638529
320.493769756664;59.7441861934782
320.515388627486;59.6944130236264
320.537007498308;59.6465743281067
320.55862636913;59.6048221648737
320.580245239951;59.5703294494549
320.601864110773;59.548684836874
320.623482981595;59.5358161523811
320.645101852417;59.5225018077227
320.666720723239;59.5023303815111
320.688339594061;59.471926673435
320.709958464883;59.4264824472525
320.731577335705;59.3555449831285
320.753196206526;59.2513743920233
320.774815077348;59.1073919689552
320.79643394817;58.9136807406063
320.818052818992;58.666020319745
320.839671689814;58.3686070926822
320.861290560636;58.0333454951802
320.882909431458;57.6783843080527
320.904528302279;57.3226676445087
320.926147173101;56.9772138995315
320.947766043923;56.6523819113067
320.969384914745;56.3609974361625
320.991003785567;56.1111186476074
321.012622656389;55.9056031260641
321.034241527211;55.7573000363325
321.055860398033;55.6505331030933
321.077479268854;55.5727972243846
321.099098139676;55.5192734305962
321.120717010498;55.4872037997454
321.14233588132;55.4593806464125
321.163954752142;55.4112472513178
321.185573622964;55.3295214292315
321.207192493786;55.2132770857313
321.228811364607;55.0557726828068
321.250430235429;54.848252156317
321.272049106251;54.5854051784896
321.293667977073;54.273239833252
321.315286847895;53.9145379437673
321.336905718717;53.5204481573393
321.358524589539;53.1114075628354
321.380143460361;52.7076991041273
321.401762331182;52.3120853193083
321.423381202004;51.9167587368216
321.445000072826;51.5314825539279
321.466618943648;51.1874786078852
321.48823781447;50.8966271643548
321.509856685292;50.6548390213716
321.531475556114;50.446739919951
321.553094426935;50.2588409832884
321.574713297757;50.094977906254
321.596332168579;49.9645829760633
321.617951039401;49.8603510316389
321.639569910223;49.7686317784956
321.661188781045;49.6901875216997
321.682807651867;49.6394815281387
321.704426522688;49.63352554164
321.72604539351;49.6638194271986
321.747664264332;49.7020673596683
321.769283135154;49.7345111033465
321.790902005976;49.7638985208495
321.812520876798;49.8002450463795
321.83413974762;49.8285953854433
321.855758618442;49.8318885604193
321.877377489263;49.8079879293203
321.898996360085;49.748268214778
321.920615230907;49.6439911236451
321.942234101729;49.498159927144
321.963852972551;49.3138053271591
321.985471843373;49.0839363118894
322.007090714195;48.8165390519025
322.028709585016;48.5391036856763
322.050328455838;48.2560422541705
322.07194732666;47.9694052686336
322.093566197482;47.6749801051971
322.115185068304;47.3769238903907
322.136803939126;47.0986081930547
322.158422809948;46.85920349772
322.18004168077;46.6570906322902
322.201660551591;46.4874744809836
322.223279422413;46.3499812484326
322.244898293235;46.255392947791
322.266517164057;46.2007286465837
322.288136034879;46.1728784093553
322.309754905701;46.1698274166025
322.331373776523;46.1928495537286
322.352992647344;46.2381133811238
322.374611518166;46.3048736460695
322.396230388988;46.3967985162404
322.41784925981;46.5147786760945
322.439468130632;46.6471686388208
322.461087001454;46.7835049531571
322.482705872276;46.9226805985282
322.504324743098;47.0600782860732
322.525943613919;47.1847058477023
322.547562484741;47.280698105243
322.569181355563;47.3467210908627
322.590800226385;47.3837727900552
322.612419097207;47.3828990458319
322.634037968029;47.3301018882744
322.655656838851;47.2226291193736
322.677275709672;47.0584602750675
322.698894580494;46.8399689560678
322.720513451316;46.5831676539135
322.742132322138;46.2948525355562
322.76375119296;45.9785634115528
322.785370063782;45.6510028659405
322.806988934604;45.3384015924049
322.828607805426;45.0495920730841
322.850226676247;44.7826337695733
322.871845547069;44.5403343509761
322.893464417891;44.3328199946929
322.915083288713;44.1686967177387
322.936702159535;44.0366599869754
322.958321030357;43.9334821265312
322.979939901179;43.8643718996642
323.001558772;43.8214766314916
323.023177642822;43.7929349888941
323.044796513644;43.7748691656452
323.066415384466;43.7570140882078
323.088034255288;43.7298682426882
323.10965312611;43.6867540911578
323.131271996932;43.6272634362437
323.152890867754;43.5594439837607
323.174509738575;43.4855417379465
323.196128609397;43.404846035642
323.217747480219;43.322502091123
323.239366351041;43.2466439898766
323.260985221863;43.1823271553698
323.282604092685;43.1279140447055
323.304222963507;43.0925308442029
323.325841834328;43.0933017264481
323.34746070515;43.1334963570919
323.369079575972;43.2047366176709
323.390698446794;43.2939243483123
323.412317317616;43.388227226885
323.433936188438;43.4774593917211
323.45555505926;43.560143392988
323.477173930082;43.6345686815647
323.498792800903;43.68578214683
323.520411671725;43.7110530041235
323.542030542547;43.7162077882704
323.563649413369;43.6953053475249
323.585268284191;43.6514717757981
323.606887155013;43.5907812781778
323.628506025835;43.5069684210817
323.650124896656;43.3902631099794
323.671743767478;43.2439821461183
323.6933626383;43.0857994375297
323.714981509122;42.939542159611
323.736600379944;42.7978962098894
323.758219250766;42.6512737330182
323.779838121588;42.5098696809999
323.80145699241;42.3819170609996
323.823075863231;42.2606036599227
323.844694734053;42.1424010659691
323.866313604875;42.0198379474218
323.887932475697;41.8748735298088
323.909551346519;41.702127068137
323.931170217341;41.4964275294398
323.952789088163;41.2613855274049
323.974407958984;40.9991638924926
323.996026829806;40.7101957654853
324.017645700628;40.4131826074395
324.03926457145;40.1272993727539
324.060883442272;39.8555557417647
324.082502313094;39.6017766021746
324.104121183916;39.3756079918685
324.125740054737;39.189556520251
324.147358925559;39.0406764969335
324.168977796381;38.9200026916068
324.190596667203;38.8265432232041
324.212215538025;38.7661867309309
324.233834408847;38.7410187109625
324.255453279669;38.7436948084917
324.277072150491;38.7665531023797
324.298691021312;38.8021147222394
324.320309892134;38.8431378932886
324.341928762956;38.8854565858478
324.363547633778;38.9230039003683
324.3851665046;38.9477651423936
324.406785375422;38.9554529873895
324.428404246244;38.9403338292955
324.450023117065;38.8952298261473
324.471641987887;38.8169052130009
324.493260858709;38.7026105485109
324.514879729531;38.5453989321226
324.536498600353;38.3370940363344
324.558117471175;38.082186058729
324.579736341997;37.798620143878
324.601355212819;37.4977026778747
324.62297408364;37.1746234514608
324.644592954462;36.825550058319
324.666211825284;36.4548368374491
324.687830696106;36.0633777195932
324.709449566928;35.6416335568171
324.73106843775;35.1729670941634
324.752687308572;34.6517600475382
324.774306179393;34.0833372998822
324.795925050215;33.4795405024547
