Name;BF_ESR_01_14400s_y_gon_40dg_result

Recipe
Accumulations;5;Number of accumulations
RetryCount;0;Number of retries on error
AbortOnError;True;Abort on error
EnableQFactorMeasurement;False;Enable/Disable q-Factor measurement
Bfrom;313;B from
Bto;363;B to
SweepTime;60;Sweep time
Modulation;0.2;Modulation
ModulationFreq;100;Modulation
BHoldEnabled;False;B hold enabled
BHold;0;B hold
MicrowavePower;2;Microwave power
MarkerEnabled;False;
MarkerStartField;0;
MarkerEndField;0;
Mode;;
KineticGFact;0;
KineticTotalTransientTime;0;
KineticTimeResolution;0;
TempFrom;5;
TempUseSlope;False;
TempTo;5;
TempdT;1;
TempSetupTime;0;
GonFrom;0;
GonTo;180;
GonSteps;20;
XRayEnabled;False;
XRayTime;3;
XRayVoltage;40;
XRayCurrent;0.5;
UVEnabled;False;
UVIntensity;0;
UVTime;0;
UVLeadTime;0;
UVWavelength;0;
PowSweepFrom;1;
PowSweepTo;5;
PowSweepSteps;5;
AmpModSweepFrom;0;
AmpModSweepTo;1;
AmpModSweepSteps;10;
ExtTriggerEnabled;False;
ExtTrigLeadTime;0;
ExtTrigOnTime;5;

Meas
BField [mT];MW_Absorption []
313.029772796631;57.9759301034852
313.051386276007;57.5055034984883
313.072999755384;56.9811004770148
313.094613234761;56.409016641186
313.116226714137;55.7972740293535
313.137840193514;55.1440344346932
313.15945367289;54.4280278641608
313.181067152267;53.647009879289
313.202680631643;52.847671977473
313.22429411102;52.0989619092841
313.245907590396;51.4222664564723
313.267521069773;50.8083171711839
313.28913454915;50.2622559295309
313.310748028526;49.8093502626053
313.332361507903;49.4642993456579
313.353974987279;49.2251170198379
313.375588466656;49.0963755203719
313.397201946032;49.0804299801567
313.418815425409;49.1620995245625
313.440428904786;49.3271951846951
313.462042384162;49.5576452689586
313.483655863539;49.8252434711834
313.505269342915;50.1082015484355
313.526882822292;50.3948538034057
313.548496301668;50.6774950473728
313.570109781045;50.9494493676487
313.591723260421;51.199555317283
313.613336739798;51.4165369821789
313.634950219175;51.5931171631028
313.656563698551;51.7316828385216
313.678177177928;51.8523412499293
313.699790657304;51.9769665468949
313.721404136681;52.0960991892221
313.743017616057;52.2076764152642
313.764631095434;52.3305962765888
313.786244574811;52.4892406522344
313.807858054187;52.6883414530385
313.829471533564;52.9093370794103
313.85108501294;53.1356021875082
313.872698492317;53.354201835684
313.894311971693;53.5665662841912
313.91592545107;53.7833007904641
313.937538930446;53.9976505833645
313.959152409823;54.1888940353858
313.9807658892;54.3400878084353
314.002379368576;54.4450988980789
314.023992847953;54.5107897446831
314.045606327329;54.5487975786785
314.067219806706;54.5729870912226
314.088833286082;54.5931213335171
314.110446765459;54.618499942662
314.132060244835;54.6604389734461
314.153673724212;54.7199725707907
314.175287203589;54.7885074939758
314.196900682965;54.8702419160942
314.218514162342;54.9739194463544
314.240127641718;55.1074801101301
314.261741121095;55.2732492779521
314.283354600471;55.456280927343
314.304968079848;55.6353946513491
314.326581559225;55.8069565597351
314.348195038601;55.9701869927172
314.369808517978;56.1135202671978
314.391421997354;56.2227919945624
314.413035476731;56.2850608132643
314.434648956107;56.2879464712817
314.456262435484;56.223498430027
314.47787591486;56.0942204885155
314.499489394237;55.9115008971069
314.521102873614;55.6785808072996
314.54271635299;55.3933264136924
314.564329832367;55.0513036047178
314.585943311743;54.6691495079088
314.60755679112;54.274204881131
314.629170270496;53.8779688225361
314.650783749873;53.4922710762534
314.67239722925;53.1282408799942
314.694010708626;52.7962775567966
314.715624188003;52.5112094604538
314.737237667379;52.289168352585
314.758851146756;52.1423248300989
314.780464626132;52.0730457708602
314.802078105509;52.0778697482541
314.823691584885;52.1532729285796
314.845305064262;52.3013915444722
314.866918543639;52.5188513621406
314.888532023015;52.7789956946179
314.910145502392;53.0577514307047
314.931758981768;53.3426744433848
314.953372461145;53.625944929035
314.974985940521;53.9021405210149
314.996599419898;54.1563450144671
315.018212899275;54.3639562830095
315.039826378651;54.500355393967
315.061439858028;54.5519517812884
315.083053337404;54.5112342589388
315.104666816781;54.358231308677
315.126280296157;54.0922038808599
315.147893775534;53.7589861022168
315.16950725491;53.3895456852437
315.191120734287;52.983133852111
315.212734213664;52.5403386741713
315.23434769304;52.0789747834675
315.255961172417;51.6428363713307
315.277574651793;51.2533709929329
315.29918813117;50.9069894440351
315.320801610546;50.6061198096547
315.342415089923;50.3569662315019
315.3640285693;50.1650470679183
315.385642048676;50.0278772985914
315.407255528053;49.9329708403189
315.428869007429;49.8659378146749
315.450482486806;49.8209161129256
315.472095966182;49.7971083210867
315.493709445559;49.7855393395763
315.515322924935;49.7712216826525
315.536936404312;49.7507831357326
315.558549883689;49.723442812472
315.580163363065;49.6871548220845
315.601776842442;49.6474431127462
315.623390321818;49.6156581602568
315.645003801195;49.5951629474747
315.666617280571;49.586508166251
315.688230759948;49.5881117681215
315.709844239324;49.596343529855
315.731457718701;49.6127364666231
315.753071198078;49.6377153041117
315.774684677454;49.6671922449933
315.796298156831;49.6962398389173
315.817911636207;49.7232032485446
315.839525115584;49.7441915494297
315.86113859496;49.7517429163729
315.882752074337;49.7501551277831
315.904365553714;49.7510600299467
315.92597903309;49.7579113807259
315.947592512467;49.7728172139395
315.969205991843;49.7905939845852
315.99081947122;49.8062875017692
316.012432950596;49.8395984219758
316.034046429973;49.899347571224
316.055659909349;49.9771521317562
316.077273388726;50.0729200434561
316.098886868103;50.1913819677285
316.120500347479;50.3274650344731
316.142113826856;50.469435467516
316.163727306232;50.6062866805547
316.185340785609;50.7323027529369
316.206954264985;50.8467284223815
316.228567744362;50.9483388688301
316.250181223739;51.0247776071421
316.271794703115;51.0760809364447
316.293408182492;51.1174492915593
316.315021661868;51.1494094785733
316.336635141245;51.1578638910676
316.358248620621;51.1415781234968
316.379862099998;51.1047500882027
316.401475579374;51.0557706493803
316.423089058751;51.0037362217491
316.444702538128;50.9487100029294
316.466316017504;50.8840750768908
316.487929496881;50.8041348175741
316.509542976257;50.6991725384783
316.531156455634;50.5566332315798
316.55276993501;50.3805699263514
316.574383414387;50.1861828325607
316.595996893764;49.9841245472013
316.61761037314;49.7686709221333
316.639223852517;49.5310544993637
316.660837331893;49.275738279501
316.68245081127;49.024063673176
316.704064290646;48.7916937097517
316.725677770023;48.5794152067422
316.747291249399;48.3844299510666
316.768904728776;48.2110063445076
316.790518208153;48.0645092521373
316.812131687529;47.9395256643319
316.833745166906;47.8264562244469
316.855358646282;47.7261152573265
316.876972125659;47.6386281841872
316.898585605035;47.5563365814951
316.920199084412;47.4748177189762
316.941812563789;47.3904310974588
316.963426043165;47.2943654005585
316.985039522542;47.1854300808611
317.006653001918;47.0649157762461
317.028266481295;46.9324445640676
317.049879960671;46.7865437890776
317.071493440048;46.6305246879029
317.093106919424;46.4778801162638
317.114720398801;46.3354620514855
317.136333878178;46.2036937978654
317.157947357554;46.0891071435888
317.179560836931;46.002972250619
317.201174316307;45.9562303175427
317.222787795684;45.9588122092804
317.24440127506;46.0114348211242
317.266014754437;46.1058683983345
317.287628233813;46.2345235781903
317.30924171319;46.3922727610993
317.330855192567;46.574582358661
317.352468671943;46.7634344398687
317.37408215132;46.940397242885
317.395695630696;47.0990369666809
317.417309110073;47.2240495954552
317.438922589449;47.3031170930623
317.460536068826;47.3300773384245
317.482149548203;47.300324966382
317.503763027579;47.2124085452167
317.525376506956;47.0740722032754
317.546989986332;46.9037267401672
317.568603465709;46.7044345280121
317.590216945085;46.4831211968159
317.611830424462;46.2457563548523
317.633443903838;46.0028550585329
317.655057383215;45.7690967920563
317.676670862592;45.5600559802675
317.698284341968;45.381408581053
317.719897821345;45.2383270134743
317.741511300721;45.1434614898967
317.763124780098;45.094832191314
317.784738259474;45.0843970273878
317.806351738851;45.1129813411067
317.827965218228;45.1905775910876
317.849578697604;45.3336233775094
317.871192176981;45.5450792444015
317.892805656357;45.7903021183796
317.914419135734;46.03435413492
317.93603261511;46.279477902756
317.957646094487;46.5318098042881
317.979259573863;46.7851862351868
318.00087305324;47.0172029582869
318.022486532617;47.210074927697
318.044100011993;47.363451254546
318.06571349137;47.4809165039512
318.087326970746;47.5617857971643
318.108940450123;47.6041760151465
318.130553929499;47.6230102639036
318.152167408876;47.6368354360438
318.173780888253;47.6475334522008
318.195394367629;47.6499680992818
318.217007847006;47.6417349028158
318.238621326382;47.6312133866832
318.260234805759;47.6326022956736
318.281848285135;47.6517894417256
318.303461764512;47.6880917325516
318.325075243888;47.7297527484491
318.346688723265;47.7642639357022
318.368302202642;47.7927725655189
318.389915682018;47.8155227852778
318.411529161395;47.8232865129401
318.433142640771;47.8068211768461
318.454756120148;47.7613371827218
318.476369599524;47.6895469656649
318.497983078901;47.6009345920037
318.519596558278;47.5025456028948
318.541210037654;47.3902304693184
318.562823517031;47.2546719356227
318.584436996407;47.0934085111966
318.606050475784;46.9116079162451
318.62766395516;46.7194829169779
318.649277434537;46.5195008795551
318.670890913913;46.3119200747761
318.69250439329;46.1026509219365
318.714117872667;45.89758520229
318.735731352043;45.7038599280748
318.75734483142;45.5316690607076
318.778958310796;45.3820864253175
318.800571790173;45.2534702477461
318.822185269549;45.1526091768438
318.843798748926;45.075699757543
318.865412228302;45.0149442776221
318.887025707679;44.9668806017205
318.908639187056;44.929577911413
318.930252666432;44.8995721122711
318.951866145809;44.8754597450124
318.973479625185;44.8599580278538
318.995093104562;44.8538371955578
319.016706583938;44.8558077936868
319.038320063315;44.865567271226
319.059933542692;44.8931635404209
319.081547022068;44.9499460443818
319.103160501445;45.0342157953413
319.124773980821;45.1434161845222
319.146387460198;45.2801506496591
319.168000939574;45.4453375022036
319.189614418951;45.6352973030196
319.211227898327;45.8466697893124
319.232841377704;46.0699936530417
319.254454857081;46.2934669184007
319.276068336457;46.5051825536865
319.297681815834;46.698632842236
319.31929529521;46.8699374112649
319.340908774587;47.0086758930143
319.362522253963;47.1024490054762
319.38413573334;47.1449176272106
319.405749212717;47.1361166265486
319.427362692093;47.0771917709609
319.44897617147;46.9686529773311
319.470589650846;46.811370404084
319.492203130223;46.6137831005545
319.513816609599;46.4034062430077
319.535430088976;46.1875068928978
319.557043568352;45.9614383505324
319.578657047729;45.7293819136791
319.600270527106;45.498371705827
319.621884006482;45.2710317012939
319.643497485859;45.0547687834195
319.665110965235;44.8550276683904
319.686724444612;44.6696010034639
319.708337923988;44.4907187032982
319.729951403365;44.3160204018704
319.751564882741;44.1472775522938
319.773178362118;43.9885691660029
319.794791841495;43.8377732977921
319.816405320871;43.6883737036125
319.838018800248;43.5423184901395
319.859632279624;43.4035784026583
319.881245759001;43.271720125632
319.902859238377;43.1446019754493
319.924472717754;43.0308269322303
319.946086197131;42.9399023805176
319.967699676507;42.8731437787576
319.989313155884;42.8329904531691
320.01092663526;42.8262159837525
320.032540114637;42.8498498751801
320.054153594013;42.8983072984805
320.07576707339;42.9684114735232
320.097380552766;43.0534486996544
320.118994032143;43.1523512600331
320.14060751152;43.2684561459098
320.162220990896;43.3954498183728
320.183834470273;43.5245328760219
320.205447949649;43.6494470309382
320.227061429026;43.7653613741823
320.248674908402;43.8648426930571
320.270288387779;43.9420586900406
320.291901867156;44.0011383772487
320.313515346532;44.0474228583695
320.335128825909;44.0844394893236
320.356742305285;44.1123727084785
320.378355784662;44.1354948664392
320.399969264038;44.1552968976448
320.421582743415;44.1783918877857
320.443196222791;44.2101510795306
320.464809702168;44.2525871043831
320.486423181545;44.2990367543386
320.508036660921;44.3355276096445
320.529650140298;44.358471379085
320.551263619674;44.3696120868098
320.572877099051;44.3692986227976
320.594490578427;44.3608053732478
320.616104057804;44.3497025873621
320.63771753718;44.3359252159272
320.659331016557;44.3193807806305
320.680944495934;44.3033757776597
320.70255797531;44.2947062165277
320.724171454687;44.3039492135156
320.745784934063;44.339937552514
320.76739841344;44.4068761387481
320.789011892816;44.504171333925
320.810625372193;44.6321760908732
320.83223885157;44.7935531979169
320.853852330946;44.9863668473532
320.875465810323;45.2056387182944
320.897079289699;45.4459876022242
320.918692769076;45.6934566725174
320.940306248452;45.9326011128804
320.961919727829;46.160009353815
320.983533207205;46.3778752176873
321.005146686582;46.5825959200776
321.026760165959;46.7621461802744
321.048373645335;46.9152953626512
321.069987124712;47.0515116573613
321.091600604088;47.182645734568
321.113214083465;47.3259235663132
321.134827562841;47.4872772029224
321.156441042218;47.6636901294397
321.178054521595;47.8574462367465
321.199668000971;48.0655649667823
321.221281480348;48.2784201365902
321.242894959724;48.4918849505004
321.264508439101;48.7001813979761
321.286121918477;48.8914316532209
321.307735397854;49.0499631828807
321.32934887723;49.1467206840239
321.350962356607;49.158314622227
321.372575835984;49.0911924261058
321.39418931536;48.9491734108821
321.415802794737;48.7385978121231
321.437416274113;48.4746583265577
321.45902975349;48.1650705058325
321.480643232866;47.8266438351148
321.502256712243;47.4790611908451
321.523870191619;47.1224263464316
321.545483670996;46.7581917713336
321.567097150373;46.4197031810717
321.588710629749;46.1380199032568
321.610324109126;45.9079574525791
321.631937588502;45.7136405432235
321.653551067879;45.5544188085434
321.675164547255;45.4449831851192
321.696778026632;45.3958226248318
321.718391506009;45.3917623202487
321.740004985385;45.4096938689665
321.761618464762;45.4242835300698
321.783231944138;45.4212673161771
321.804845423515;45.4060820724774
321.826458902891;45.3902198703329
321.848072382268;45.3661291747465
321.869685861644;45.3092224284264
321.891299341021;45.1978228229742
321.912912820398;45.0293686723498
321.934526299774;44.8114860490243
321.956139779151;44.5468807392584
321.977753258527;44.2395425739019
321.999366737904;43.8971186754423
322.02098021728;43.5247151391319
322.042593696657;43.1261412860271
322.064207176034;42.7103670421626
322.08582065541;42.2895335262217
322.107434134787;41.8652985901463
322.129047614163;41.4265075978153
322.15066109354;40.9815214176896
322.172274572916;40.5746073135183
322.193888052293;40.2164790084336
322.215501531669;39.8882861688194
322.237115011046;39.5750205147082
322.258728490423;39.2866323811558
322.280341969799;39.0324300448927
322.301955449176;38.8004179881732
322.323568928552;38.574619878571
322.345182407929;38.3562706920295
322.366795887305;38.159537670904
322.388409366682;37.9818396469487
322.410022846059;37.8050164972304
322.431636325435;37.6118123215661
322.453249804812;37.4083449872589
322.474863284188;37.2065072211203
322.496476763565;37.0109813632946
322.518090242941;36.8215637723134
322.539703722318;36.6350818617193
322.561317201694;36.4520674194163
322.582930681071;36.2808486794516
322.604544160448;36.133082984113
322.626157639824;36.0205916369118
322.647771119201;35.9441227981093
322.669384598577;35.8995333636229
322.690998077954;35.8849003986811
322.71261155733;35.9022646240375
322.734225036707;35.9503268305206
322.755838516083;36.0247629649573
322.77745199546;36.1174519098333
322.799065474837;36.2142513194769
322.820678954213;36.3039197977061
322.84229243359;36.3809892950498
322.863905912966;36.4388448002037
322.885519392343;36.4716760551636
322.907132871719;36.4777322161815
322.928746351096;36.4616880702902
322.950359830473;36.4268897137853
322.971973309849;36.3731084663297
322.993586789226;36.3053330227112
323.015200268602;36.2355000420276
323.036813747979;36.1756912559271
323.058427227355;36.1383578997822
323.080040706732;36.1218435162928
323.101654186108;36.1179262922472
323.123267665485;36.1236605131828
323.144881144862;36.1351163670995
323.166494624238;36.1443743458973
323.188108103615;36.1397614788716
323.209721582991;36.1085614499496
323.231335062368;36.0503148914638
323.252948541744;35.9747948721589
323.274562021121;35.8839765542024
323.296175500498;35.7714094968006
323.317788979874;35.6442196871536
323.339402459251;35.5153114520998
323.361015938627;35.3891371390475
323.382629418004;35.2705231397534
323.40424289738;35.1633176772582
323.425856376757;35.077696808873
323.447469856133;35.0254653554903
323.46908333551;35.0192485817814
323.490696814887;35.0580314940167
323.512310294263;35.1311165668835
323.53392377364;35.2208920982189
323.555537253016;35.3242601558981
323.577150732393;35.4487645332153
323.598764211769;35.6063652652845
323.620377691146;35.7869093983713
323.641991170523;35.9788552182865
323.663604649899;36.1698123819188
323.685218129276;36.3468756917299
323.706831608652;36.5149868025047
323.728445088029;36.6805315749218
323.750058567405;36.8470829285685
323.771672046782;37.0107128661477
323.793285526158;37.1579683961652
323.814899005535;37.2807948166527
323.836512484912;37.3898075490904
323.858125964288;37.4951189747171
323.879739443665;37.5831949093931
323.901352923041;37.6247668572633
323.922966402418;37.6027769656972
323.944579881794;37.5273871672003
323.966193361171;37.4151368288105
323.987806840548;37.2710457386538
324.009420319924;37.0973075468216
324.031033799301;36.8985169425137
324.052647278677;36.6750379732625
324.074260758054;36.4252930440116
324.09587423743;36.147051208631
324.117487716807;35.8433190102144
324.139101196183;35.5238494429459
324.16071467556;35.1936296274357
324.182328154937;34.8508504415725
324.203941634313;34.5088038762047
324.22555511369;34.1714298436393
324.247168593066;33.829210620871
324.268782072443;33.4868446405054
324.290395551819;33.1610921409744
324.312009031196;32.852013915175
324.333622510572;32.5593643722252
324.355235989949;32.293810277418
324.376849469326;32.0682833389379
324.398462948702;31.8808625295701
324.420076428079;31.7275572976762
324.441689907455;31.6076175941356
324.463303386832;31.5206598227182
324.484916866208;31.4647907034727
324.506530345585;31.4441034920964
324.528143824962;31.4545179108734
324.549757304338;31.493734105418
324.571370783715;31.564215402367
324.592984263091;31.6694610439688
324.614597742468;31.8015530993087
324.636211221844;31.9571303327216
324.657824701221;32.1355437942149
324.679438180597;32.3360587851704
324.701051659974;32.5530588303997
324.722665139351;32.7822506572968
324.744278618727;33.0132554032242
324.765892098104;33.2417720440469
