Name;BF_ESR_01_3602s_Y_gon_20dg_result

Recipe
Accumulations;5;Number of accumulations
RetryCount;0;Number of retries on error
AbortOnError;True;Abort on error
EnableQFactorMeasurement;False;Enable/Disable q-Factor measurement
Bfrom;313;B from
Bto;363;B to
SweepTime;60;Sweep time
Modulation;0.2;Modulation
ModulationFreq;100;Modulation
BHoldEnabled;False;B hold enabled
BHold;0;B hold
MicrowavePower;2;Microwave power
MarkerEnabled;False;
MarkerStartField;0;
MarkerEndField;0;
Mode;;
KineticGFact;0;
KineticTotalTransientTime;0;
KineticTimeResolution;0;
TempFrom;5;
TempUseSlope;False;
TempTo;5;
TempdT;1;
TempSetupTime;0;
GonFrom;0;
GonTo;180;
GonSteps;20;
XRayEnabled;False;
XRayTime;3;
XRayVoltage;40;
XRayCurrent;0.5;
UVEnabled;False;
UVIntensity;0;
UVTime;0;
UVLeadTime;0;
UVWavelength;0;
PowSweepFrom;1;
PowSweepTo;5;
PowSweepSteps;5;
AmpModSweepFrom;0;
AmpModSweepTo;1;
AmpModSweepSteps;10;
ExtTriggerEnabled;False;
ExtTrigLeadTime;0;
ExtTrigOnTime;5;

Meas
BField [mT];MW_Absorption []
313.019802017212;54.4150869406693
313.041406690875;54.0395722232852
313.063011364539;53.6064550607844
313.084616038202;53.1284532910544
313.106220711866;52.5871659646919
313.127825385529;51.9979189813029
313.149430059193;51.3927774433225
313.171034732857;50.7828013246888
313.19263940652;50.1635110846905
313.214244080184;49.5262470028585
313.235848753847;48.8775732483439
313.257453427511;48.267471284144
313.279058101174;47.7268438342657
313.300662774838;47.2406713698874
313.322267448501;46.7909880794145
313.343872122165;46.3766011381098
313.365476795828;46.0124394082805
313.387081469492;45.7162292031754
313.408686143155;45.4958062627282
313.430290816819;45.3624423735974
313.451895490482;45.3198370309623
313.473500164146;45.3511421964449
313.495104837809;45.4311488609215
313.516709511473;45.5490823376365
313.538314185136;45.6995609210122
313.5599188588;45.8645885268385
313.581523532463;46.0282305234725
313.603128206127;46.1788252452711
313.62473287979;46.3025577340432
313.646337553454;46.3953160804518
313.667942227117;46.4444177148188
313.689546900781;46.4345320905851
313.711151574445;46.3697409331284
313.732756248108;46.2633793450506
313.754360921772;46.1283351860623
313.775965595435;45.9672658412956
313.797570269099;45.7867081567489
313.819174942762;45.6059725063092
313.840779616426;45.4459336779448
313.862384290089;45.3079229368713
313.883988963753;45.1938340980843
313.905593637416;45.1124353919626
313.92719831108;45.0618234102388
313.948802984743;45.0346400369175
313.970407658407;45.024162186839
313.99201233207;45.0271553338744
314.013617005734;45.0473569495381
314.035221679397;45.0781601424097
314.056826353061;45.1109683979291
314.078431026724;45.1463152940746
314.100035700388;45.1880478739113
314.121640374051;45.2340448250686
314.143245047715;45.2821130328275
314.164849721378;45.3355469826431
314.186454395042;45.3965218038193
314.208059068705;45.4619270931848
314.229663742369;45.5256123565157
314.251268416032;45.5799362384344
314.272873089696;45.6277187343999
314.294477763359;45.6648053320747
314.316082437023;45.6814128240099
314.337687110686;45.6717676759367
314.35929178435;45.6337831453682
314.380896458014;45.5714044432041
314.402501131677;45.49024131126
314.424105805341;45.3923145308401
314.445710479004;45.2808130680791
314.467315152668;45.1567185282641
314.488919826331;45.0216490762517
314.510524499995;44.8842601546128
314.532129173658;44.7527494026009
314.553733847322;44.6227034387158
314.575338520985;44.4833469494745
314.596943194649;44.3343755942604
314.618547868312;44.1773070883803
314.640152541976;44.0102901999949
314.661757215639;43.8390841946801
314.683361889303;43.6667388211786
314.704966562966;43.4891478372994
314.72657123663;43.3094858479504
314.748175910293;43.1237506258484
314.769780583957;42.9189773426496
314.79138525762;42.6955948697353
314.812989931284;42.4644057492772
314.834594604947;42.2232878744561
314.856199278611;41.9889520962959
314.877803952274;41.7744801115251
314.899408625938;41.5828128319073
314.921013299601;41.4149035390184
314.942617973265;41.2740302419245
314.964222646928;41.164466248678
314.985827320592;41.0986002955468
315.007431994256;41.0787318637134
315.029036667919;41.0902555991551
315.050641341583;41.1247655830963
315.072246015246;41.1811351269769
315.09385068891;41.2389155800695
315.115455362573;41.2721126084702
315.137060036237;41.2848119142028
315.1586647099;41.2934603313148
315.180269383564;41.2963512716598
315.201874057227;41.297892164044
315.223478730891;41.2956235987324
315.245083404554;41.2851178567561
315.266688078218;41.2726255344099
315.288292751881;41.2734529053775
315.309897425545;41.2966355481783
315.331502099208;41.3504385989238
315.353106772872;41.4462553660491
315.374711446535;41.5900188471445
315.396316120199;41.7770749752686
315.417920793862;42.0008452361693
315.439525467526;42.2618035760028
315.461130141189;42.5576375201316
315.482734814853;42.8719685747787
315.504339488516;43.1808819902194
315.52594416218;43.4719261961993
315.547548835843;43.7404691157186
315.569153509507;43.9832692952172
315.590758183171;44.1870549734136
315.612362856834;44.3247927485818
315.633967530498;44.39331974113
315.655572204161;44.4037731374477
315.677176877825;44.3573550790802
315.698781551488;44.2460700460326
315.720386225152;44.0650786579008
315.741990898815;43.8313431163156
315.763595572479;43.5739375939657
315.785200246142;43.2994548994246
315.806804919806;43.0159963090671
315.828409593469;42.7489780970426
315.850014267133;42.532184952413
315.871618940796;42.3815507843804
315.89322361446;42.2961929738574
315.914828288123;42.274650332625
315.936432961787;42.3135174229463
315.95803763545;42.4078514976136
315.979642309114;42.5486600657612
316.001246982777;42.7256117492774
316.022851656441;42.9330760653249
316.044456330104;43.1654092824458
316.066061003768;43.4051117135737
316.087665677431;43.6167988690513
316.109270351095;43.7883908238296
316.130875024758;43.9286107664593
316.152479698422;44.0446143610379
316.174084372085;44.1435545603317
316.195689045749;44.2371355977298
316.217293719413;44.3480574949234
316.238898393076;44.4840250212616
316.26050306674;44.6444123354408
316.282107740403;44.8422972053303
316.303712414067;45.0950364226446
316.32531708773;45.4052473322123
316.346921761394;45.7525747745076
316.368526435057;46.1131529165367
316.390131108721;46.4773228748946
316.411735782384;46.832085960299
316.433340456048;47.1487314956794
316.454945129711;47.4004226426539
316.476549803375;47.5721209599966
316.498154477038;47.6537764626203
316.519759150702;47.6368325974907
316.541363824365;47.5240168820013
316.562968498029;47.3309757368291
316.584573171692;47.0493006534066
316.606177845356;46.688840080092
316.627782519019;46.2793710413248
316.649387192683;45.8416725324501
316.670991866346;45.3865300092209
316.69259654001;44.9302201728174
316.714201213673;44.4910674039512
316.735805887337;44.0793333079287
316.757410561;43.705040926072
316.779015234664;43.3759966656166
316.800619908327;43.0928638497647
316.822224581991;42.8624807624877
316.843829255655;42.6980633361986
316.865433929318;42.5938136283047
316.887038602982;42.5451887852688
316.908643276645;42.5513248519369
316.930247950309;42.5850593996278
316.951852623972;42.6379830367388
316.973457297636;42.7126084199606
316.995061971299;42.794508466862
317.016666644963;42.864535708066
317.038271318626;42.9260539348867
317.05987599229;42.9849150383801
317.081480665953;43.0346556145708
317.103085339617;43.0647062810367
317.12469001328;43.0692641540513
317.146294686944;43.0452817465301
317.167899360607;42.9923058602748
317.189504034271;42.9118344749543
317.211108707934;42.8053239860647
317.232713381598;42.6772382696745
317.254318055261;42.5326592894776
317.275922728925;42.3745355971373
317.297527402588;42.2101507940481
317.319132076252;42.0444179509932
317.340736749915;41.8740731925055
317.362341423579;41.7005902249054
317.383946097242;41.52158107845
317.405550770906;41.3268101748032
317.42715544457;41.129894308585
317.448760118233;40.9515271624061
317.470364791897;40.7878037688909
317.49196946556;40.632123610113
317.513574139224;40.4786462195189
317.535178812887;40.3359528003677
317.556783486551;40.2364646579052
317.578388160214;40.1876919197054
317.599992833878;40.1848408378489
317.621597507541;40.2201254293006
317.643202181205;40.2878299057271
317.664806854868;40.4030198487463
317.686411528532;40.5734431761221
317.708016202195;40.7950195112632
317.729620875859;41.0545342792455
317.751225549522;41.3299050710575
317.772830223186;41.6127137643483
317.794434896849;41.8981271480541
317.816039570513;42.1753206780695
317.837644244176;42.4339010966714
317.85924891784;42.6761207741764
317.880853591503;42.900172437517
317.902458265167;43.0950272338005
317.92406293883;43.2584477760855
317.945667612494;43.4005413830355
317.967272286157;43.5322190688604
317.988876959821;43.6617767017929
318.010481633484;43.796465922639
318.032086307148;43.9419541301085
318.053690980812;44.0978736253856
318.075295654475;44.2649109251049
318.096900328139;44.453471492495
318.118505001802;44.6767489787416
318.140109675466;44.930220264037
318.161714349129;45.1902918621186
318.183319022793;45.4400578696393
318.204923696456;45.6713784219856
318.22652837012;45.8822531121922
318.248133043783;46.0623636519222
318.269737717447;46.1998858922873
318.29134239111;46.2856407572929
318.312947064774;46.3253348512662
318.334551738437;46.3237374823157
318.356156412101;46.2668262340294
318.377761085764;46.1626653626739
318.399365759428;46.0187506720191
318.420970433091;45.841516591377
318.442575106755;45.6280655188374
318.464179780418;45.3818274154925
318.485784454082;45.1056536102498
318.507389127745;44.8098044773032
318.528993801409;44.5088343395318
318.550598475072;44.2028132421757
318.572203148736;43.8771511863737
318.593807822399;43.5200192844132
318.615412496063;43.1608350697257
318.637017169726;42.8161780479981
318.65862184339;42.4736497178075
318.680226517053;42.1179582920563
318.701831190717;41.7752404327696
318.723435864381;41.4670962328028
318.745040538044;41.1854717894094
318.766645211708;40.9349212385217
318.788249885371;40.7247808809791
318.809854559035;40.5536871155692
318.831459232698;40.4151881764451
318.853063906362;40.3047769437504
318.874668580025;40.2130009073939
318.896273253689;40.1463204914478
318.917877927352;40.1104323078396
318.939482601016;40.1004506611467
318.961087274679;40.1139080050085
318.982691948343;40.1448795176844
319.004296622006;40.1846412673492
319.02590129567;40.2393848939882
319.047505969333;40.3117228465074
319.069110642997;40.3975407385169
319.09071531666;40.4894117197731
319.112319990324;40.5840880577541
319.133924663987;40.67924178218
319.155529337651;40.7708944596703
319.177134011314;40.8552155240863
319.198738684978;40.9334899370257
319.220343358641;41.00528812529
319.241948032305;41.0613010707725
319.263552705968;41.0968876860251
319.285157379632;41.1061480971603
319.306762053296;41.0930265534621
319.328366726959;41.0735866582955
319.349971400623;41.0539156782022
319.371576074286;41.0256830122584
319.39318074795;40.9863081689898
319.414785421613;40.9474422401464
319.436390095277;40.9175348692438
319.45799476894;40.8908122029961
319.479599442604;40.8633999545028
319.501204116267;40.8433748318623
319.522808789931;40.8349190886222
319.544413463594;40.8337226996541
319.566018137258;40.8302675949145
319.587622810921;40.8181195504969
319.609227484585;40.801424464994
319.630832158248;40.7877999988518
319.652436831912;40.7821656396193
319.674041505575;40.7839942405731
319.695646179239;40.7914527366487
319.717250852902;40.8106863699414
319.738855526566;40.8489824368948
319.760460200229;40.904493964864
319.782064873893;40.974889774587
319.803669547556;41.0591848899018
319.82527422122;41.149784604844
319.846878894883;41.2369219759039
319.868483568547;41.3205498306988
319.89008824221;41.3993075573826
319.911692915874;41.4641104101161
319.933297589538;41.5048328085562
319.954902263201;41.5168154408564
319.976506936865;41.4969390622282
319.998111610528;41.444682056848
320.019716284192;41.3602018505678
320.041320957855;41.2408065531431
320.062925631519;41.0909029908185
320.084530305182;40.9198870401277
320.106134978846;40.7312840905931
320.127739652509;40.5248482254647
320.149344326173;40.3097010865175
320.170948999836;40.0988343275809
320.1925536735;39.8954254338096
320.214158347163;39.7008167532781
320.235763020827;39.5154079908994
320.25736769449;39.3372881624034
320.278972368154;39.1666205753643
320.300577041817;39.0027554776741
320.322181715481;38.8372731254274
320.343786389144;38.6638205931281
320.365391062808;38.4811617739572
320.386995736471;38.2903270298416
320.408600410135;38.0937831320318
320.430205083798;37.8989559983707
320.451809757462;37.714465178433
320.473414431125;37.5447490908816
320.495019104789;37.3923124274314
320.516623778452;37.2658519922594
320.538228452116;37.1744486266468
320.55983312578;37.1231129351596
320.581437799443;37.1152493092316
320.603042473107;37.1505100086297
320.62464714677;37.2282954167356
320.646251820434;37.3441089780952
320.667856494097;37.482234074516
320.689461167761;37.6299117744446
320.711065841424;37.7856888249664
320.732670515088;37.9441613152548
320.754275188751;38.1005334301796
320.775879862415;38.2575875100978
320.797484536078;38.4149288900881
320.819089209742;38.5534421355533
320.840693883405;38.6621871010726
320.862298557069;38.7510249754465
320.883903230732;38.833624142807
320.905507904396;38.9122070613573
320.927112578059;38.9838887052208
320.948717251723;39.063873081913
320.970321925386;39.1624433417627
320.99192659905;39.284731743046
321.013531272713;39.4413500509642
321.035135946377;39.6399642547925
321.05674062004;39.8719747583679
321.078345293704;40.132031799743
321.099949967367;40.4235596401243
321.121554641031;40.7518690343345
321.143159314694;41.1090377432914
321.164763988358;41.4848074623949
321.186368662021;41.8844074700713
321.207973335685;42.3108244759453
321.229578009349;42.7424951768774
321.251182683012;43.1604617469959
321.272787356676;43.5582130092468
321.294392030339;43.9340721465587
321.315996704003;44.2860823783885
321.337601377666;44.6093049632749
321.35920605133;44.8919291581299
321.380810724993;45.1263819541031
321.402415398657;45.2976800528852
321.42402007232;45.4067113140219
321.445624745984;45.4603130144834
321.467229419647;45.4691656305941
321.488834093311;45.4345897084553
321.510438766974;45.3592647286975
321.532043440638;45.25221503923
321.553648114301;45.1262943011051
321.575252787965;44.9873755936945
321.596857461628;44.8256108395004
321.618462135292;44.6425812968911
321.640066808955;44.4692697636302
321.661671482619;44.3160867471107
321.683276156282;44.1712897297208
321.704880829946;44.0233175743221
321.726485503609;43.8578581613993
321.748090177273;43.6656825311528
321.769694850937;43.4559367481243
321.7912995246;43.2304346219444
321.812904198264;42.984633791225
321.834508871927;42.7091368047728
321.856113545591;42.3896062372646
321.877718219254;42.010297499059
321.899322892918;41.5728884472416
321.920927566581;41.0905702649296
321.942532240245;40.5718843446644
321.964136913908;39.9999300106852
321.985741587572;39.3743358111098
322.007346261235;38.6899981202006
322.028950934899;37.9682656866441
322.050555608562;37.2560146566657
322.072160282226;36.55903704901
322.093764955889;35.8658741065475
322.115369629553;35.1737622081739
322.136974303216;34.4954623882805
322.15857897688;33.8557030705786
322.180183650543;33.2796266038542
322.201788324207;32.7855630531173
322.22339299787;32.3794255035735
322.244997671534;32.0672786447622
322.266602345197;31.851667138946
322.288207018861;31.7400655964118
322.309811692524;31.7372266519614
322.331416366188;31.8473857886612
322.353021039851;32.0724703355235
322.374625713515;32.3908461206428
322.396230387178;32.7770189084465
322.417835060842;33.2315264302801
322.439439734506;33.7559641058209
322.461044408169;34.3461264422998
322.482649081833;34.9771644939643
322.504253755496;35.625480995171
322.52585842916;36.2796539795679
322.547463102823;36.9213463273718
322.569067776487;37.5186582187266
322.59067245015;38.0439403500496
322.612277123814;38.4808618143812
322.633881797477;38.8332527653986
322.655486471141;39.0918668319195
322.677091144804;39.2342859159348
322.698695818468;39.2721945162861
322.720300492131;39.2158853040777
322.741905165795;39.0642166347155
322.763509839458;38.8243282229125
322.785114513122;38.5146775927728
322.806719186785;38.1637979250615
322.828323860449;37.7883769008355
322.849928534112;37.3862802697963
322.871533207776;36.968440857219
322.893137881439;36.5541080795234
322.914742555103;36.1518592193381
322.936347228766;35.7553156682425
322.95795190243;35.3676388038455
322.979556576093;35.0086020494721
323.001161249757;34.695031474812
323.02276592342;34.4184970316425
323.044370597084;34.1626115732286
323.065975270748;33.9272466692491
323.087579944411;33.7338241273866
323.109184618075;33.595606028573
323.130789291738;33.5120608322265
323.152393965402;33.4750277438436
323.173998639065;33.473863707795
323.195603312729;33.5103549827096
323.217207986392;33.5920189783327
323.238812660056;33.7168545600954
323.260417333719;33.8760808578488
323.282022007383;34.0554777259394
323.303626681046;34.2297889742852
323.32523135471;34.3942872454069
323.346836028373;34.5571529872225
323.368440702037;34.7204443377189
323.3900453757;34.8741464563563
323.411650049364;35.004510128362
323.433254723027;35.1010426807283
323.454859396691;35.1670856531748
323.476464070354;35.2150131258522
323.498068744018;35.2522707265474
323.519673417681;35.2815453496954
323.541278091345;35.2952140822857
323.562882765008;35.283505570999
323.584487438672;35.2534492032151
323.606092112335;35.2096081432626
323.627696785999;35.1569657203305
323.649301459663;35.093669076178
323.670906133326;35.009334397824
323.69251080699;34.8956234414936
323.714115480653;34.7598243830008
323.735720154317;34.6193508031756
323.75732482798;34.4928899046845
323.778929501644;34.4004552652403
323.800534175307;34.3493949913666
323.822138848971;34.3366905721314
323.843743522634;34.3627588751047
323.865348196298;34.4352439622007
323.886952869961;34.5548250844095
323.908557543625;34.7189365891186
323.930162217288;34.9230078684589
323.951766890952;35.1590532624094
323.973371564615;35.4086519512314
323.994976238279;35.655654361546
324.016580911942;35.8866269774367
324.038185585606;36.1070936430495
324.059790259269;36.3255382034914
324.081394932933;36.5364461660814
324.102999606596;36.7372908596229
324.12460428026;36.9324514990523
324.146208953923;37.1281011909191
324.167813627587;37.3392654466413
324.18941830125;37.5574167513049
324.211022974914;37.7637530580629
324.232627648577;37.9520735974794
324.254232322241;38.1196316513138
324.275836995905;38.2632371521713
324.297441669568;38.3814322197074
324.319046343232;38.4661147215594
324.340651016895;38.5140147347404
324.362255690559;38.5289983334915
324.383860364222;38.518351794716
324.405465037886;38.4915799665415
324.427069711549;38.4597224338479
324.448674385213;38.4363743619942
324.470279058876;38.4376372466113
324.49188373254;38.4683792167232
324.513488406203;38.5230248458492
324.535093079867;38.6013761441504
324.55669775353;38.7068368009381
324.578302427194;38.8284432021523
324.599907100857;38.9562827884035
324.621511774521;39.0886374245957
324.643116448184;39.2206460748503
324.664721121848;39.3347431114315
324.686325795511;39.4227751870759
324.707930469175;39.4815208285188
324.729535142838;39.5031849583954
324.751139816502;39.4779926003027
