Name;BF_ESR_01_7202s_y_gon_0dg_result

Recipe
Accumulations;5;Number of accumulations
RetryCount;0;Number of retries on error
AbortOnError;True;Abort on error
EnableQFactorMeasurement;False;Enable/Disable q-Factor measurement
Bfrom;313;B from
Bto;363;B to
SweepTime;60;Sweep time
Modulation;0.2;Modulation
ModulationFreq;100;Modulation
BHoldEnabled;False;B hold enabled
BHold;0;B hold
MicrowavePower;2;Microwave power
MarkerEnabled;False;
MarkerStartField;0;
MarkerEndField;0;
Mode;;
KineticGFact;0;
KineticTotalTransientTime;0;
KineticTimeResolution;0;
TempFrom;5;
TempUseSlope;False;
TempTo;5;
TempdT;1;
TempSetupTime;0;
GonFrom;0;
GonTo;180;
GonSteps;20;
XRayEnabled;False;
XRayTime;3;
XRayVoltage;40;
XRayCurrent;0.5;
UVEnabled;False;
UVIntensity;0;
UVTime;0;
UVLeadTime;0;
UVWavelength;0;
PowSweepFrom;1;
PowSweepTo;5;
PowSweepSteps;5;
AmpModSweepFrom;0;
AmpModSweepTo;1;
AmpModSweepSteps;10;
ExtTriggerEnabled;False;
ExtTrigLeadTime;0;
ExtTrigOnTime;5;

Meas
BField [mT];MW_Absorption []
313.030380554199;74.4544182047984
313.051986390678;73.9486131913523
313.073592227157;73.3398487387809
313.095198063636;72.6643374655331
313.116803900115;71.9395514483238
313.138409736594;71.1382764539508
313.160015573073;70.2834374718817
313.181621409552;69.4377305210783
313.20322724603;68.6360394701483
313.224833082509;67.9045349513423
313.246438918988;67.2603911932306
313.268044755467;66.7115202703886
313.289650591946;66.2626945695305
313.311256428425;65.9169959031529
313.332862264904;65.6815798994632
313.354468101383;65.5580965384174
313.376073937862;65.5339861904884
313.39767977434;65.5900696307777
313.419285610819;65.703703770129
313.440891447298;65.8600799382878
313.462497283777;66.0552219720225
313.484103120256;66.2852242136324
313.505708956735;66.5306865116727
313.527314793214;66.7641900020735
313.548920629693;66.9747603389078
313.570526466172;67.1696431094116
313.592132302651;67.3598890626115
313.613738139129;67.5500622272421
313.635343975608;67.7314773130008
313.656949812087;67.8853137381513
313.678555648566;68.0108406592453
313.700161485045;68.123481927719
313.721767321524;68.228021264291
313.743373158003;68.3202824281926
313.764978994482;68.4022786239758
313.786584830961;68.4778359383593
313.808190667439;68.5500600414986
313.829796503918;68.6245561984123
313.851402340397;68.714122273619
313.873008176876;68.8164816265632
313.894614013355;68.9168890839584
313.916219849834;69.0085108446251
313.937825686313;69.0888383990252
313.959431522792;69.151763309984
313.981037359271;69.1844718059636
314.00264319575;69.1757721736439
314.024249032228;69.1278124726852
314.045854868707;69.0380803588137
314.067460705186;68.8965429105748
314.089066541665;68.7033812848258
314.110672378144;68.4752023206507
314.132278214623;68.2236614293099
314.153884051102;67.9502740620928
314.175489887581;67.6660659003492
314.19709572406;67.3855818896267
314.218701560539;67.1099417474072
314.240307397017;66.8378001054489
314.261913233496;66.575205913938
314.283519069975;66.3294116971517
314.305124906454;66.0970613152742
314.326730742933;65.8739475663503
314.348336579412;65.6542754558329
314.369942415891;65.4536159155488
314.39154825237;65.2786681202085
314.413154088849;65.1178805026488
314.434759925328;64.9641321902582
314.456365761806;64.8127574112905
314.477971598285;64.658153190751
314.499577434764;64.5043562907642
314.521183271243;64.3627975897653
314.542789107722;64.2363713010528
314.564394944201;64.1257752334269
314.58600078068;64.0295941851762
314.607606617159;63.9466645641902
314.629212453638;63.876275272565
314.650818290116;63.8145529295285
314.672424126595;63.7617021964053
314.694029963074;63.7226289607245
314.715635799553;63.7083508134387
314.737241636032;63.7241681770006
314.758847472511;63.7670176904545
314.78045330899;63.8437604334092
314.802059145469;63.9517595394412
314.823664981948;64.0794716020911
314.845270818427;64.2235225073877
314.866876654905;64.3882020359453
314.888482491384;64.5725074722272
314.910088327863;64.7689373374295
314.931694164342;64.9664207403163
314.953300000821;65.1567277243514
314.9749058373;65.3352695671443
314.996511673779;65.4968947127496
315.018117510258;65.6312718752994
315.039723346737;65.7315641342313
315.061329183215;65.797487012997
315.082935019694;65.8330140877362
315.104540856173;65.8382537704422
315.126146692652;65.8154848788528
315.147752529131;65.7833056278955
315.16935836561;65.7503437181497
315.190964202089;65.7175831711677
315.212570038568;65.6873827702087
315.234175875047;65.6649086475409
315.255781711526;65.6559166173942
315.277387548004;65.6637924505447
315.298993384483;65.6859112552471
315.320599220962;65.7141431348154
315.342205057441;65.7389052332781
315.36381089392;65.7575986585692
315.385416730399;65.7702598105485
315.407022566878;65.7753901884089
315.428628403357;65.7724915338817
315.450234239836;65.760214208159
315.471840076315;65.7380696524149
315.493445912793;65.7006877948225
315.515051749272;65.6473692893803
315.536657585751;65.573594108355
315.55826342223;65.4794060289769
315.579869258709;65.3814365324086
315.601475095188;65.2904984379383
315.623080931667;65.1996341221671
315.644686768146;65.1075824102973
315.666292604625;65.0070617977707
315.687898441103;64.8994125503845
315.709504277582;64.7956881569346
315.731110114061;64.6915517115948
315.75271595054;64.5797768241025
315.774321787019;64.4562322657445
315.795927623498;64.3244538739812
315.817533459977;64.1875085452779
315.839139296456;64.0451159920207
315.860745132935;63.8996745207981
315.882350969414;63.7532426039928
315.903956805892;63.6030792713814
315.925562642371;63.4540784964143
315.94716847885;63.3276810879352
315.968774315329;63.2312673520909
315.990380151808;63.1554176473908
316.011985988287;63.0888857509308
316.033591824766;63.0274608052385
316.055197661245;62.9827515188621
316.076803497724;62.9676768446504
316.098409334203;62.9718444590221
316.120015170681;62.9812760312484
316.14162100716;62.9881871709664
316.163226843639;62.9830396152661
316.184832680118;62.9580121155541
316.206438516597;62.9053888661907
316.228044353076;62.8144744518374
316.249650189555;62.6777705071477
316.271256026034;62.4973306157118
316.292861862513;62.2788518436776
316.314467698992;62.0207797641951
316.33607353547;61.7184621521462
316.357679371949;61.3799459885276
316.379285208428;61.0360512313788
316.400891044907;60.6983964767895
316.422496881386;60.3490871139858
316.444102717865;59.9604595213365
316.465708554344;59.5392420808104
316.487314390823;59.1433167296743
316.508920227302;58.8112085014027
316.53052606378;58.5366324434446
316.552131900259;58.3063998814039
316.573737736738;58.1246836829392
316.595343573217;58.0028266873315
316.616949409696;57.9422702418087
316.638555246175;57.9353541933287
316.660161082654;57.9725169564937
316.681766919133;58.0419709546596
316.703372755612;58.1338436595981
316.724978592091;58.2434748479897
316.746584428569;58.3681803852892
316.768190265048;58.5079521729288
316.789796101527;58.6659155100218
316.811401938006;58.8395466704087
316.833007774485;59.0089382155443
316.854613610964;59.1759333295744
316.876219447443;59.3574007054707
316.897825283922;59.5702713453217
316.919431120401;59.8230470171852
316.941036956879;60.1031852066052
316.962642793358;60.3771913455123
316.984248629837;60.6372934650475
317.005854466316;60.8831095172706
317.027460302795;61.0985856385845
317.049066139274;61.2650943446035
317.070671975753;61.3648806830855
317.092277812232;61.3890151095213
317.113883648711;61.3328394289432
317.13548948519;61.1916584629755
317.157095321668;60.9655920204631
317.178701158147;60.6699631317283
317.200306994626;60.3244573943275
317.221912831105;59.9364726073823
317.243518667584;59.5269891617301
317.265124504063;59.1258650976165
317.286730340542;58.7450518843434
317.308336177021;58.394149136335
317.3299420135;58.0976500128832
317.351547849979;57.842011551741
317.373153686457;57.6272871293353
317.394759522936;57.4819034075397
317.416365359415;57.4235899604952
317.437971195894;57.4338138026546
317.459577032373;57.5030135179574
317.481182868852;57.6229638094567
317.502788705331;57.7755374866053
317.52439454181;57.9415890045457
317.546000378289;58.1032043109816
317.567606214768;58.252683835138
317.589212051246;58.3901939445578
317.610817887725;58.5116947055805
317.632423724204;58.6116391233836
317.654029560683;58.6827233372472
317.675635397162;58.7273145762373
317.697241233641;58.7583600995341
317.71884707012;58.7851318641557
317.740452906599;58.8138333672898
317.762058743078;58.8508520355372
317.783664579556;58.8942758240426
317.805270416035;58.9356860158027
317.826876252514;58.9662286392974
317.848482088993;58.9733800003404
317.870087925472;58.9388817300931
317.891693761951;58.8522004010615
317.91329959843;58.7192028577198
317.934905434909;58.5480378202536
317.956511271388;58.3427390184758
317.978117107867;58.1073932872252
317.999722944345;57.8569953195424
318.021328780824;57.6079457007087
318.042934617303;57.369807193019
318.064540453782;57.1517796650791
318.086146290261;56.9687229818591
318.10775212674;56.8502611076409
318.129357963219;56.8155926691568
318.150963799698;56.8560924595602
318.172569636177;56.9637171829592
318.194175472656;57.1367765235318
318.215781309134;57.3718436666495
318.237387145613;57.6568881423856
318.258992982092;57.9775461946399
318.280598818571;58.3192054057116
318.30220465505;58.6712503772344
318.323810491529;59.0348911684639
318.345416328008;59.397953067531
318.367022164487;59.7441570321268
318.388628000966;60.0609411843043
318.410233837444;60.3299075887418
318.431839673923;60.5447871383195
318.453445510402;60.7080187618703
318.475051346881;60.8178395048749
318.49665718336;60.8739520755468
318.518263019839;60.8719939295874
318.539868856318;60.8021206529703
318.561474692797;60.6572265804968
318.583080529276;60.46716288758
318.604686365755;60.2500628504413
318.626292202233;60.0061919160827
318.647898038712;59.7262052796581
318.669503875191;59.4138690524035
318.69110971167;59.0710143656748
318.712715548149;58.6997927528836
318.734321384628;58.3230435653453
318.755927221107;57.962475301701
318.777533057586;57.6257933203438
318.799138894065;57.3037156788685
318.820744730543;56.9854826074621
318.842350567022;56.6818743740914
318.863956403501;56.4131092529432
318.88556223998;56.1726621664583
318.907168076459;55.9536199834535
318.928773912938;55.7542752017399
318.950379749417;55.5660765051306
318.971985585896;55.3811191198537
318.993591422375;55.1877722953058
319.015197258854;54.9841875725407
319.036803095332;54.7875215238808
319.058408931811;54.5908659463126
319.08001476829;54.379406243954
319.101620604769;54.1417545097707
319.123226441248;53.8765129094468
319.144832277727;53.5990408371169
319.166438114206;53.3199975175987
319.188043950685;53.0345914255459
319.209649787164;52.7424107365182
319.231255623643;52.4540129053802
319.252861460121;52.172970463508
319.2744672966;51.899035259248
319.296073133079;51.6381581066867
319.317678969558;51.4026028708702
319.339284806037;51.1942062658057
319.360890642516;51.010807571437
319.382496478995;50.8559850926797
319.404102315474;50.7274405117585
319.425708151953;50.6170210438003
319.447313988432;50.5211930388622
319.46891982491;50.436945036331
319.490525661389;50.3478596813258
319.512131497868;50.2442073208743
319.533737334347;50.1265533713267
319.555343170826;49.9930986933314
319.576949007305;49.8393176165378
319.598554843784;49.6632065433507
319.620160680263;49.4677207974177
319.641766516742;49.2633853559313
319.663372353221;49.0627233739404
319.684978189699;48.8659455433421
319.706584026178;48.6799820395883
319.728189862657;48.5230860946789
319.749795699136;48.3992114146499
319.771401535615;48.294633080129
319.793007372094;48.2066388725064
319.814613208573;48.1464101705427
319.836219045052;48.1191075068735
319.857824881531;48.1273257571258
319.879430718009;48.1693518122276
319.901036554488;48.2340693874626
319.922642390967;48.3158887382533
319.944248227446;48.418777818687
319.965854063925;48.5453996626774
319.987459900404;48.6858276885918
320.009065736883;48.8300755756502
320.030671573362;48.9753428588101
320.052277409841;49.1163125665325
320.07388324632;49.2412567725696
320.095489082798;49.3383219395216
320.117094919277;49.4044586793949
320.138700755756;49.4364654316484
320.160306592235;49.4448246103904
320.181912428714;49.4480106758333
320.203518265193;49.4447027773643
320.225124101672;49.4255829033934
320.246729938151;49.3876117586739
320.26833577463;49.3345165719204
320.289941611108;49.2710762979982
320.311547447587;49.1999494881617
320.333153284066;49.1225321780773
320.354759120545;49.0345563443621
320.376364957024;48.9251107898401
320.397970793503;48.7900544664305
320.419576629982;48.6377843893043
320.441182466461;48.4804365326559
320.46278830294;48.3257879127838
320.484394139419;48.1780520389931
320.505999975897;48.0400046687455
320.527605812376;47.9165514251434
320.549211648855;47.8168536014427
320.570817485334;47.7547777674616
320.592423321813;47.7360442978286
320.614029158292;47.75431450308
320.635634994771;47.7952300520723
320.65724083125;47.843812818997
320.678846667729;47.8885346417991
320.700452504208;47.9236139258077
320.722058340686;47.9501158457876
320.743664177165;47.9704255543862
320.765270013644;47.9877113870958
320.786875850123;48.0103390130125
320.808481686602;48.0454617659964
320.830087523081;48.0899771942487
320.85169335956;48.1530161543086
320.873299196039;48.2513324728793
320.894905032518;48.3945534380299
320.916510868996;48.5686271730401
320.938116705475;48.7632091218525
320.959722541954;48.9727361819046
320.981328378433;49.1920372369111
321.002934214912;49.4173066763287
321.024540051391;49.6437069860415
321.04614588787;49.8646557266838
321.067751724349;50.071840636424
321.089357560828;50.2570168550576
321.110963397307;50.4198958853218
321.132569233785;50.563116675285
321.154175070264;50.68991895871
321.175780906743;50.8026617597321
321.197386743222;50.9068297830836
321.218992579701;51.0104830462552
321.24059841618;51.116356729767
321.262204252659;51.2152248290069
321.283810089138;51.2966044083904
321.305415925617;51.3606038913552
321.327021762096;51.4032491370774
321.348627598574;51.4219073404358
321.370233435053;51.4147967177424
321.391839271532;51.3766997024877
321.413445108011;51.305849353827
321.43505094449;51.2091542357052
321.456656780969;51.0953570327665
321.478262617448;50.9728189112652
321.499868453927;50.8473804652408
321.521474290406;50.7296475337092
321.543080126884;50.6287231872413
321.564685963363;50.5536680741627
321.586291799842;50.5049860776253
321.607897636321;50.4818205855262
321.6295034728;50.4834173024643
321.651109309279;50.5145968121585
321.672715145758;50.5750851260678
321.694320982237;50.6511330194067
321.715926818716;50.7284509887082
321.737532655195;50.8072196051706
321.759138491673;50.8810628694332
321.780744328152;50.925728326439
321.802350164631;50.9234825753915
321.82395600111;50.8829988018689
321.845561837589;50.8194245599255
321.867167674068;50.7324468629377
321.888773510547;50.609228454162
321.910379347026;50.4489453695696
321.931985183505;50.2559552466247
321.953591019983;50.0390844193832
321.975196856462;49.8109171534389
321.996802692941;49.5728541876481
322.01840852942;49.326065751783
322.040014365899;49.0696089123185
322.061620202378;48.8023787836989
322.083226038857;48.522652650302
322.104831875336;48.2281320421077
322.126437711815;47.9158381808546
322.148043548294;47.588269680044
322.169649384772;47.2635896083357
322.191255221251;46.9531028404174
322.21286105773;46.6487220943992
322.234466894209;46.3503987261386
322.256072730688;46.0662498171065
322.277678567167;45.8039818673766
322.299284403646;45.57494546756
322.320890240125;45.3766460308052
322.342496076604;45.2017629212813
322.364101913083;45.047524716724
322.385707749561;44.9159637333175
322.40731358604;44.8134288311382
322.428919422519;44.7407089525169
322.450525258998;44.6868045043034
322.472131095477;44.6477562909863
322.493736931956;44.6197970543894
322.515342768435;44.5949503216732
322.536948604914;44.5638810401419
322.558554441393;44.5152357994473
322.580160277872;44.4398664110846
322.60176611435;44.3412670117646
322.623371950829;44.2170006816975
322.644977787308;44.0596687309777
322.666583623787;43.8797713682267
322.688189460266;43.6840284331229
322.709795296745;43.4676681454447
322.731401133224;43.2318269289476
322.753006969703;42.9824985959598
322.774612806182;42.7249991401948
322.796218642661;42.4642666738091
322.817824479139;42.2205488633847
322.839430315618;42.0209695316764
322.861036152097;41.8752166543561
322.882641988576;41.7714058659695
322.904247825055;41.6936344630838
322.925853661534;41.6430018894036
322.947459498013;41.6291346714505
322.969065334492;41.6558526197175
322.990671170971;41.7247202567702
323.012277007449;41.8356118464824
323.033882843928;41.9688856489782
323.055488680407;42.1156280192825
323.077094516886;42.282759516696
323.098700353365;42.4772646423981
323.120306189844;42.6920992552521
323.141912026323;42.9123163222902
323.163517862802;43.1230000794681
323.185123699281;43.3131484845009
323.20672953576;43.4807008233589
323.228335372238;43.6312519306966
323.249941208717;43.7533330543365
323.271547045196;43.8414879291403
323.293152881675;43.9023003521715
323.314758718154;43.9458329769502
323.336364554633;43.986836757372
323.357970391112;44.0501796706263
323.379576227591;44.1475248183106
323.40118206407;44.2541959015935
323.422787900548;44.3530261560303
323.444393737027;44.4437912899851
323.465999573506;44.5276540242904
323.487605409985;44.6010883286975
323.509211246464;44.6496782744962
323.530817082943;44.6639091728554
323.552422919422;44.6451433552967
323.574028755901;44.5876801764767
323.59563459238;44.4695914604617
323.617240428859;44.2849834589627
323.638846265337;44.0404900521103
323.660452101816;43.7463239612151
323.682057938295;43.4185655498406
323.703663774774;43.0681912362661
323.725269611253;42.7027819792165
323.746875447732;42.3333274753224
323.768481284211;41.9706942325176
323.79008712069;41.6244519199393
323.811692957169;41.3067608860561
323.833298793648;41.0412247578706
323.854904630126;40.8354660684029
323.876510466605;40.6820687881111
323.898116303084;40.5743349926122
323.919722139563;40.5149416354008
323.941327976042;40.501369198596
323.962933812521;40.5142893631825
323.984539649;40.5481906102215
324.006145485479;40.6012123016618
324.027751321958;40.6760322903117
324.049357158436;40.7668185681691
324.070962994915;40.8576391310385
324.092568831394;40.9376801026126
324.114174667873;41.0122114892853
324.135780504352;41.0874614849874
324.157386340831;41.1521268694038
324.17899217731;41.1905045881516
324.200598013789;41.194692574576
324.222203850268;41.1674354580455
324.243809686747;41.1112955502985
324.265415523225;41.0194586474236
324.287021359704;40.8764746929861
324.308627196183;40.6764494621428
324.330233032662;40.4312964633675
324.351838869141;40.1669641803403
324.37344470562;39.905440780604
324.395050542099;39.6536603708718
324.416656378578;39.4128672420706
324.438262215057;39.1951696019302
324.459868051536;39.0109754165379
324.481473888014;38.8660919721015
324.503079724493;38.7704516301193
324.524685560972;38.7381718157196
324.546291397451;38.7652297773304
324.56789723393;38.8389176835873
324.589503070409;38.9504231268302
324.611108906888;39.0951969050854
324.632714743367;39.2659920247141
324.654320579846;39.4520840100578
324.675926416325;39.6502836526718
324.697532252803;39.8592371531618
324.719138089282;40.0703055067466
324.740743925761;40.2663634542407
324.76234976224;40.4397609176668
