Name;BF_ESR_01_Natural_Z_gon_180dg_result

Recipe
Accumulations;5;Number of accumulations
RetryCount;0;Number of retries on error
AbortOnError;True;Abort on error
EnableQFactorMeasurement;False;Enable/Disable q-Factor measurement
Bfrom;313;B from
Bto;363;B to
SweepTime;60;Sweep time
Modulation;0.2;Modulation
ModulationFreq;100;Modulation
BHoldEnabled;False;B hold enabled
BHold;0;B hold
MicrowavePower;2;Microwave power
MarkerEnabled;False;
MarkerStartField;0;
MarkerEndField;0;
Mode;;
KineticGFact;0;
KineticTotalTransientTime;0;
KineticTimeResolution;0;
TempFrom;5;
TempUseSlope;False;
TempTo;5;
TempdT;1;
TempSetupTime;0;
GonFrom;0;
GonTo;180;
GonSteps;20;
XRayEnabled;False;
XRayTime;3;
XRayVoltage;40;
XRayCurrent;0.5;
UVEnabled;False;
UVIntensity;0;
UVTime;0;
UVLeadTime;0;
UVWavelength;0;
PowSweepFrom;1;
PowSweepTo;5;
PowSweepSteps;5;
AmpModSweepFrom;0;
AmpModSweepTo;1;
AmpModSweepSteps;10;
ExtTriggerEnabled;False;
ExtTrigLeadTime;0;
ExtTrigOnTime;5;

Meas
BField [mT];MW_Absorption []
313.028890838623;49.4545570518135
313.050509120127;49.3870109246573
313.072127401632;49.3755908911388
313.093745683136;49.4155733955504
313.11536396464;49.4961947233242
313.136982246145;49.6014113558811
313.158600527649;49.7138130772917
313.180218809153;49.8254084391848
313.201837090658;49.9282135889108
313.223455372162;50.0229491525525
313.245073653666;50.1214554909177
313.266691935171;50.2283301832999
313.288310216675;50.3303302535959
313.309928498179;50.427357233945
313.331546779684;50.5320578586404
313.353165061188;50.65405852464
313.374783342692;50.7968039390127
313.396401624197;50.9576424542898
313.418019905701;51.1316661970007
313.439638187205;51.3172622059588
313.46125646871;51.5210176933258
313.482874750214;51.7434257077512
313.504493031718;51.9809066626867
313.526111313223;52.2211101006821
313.547729594727;52.4438774138535
313.569347876231;52.6360878835907
313.590966157736;52.8025840520616
313.61258443924;52.9548393930185
313.634202720744;53.0750473808006
313.655821002249;53.1448303955228
313.677439283753;53.168023355787
313.699057565257;53.1567656092588
313.720675846762;53.1249148816021
313.742294128266;53.0783274894392
313.76391240977;53.0209755164925
313.785530691275;52.9666400245367
313.807148972779;52.9101303864408
313.828767254283;52.8453786800622
313.850385535788;52.7817459258323
313.872003817292;52.733542938493
313.893622098796;52.6991360063971
313.915240380301;52.6728518890915
313.936858661805;52.6499261320471
313.958476943309;52.6274937037895
313.980095224814;52.6032247214473
314.001713506318;52.5696165035863
314.023331787822;52.5230084783936
314.044950069327;52.4657899622547
314.066568350831;52.3982252170497
314.088186632335;52.3239636432517
314.10980491384;52.2456097911948
314.131423195344;52.1558791925675
314.153041476849;52.0568625191246
314.174659758353;51.9476017175923
314.196278039857;51.8302602496846
314.217896321361;51.7137653798108
314.239514602866;51.5954517994128
314.26113288437;51.4712874883986
314.282751165875;51.3439489570642
314.304369447379;51.2246811455694
314.325987728883;51.1238844155873
314.347606010387;51.0385440001697
314.369224291892;50.962847785654
314.390842573396;50.8940364258031
314.412460854901;50.829091941175
314.434079136405;50.7664066039475
314.455697417909;50.7014216470797
314.477315699414;50.6332908305902
314.498933980918;50.5743494054808
314.520552262422;50.5267078154662
314.542170543927;50.4766632293675
314.563788825431;50.4134581101133
314.585407106935;50.3511024718784
314.60702538844;50.2987878654694
314.628643669944;50.2601017570066
314.650261951448;50.2403443748573
314.671880232953;50.2425672871513
314.693498514457;50.2622954372754
314.715116795961;50.297820062792
314.736735077466;50.351249039765
314.75835335897;50.4152631020011
314.779971640474;50.4844821424556
314.801589921979;50.5445397754576
314.823208203483;50.5807588916183
314.844826484987;50.5863606345272
314.866444766492;50.5498597665711
314.888063047996;50.4709506976106
314.9096813295;50.351501966911
314.931299611005;50.1958898082716
314.952917892509;50.0242009872158
314.974536174013;49.854601468675
314.996154455518;49.6917875575772
315.017772737022;49.5407203820205
315.039391018526;49.4069321076278
315.061009300031;49.2974424529636
315.082627581535;49.223965995282
315.104245863039;49.1912321174237
315.125864144544;49.1880209314414
315.147482426048;49.204971343845
315.169100707552;49.2443219663984
315.190718989057;49.3081449628619
315.212337270561;49.3973499038266
315.233955552065;49.5043244575726
315.25557383357;49.6143620788052
315.277192115074;49.7222741723277
315.298810396578;49.8362895566372
315.320428678083;49.9663034871439
315.342046959587;50.1168813088348
315.363665241091;50.287873823844
315.385283522596;50.4713961631622
315.4069018041;50.6609151822936
315.428520085604;50.8719398889577
315.450138367109;51.1111174690872
315.471756648613;51.366571685624
315.493374930117;51.6360414558944
315.514993211622;51.9216226975253
315.536611493126;52.2108638986046
315.55822977463;52.4812391855341
315.579848056135;52.7247567139099
315.601466337639;52.9319815467045
315.623084619143;53.0886846773278
315.644702900648;53.1895397129884
315.666321182152;53.2442530429814
315.687939463656;53.2605517421887
315.709557745161;53.2314391590569
315.731176026665;53.1582598155512
315.752794308169;53.0531011139051
315.774412589674;52.9203792259898
315.796030871178;52.758267285093
315.817649152682;52.5622112583971
315.839267434187;52.32683193878
315.860885715691;52.0485368760699
315.882503997195;51.7327063176417
315.9041222787;51.3924394243447
315.925740560204;51.0256355494485
315.947358841708;50.6290946127694
315.968977123213;50.232375126383
315.990595404717;49.8542096395386
316.012213686221;49.49039696879
316.033831967726;49.1382319335318
316.05545024923;48.8036356145484
316.077068530734;48.4958188593314
316.098686812239;48.2215893412155
316.120305093743;47.9741978067764
316.141923375247;47.7412540966003
316.163541656752;47.5185762812306
316.185159938256;47.3095602753185
316.20677821976;47.1117309212297
316.228396501265;46.9178157984636
316.250014782769;46.7227875252831
316.271633064273;46.5284904813918
316.293251345778;46.3475190056848
316.314869627282;46.1857056754027
316.336487908786;46.0382591402735
316.358106190291;45.8997601952351
316.379724471795;45.769477322129
316.401342753299;45.6505329888946
316.422961034804;45.5508846876985
316.444579316308;45.4710348383449
316.466197597812;45.4042889754643
316.487815879317;45.3434772898868
316.509434160821;45.2899195465938
316.531052442325;45.2513533271331
316.55267072383;45.2307756355402
316.574289005334;45.2254254249638
316.595907286838;45.235819574145
316.617525568343;45.267094902638
316.639143849847;45.3188981609735
316.660762131351;45.384229460101
316.682380412856;45.4541548889698
316.70399869436;45.5262714013521
316.725616975864;45.5957881367056
316.747235257369;45.6432941434375
316.768853538873;45.6507574792656
316.790471820377;45.6043679951792
316.812090101882;45.5077491441408
316.833708383386;45.3573514254005
316.85532666489;45.1400625765779
316.876944946395;44.8586726994517
316.898563227899;44.5428959193763
316.920181509403;44.219745214139
316.941799790908;43.8964510425649
316.963418072412;43.5672929016679
316.985036353916;43.2469344134546
317.006654635421;42.9704297827682
317.028272916925;42.7732242472746
317.049891198429;42.6610223183396
317.071509479934;42.6178805957068
317.093127761438;42.642143949811
317.114746042942;42.7305240297096
317.136364324447;42.8456698607014
317.157982605951;42.9816462976523
317.179600887455;43.1447941363815
317.20121916896;43.3219861511154
317.222837450464;43.4845030129196
317.244455731968;43.6177051753267
317.266074013473;43.7301876552249
317.287692294977;43.8371398904722
317.309310576481;43.9471180093124
317.330928857986;44.0629283956703
317.35254713949;44.1856639002089
317.374165420994;44.3159845248928
317.395783702499;44.4363267808985
317.417401984003;44.5388948999772
317.439020265507;44.6343564865825
317.460638547012;44.7293412343718
317.482256828516;44.8247465258635
317.50387511002;44.9199740612785
317.525493391525;45.0241213745185
317.547111673029;45.1390223217975
317.568729954533;45.2589828492085
317.590348236038;45.3907407014455
317.611966517542;45.5476638579599
317.633584799046;45.7327960386261
317.655203080551;45.9294975323364
317.676821362055;46.1176058540178
317.698439643559;46.2904853116254
317.720057925064;46.4480214428618
317.741676206568;46.5886122646799
317.763294488072;46.7071869089746
317.784912769577;46.7946559748832
317.806531051081;46.8428639247626
317.828149332585;46.8494068804484
317.84976761409;46.8100717066017
317.871385895594;46.7333301096033
317.893004177098;46.6342192769098
317.914622458603;46.5196906931252
317.936240740107;46.390920106411
317.957859021611;46.249835050397
317.979477303116;46.1004731225473
318.00109558462;45.9485731769299
318.022713866124;45.7999686299234
318.044332147629;45.6515512404777
318.065950429133;45.4940770533973
318.087568710637;45.3254793459815
318.109186992142;45.1460640291269
318.130805273646;44.9498951467688
318.152423555151;44.7359462710847
318.174041836655;44.5092988538641
318.195660118159;44.2696950018028
318.217278399663;44.016942595631
318.238896681168;43.7617484224601
318.260514962672;43.5181557742903
318.282133244177;43.2855949063937
318.303751525681;43.0674989454795
318.325369807185;42.8708760772404
318.34698808869;42.697987221094
318.368606370194;42.5457672196385
318.390224651698;42.4116858733101
318.411842933203;42.2975140588217
318.433461214707;42.2047998996816
318.455079496211;42.126368147198
318.476697777716;42.0617919313817
318.49831605922;42.0252737901336
318.519934340724;42.0253675449122
318.541552622229;42.0567416804235
318.563170903733;42.1118913104496
318.584789185237;42.1917377972747
318.606407466742;42.3006246120648
318.628025748246;42.4423854689642
318.64964402975;42.6172953995062
318.671262311255;42.8217014137036
318.692880592759;43.0564503028492
318.714498874263;43.3125220217828
318.736117155768;43.564876862144
318.757735437272;43.8061044888062
318.779353718776;44.0441816495375
318.800972000281;44.2833116038138
318.822590281785;44.5172960227462
318.844208563289;44.7440095832459
318.865826844794;44.9655965377939
318.887445126298;45.1753864947754
318.909063407802;45.3634759078408
318.930681689307;45.5262461477557
318.952299970811;45.6665454443872
318.973918252315;45.7892060138738
318.99553653382;45.8963168246493
319.017154815324;45.9810907616192
319.038773096828;46.0456329142102
319.060391378333;46.1040084207296
319.082009659837;46.1727640389294
319.103627941341;46.2602816873281
319.125246222846;46.3652012647924
319.14686450435;46.4945621673285
319.168482785854;46.6612845301077
319.190101067359;46.8602589088229
319.211719348863;47.0759508101053
319.233337630367;47.3122587942319
319.254955911872;47.575598440984
319.276574193376;47.8649699006524
319.29819247488;48.1681517991251
319.319810756385;48.4574675784426
319.341429037889;48.7080419072823
319.363047319393;48.917874573525
319.384665600898;49.0938939101908
319.406283882402;49.2253454884333
319.427902163906;49.2953003979885
319.449520445411;49.2985365786868
319.471138726915;49.2346681185132
319.492757008419;49.0884200604621
319.514375289924;48.848559028979
319.535993571428;48.5163897434161
319.557611852932;48.1057453546651
319.579230134437;47.6699223592379
319.600848415941;47.2122066705918
319.622466697445;46.7117326294714
319.64408497895;46.1947128710135
319.665703260454;45.6979012166123
319.687321541958;45.2116599629816
319.708939823463;44.7198920134475
319.730558104967;44.2456471518296
319.752176386471;43.8269604533478
319.773794667976;43.4499777538233
319.79541294948;43.1086830609293
319.817031230984;42.8157785482473
319.838649512489;42.5801494670851
319.860267793993;42.3976340204165
319.881886075497;42.2559360356393
319.903504357002;42.1501592241666
319.925122638506;42.0917504297012
319.94674092001;42.0756786821141
319.968359201515;42.0896403792892
319.989977483019;42.1318728987422
320.011595764523;42.1977751706823
320.033214046028;42.2797373213278
320.054832327532;42.3691518282578
320.076450609036;42.4674423367778
320.098068890541;42.5761425116243
320.119687172045;42.6990685204858
320.141305453549;42.8350778852803
320.162923735054;42.9738233808718
320.184542016558;43.1088630024391
320.206160298062;43.2334341970362
320.227778579567;43.3499164112129
320.249396861071;43.4624898892857
320.271015142575;43.5679923615186
320.29263342408;43.6591541662928
320.314251705584;43.7332690590094
320.335869987088;43.7956599250141
320.357488268593;43.8523634834023
320.379106550097;43.9066377014266
320.400724831601;43.9592117292903
320.422343113106;44.012018537966
320.44396139461;44.0704964340367
320.465579676114;44.1410335342868
320.487197957619;44.2308872364675
320.508816239123;44.3509905361961
320.530434520627;44.4999437556318
320.552052802132;44.6698689016619
320.573671083636;44.8576389821126
320.59528936514;45.0604952803039
320.616907646645;45.2773784663894
320.638525928149;45.5092600433274
320.660144209653;45.7510054933584
320.681762491158;45.9863330469637
320.703380772662;46.1990387871058
320.724999054166;46.3812878192318
320.746617335671;46.5293398639749
320.768235617175;46.6359251966624
320.789853898679;46.6947933659637
320.811472180184;46.7004913641814
320.833090461688;46.6534204283781
320.854708743192;46.5578025555064
320.876327024697;46.414947118751
320.897945306201;46.2216188911056
320.919563587705;45.9719255048996
320.94118186921;45.6719706267934
320.962800150714;45.3331571911406
320.984418432218;44.9627075969191
321.006036713723;44.5657407963079
321.027654995227;44.1485619741734
321.049273276731;43.7175763564179
321.070891558236;43.2782437696097
321.09250983974;42.8346640363967
321.114128121244;42.3892270039065
321.135746402749;41.9385783017344
321.157364684253;41.4805041550863
321.178982965757;41.014356352339
321.200601247262;40.5464350347024
321.222219528766;40.1072577072031
321.24383781027;39.7210201687098
321.265456091775;39.380302219478
321.287074373279;39.0699553219169
321.308692654783;38.7876626417575
321.330310936288;38.5463866032397
321.351929217792;38.3542936739526
321.373547499296;38.2046577950418
321.395165780801;38.0909826111521
321.416784062305;38.0053802953238
321.438402343809;37.940980008526
321.460020625314;37.8940765366829
321.481638906818;37.856734815748
321.503257188322;37.816066718888
321.524875469827;37.7627320172444
321.546493751331;37.6941403427445
321.568112032835;37.613242834256
321.58973031434;37.5266096745879
321.611348595844;37.4377576174571
321.632966877348;37.3431761889834
321.654585158853;37.2443701682934
321.676203440357;37.1474832434378
321.697821721861;37.0577538568908
321.719440003366;36.9792916454384
321.74105828487;36.914368407704
321.762676566374;36.8663257286478
321.784294847879;36.8382272589208
321.805913129383;36.8297367040844
321.827531410887;36.8435362433819
321.849149692392;36.8751600613493
321.870767973896;36.9184593494184
321.8923862554;36.9779788094442
321.914004536905;37.0552424370201
321.935622818409;37.1380143349629
321.957241099913;37.2152100385422
321.978859381418;37.2899455220948
322.000477662922;37.3739390455091
322.022095944427;37.477305258414
322.043714225931;37.5989017205073
322.065332507435;37.7356461700621
322.086950788939;37.8884834725425
322.108569070444;38.0548701925896
322.130187351948;38.2379356159196
322.151805633453;38.4497394748333
322.173423914957;38.6897569732583
322.195042196461;38.9490396451876
322.216660477965;39.206815602712
322.23827875947;39.4390345665213
322.259897040974;39.6355749614456
322.281515322479;39.7930176737624
322.303133603983;39.9117309317906
322.324751885487;39.9915784406499
322.346370166992;40.030654395291
322.367988448496;40.023653694797
322.38960673;39.9709133051278
322.411225011505;39.8712872016801
322.432843293009;39.7190774934105
322.454461574513;39.5360691025019
322.476079856018;39.3406668412602
322.497698137522;39.1250441469604
322.519316419026;38.8755412787366
322.540934700531;38.6000423195152
322.562552982035;38.31525332306
322.584171263539;38.0234242201745
322.605789545044;37.7221152625104
322.627407826548;37.414579976352
322.649026108052;37.1074355650057
322.670644389557;36.8050497294079
322.692262671061;36.5115053021675
322.713880952565;36.2351777990429
322.73549923407;35.9788388065189
322.757117515574;35.7396023222824
322.778735797078;35.5123633166685
322.800354078583;35.2955662734761
322.821972360087;35.0983173540785
322.843590641591;34.9194157030039
322.865208923096;34.7391294509131
322.8868272046;34.5474526384339
322.908445486104;34.3375145506912
322.930063767609;34.1096009087485
322.951682049113;33.8657640076422
322.973300330617;33.6126589154956
322.994918612122;33.3717102203256
323.016536893626;33.1432140483541
323.03815517513;32.9140249698778
323.059773456635;32.6804038332799
323.081391738139;32.4582884070061
323.103010019643;32.2576771782407
323.124628301148;32.0753216772209
323.146246582652;31.9123363036572
323.167864864156;31.7690611576589
323.189483145661;31.6501021556711
323.211101427165;31.5571341980437
323.232719708669;31.4842588698815
323.254337990174;31.4201963453621
323.275956271678;31.3639304923192
323.297574553182;31.3352747715298
323.319192834687;31.3396887470541
323.340811116191;31.3673754970879
323.362429397695;31.4227568168559
323.3840476792;31.5084697780095
323.405665960704;31.6194462591034
323.427284242208;31.750461783401
323.448902523713;31.9028268121499
323.470520805217;32.0779566504928
323.492139086721;32.2748483570041
323.513757368226;32.4900925874885
323.53537564973;32.7315167197581
323.556993931234;32.9985824878051
323.578612212739;33.2755828561686
323.600230494243;33.5489343747858
323.621848775747;33.8206531724569
323.643467057252;34.0913747789481
323.665085338756;34.346891872829
323.68670362026;34.5671667815011
323.708321901765;34.7436895925081
323.729940183269;34.8787485242883
323.751558464773;34.9742671171594
323.773176746278;35.0096066626114
323.794795027782;34.9846865307087
323.816413309286;34.9051417261436
323.838031590791;34.7701118422553
323.859649872295;34.5923030836984
323.881268153799;34.3795354596729
323.902886435304;34.1277851944983
323.924504716808;33.8589677744375
323.946122998312;33.615566899854
323.967741279817;33.4059612049994
323.989359561321;33.2238383172453
324.010977842825;33.0652736568816
324.03259612433;32.936413876038
324.054214405834;32.8580700131037
324.075832687338;32.8352132165963
324.097450968843;32.8594440722723
324.119069250347;32.9220405787614
324.140687531851;33.0233365354879
324.162305813356;33.1543032878865
324.18392409486;33.303423348197
324.205542376364;33.4626521174342
324.227160657869;33.6270221475439
324.248778939373;33.7867803788002
324.270397220877;33.9275470255937
324.292015502382;34.0408273406063
324.313633783886;34.1249770671293
324.33525206539;34.1738826929042
324.356870346895;34.1796360313461
324.378488628399;34.1407353562438
324.400106909903;34.058076873644
324.421725191408;33.9334930270216
324.443343472912;33.7751333945117
324.464961754416;33.5922943596901
324.486580035921;33.3891143245401
324.508198317425;33.1764350087657
324.529816598929;32.9702455610323
324.551434880434;32.7783525445607
324.573053161938;32.5922978255896
324.594671443442;32.407192903094
324.616289724947;32.2258290712742
324.637908006451;32.0519630531567
324.659526287955;31.8841299604171
324.68114456946;31.7124438006142
324.702762850964;31.5235004144052
324.724381132468;31.3067386580471
324.745999413973;31.0562488456963
324.767617695477;30.7610380336754
