Name;BF_ESR_01_1800s_Y_gon_60dg_result

Recipe
Accumulations;5;Number of accumulations
RetryCount;0;Number of retries on error
AbortOnError;True;Abort on error
EnableQFactorMeasurement;False;Enable/Disable q-Factor measurement
Bfrom;313;B from
Bto;363;B to
SweepTime;60;Sweep time
Modulation;0.2;Modulation
ModulationFreq;100;Modulation
BHoldEnabled;False;B hold enabled
BHold;0;B hold
MicrowavePower;2;Microwave power
MarkerEnabled;False;
MarkerStartField;0;
MarkerEndField;0;
Mode;;
KineticGFact;0;
KineticTotalTransientTime;0;
KineticTimeResolution;0;
TempFrom;5;
TempUseSlope;False;
TempTo;5;
TempdT;1;
TempSetupTime;0;
GonFrom;0;
GonTo;180;
GonSteps;20;
XRayEnabled;False;
XRayTime;3;
XRayVoltage;40;
XRayCurrent;0.5;
UVEnabled;False;
UVIntensity;0;
UVTime;0;
UVLeadTime;0;
UVWavelength;0;
PowSweepFrom;1;
PowSweepTo;5;
PowSweepSteps;5;
AmpModSweepFrom;0;
AmpModSweepTo;1;
AmpModSweepSteps;10;
ExtTriggerEnabled;False;
ExtTrigLeadTime;0;
ExtTrigOnTime;5;

Meas
BField [mT];MW_Absorption []
313.018224411011;61.047016661625
313.039829048853;61.0100454655785
313.061433686695;60.9306838186067
313.083038324537;60.8004112540872
313.104642962379;60.5938674968564
313.126247600221;60.3298639955097
313.147852238063;60.011744315354
313.169456875905;59.6424122289938
313.191061513747;59.231895258049
313.212666151589;58.7774744647742
313.234270789431;58.2689581902473
313.255875427272;57.7147243327469
313.277480065114;57.1356627544425
313.299084702956;56.5572532714825
313.320689340798;56.0143333051677
313.34229397864;55.5256361545121
313.363898616482;55.0826144751794
313.385503254324;54.6973682239838
313.407107892166;54.4018987157917
313.428712530008;54.1968399656562
313.45031716785;54.069690462888
313.471921805692;54.0053125087105
313.493526443534;53.9924081916685
313.515131081376;54.020801382099
313.536735719218;54.0750050075933
313.55834035706;54.1423933287912
313.579944994902;54.2102952459918
313.601549632744;54.2665030423376
313.623154270586;54.3003691409319
313.644758908428;54.3038943850282
313.66636354627;54.2729477717623
313.687968184112;54.2121226119535
313.709572821954;54.1272967344098
313.731177459796;54.0185590088437
313.752782097638;53.888570136337
313.77438673548;53.7463453006625
313.795991373322;53.6027555397124
313.817596011164;53.4594304291191
313.839200649006;53.3144788268602
313.860805286848;53.1744976950384
313.88240992469;53.0556278247361
313.904014562532;52.956659156037
313.925619200374;52.872499200162
313.947223838216;52.8019651995007
313.968828476058;52.7491275228519
313.9904331139;52.7222114254061
314.012037751742;52.7303185271579
314.033642389584;52.7667691403766
314.055247027426;52.8214200743809
314.076851665268;52.8934394780084
314.09845630311;52.9841689356793
314.120060940952;53.0898440367814
314.141665578793;53.2070336696728
314.163270216636;53.3364709062181
314.184874854477;53.4745134102427
314.206479492319;53.6071930160699
314.228084130161;53.7268126908341
314.249688768003;53.8319895743007
314.271293405845;53.921655971091
314.292898043687;53.987727244979
314.314502681529;54.0152762367781
314.336107319371;54.0126661828368
314.357711957213;53.9946893966931
314.379316595055;53.957886821944
314.400921232897;53.8820028976306
314.422525870739;53.7733870357362
314.444130508581;53.6214047848448
314.465735146423;53.4247407090085
314.487339784265;53.2210980115678
314.508944422107;53.0066990243732
314.530549059949;52.7655649276262
314.552153697791;52.4889714996009
314.573758335633;52.1882348103142
314.595362973475;51.8820920987609
314.616967611317;51.574010843052
314.638572249159;51.2571822497033
314.660176887001;50.9315281597618
314.681781524843;50.613562216565
314.703386162685;50.3180076406907
314.724990800527;50.0498061292102
314.746595438369;49.8125310811056
314.768200076211;49.6154742090752
314.789804714053;49.472497898871
314.811409351895;49.3807906890696
314.833013989737;49.3410406766034
314.854618627579;49.3460727113807
314.876223265421;49.3812893225503
314.897827903263;49.433651067985
314.919432541105;49.5011545874188
314.941037178947;49.5808154312477
314.962641816789;49.665718573255
314.984246454631;49.7476744420818
315.005851092473;49.8227820858363
315.027455730315;49.8979561942435
315.049060368157;49.9738613667692
315.070665005998;50.0503203846176
315.092269643841;50.1242324894877
315.113874281682;50.1894167757478
315.135478919524;50.241872663799
315.157083557366;50.2719525987004
315.178688195208;50.276502328214
315.20029283305;50.2698967603704
315.221897470892;50.2701647605883
315.243502108734;50.2803801272951
315.265106746576;50.3043585194161
315.286711384418;50.3340330025674
315.30831602226;50.3606769673834
315.329920660102;50.3950413985946
315.351525297944;50.4434899841968
315.373129935786;50.5029783592316
315.394734573628;50.5685915953978
315.41633921147;50.6481509582711
315.437943849312;50.741784359957
315.459548487154;50.8433825207539
315.481153124996;50.9427176212117
315.502757762838;51.0401009662629
315.52436240068;51.1388465662144
315.545967038522;51.2398954737038
315.567571676364;51.3409032240244
315.589176314206;51.4455388098127
315.610780952048;51.5526695083807
315.63238558989;51.6616940005437
315.653990227732;51.774958962121
315.675594865574;51.8941036284669
315.697199503416;52.0148118608529
315.718804141258;52.1282437869911
315.7404087791;52.2209337956654
315.762013416942;52.284442611042
315.783618054784;52.3167457294848
315.805222692626;52.3145810861689
315.826827330468;52.2753169765675
315.84843196831;52.1897750340104
315.870036606152;52.0434079634818
315.891641243994;51.845538450697
315.913245881836;51.6135404097969
315.934850519678;51.3598882158505
315.95645515752;51.0928427197404
315.978059795362;50.8164870922505
315.999664433203;50.5420209232312
316.021269071045;50.290043807033
316.042873708887;50.0767195540251
316.064478346729;49.9135663148046
316.086082984571;49.8056440726672
316.107687622413;49.7486447739671
316.129292260255;49.7422528764322
316.150896898097;49.785094103003
316.172501535939;49.8590119500299
316.194106173781;49.9525082788561
316.215710811623;50.0671870492445
316.237315449465;50.1988498888011
316.258920087307;50.3286474504192
316.280524725149;50.4448518820972
316.302129362991;50.5394196287851
316.323734000833;50.6098982710267
316.345338638675;50.6542841638542
316.366943276517;50.6737828948351
316.388547914359;50.6699508279059
316.410152552201;50.6489749896801
316.431757190043;50.6185383578337
316.453361827885;50.5827545104039
316.474966465727;50.5460192343586
316.496571103569;50.5136207666657
316.518175741411;50.4897998365071
316.539780379253;50.4747790895395
316.561385017095;50.4659555852457
316.582989654937;50.4571046078642
316.604594292779;50.4410249128715
316.626198930621;50.4156824867044
316.647803568463;50.3855882121704
316.669408206305;50.3545817079066
316.691012844147;50.3203450186946
316.712617481989;50.2768745668746
316.734222119831;50.2160398989271
316.755826757673;50.1337024486868
316.777431395515;50.0354288078085
316.799036033357;49.9260322728956
316.820640671199;49.8017812752742
316.842245309041;49.6705580521859
316.863849946883;49.5382626925006
316.885454584725;49.3929256985333
316.907059222566;49.2222425844849
316.928663860408;49.039599393339
316.95026849825;48.8641990833401
316.971873136092;48.699598956518
316.993477773934;48.5462262444532
317.015082411776;48.4061800252229
317.036687049618;48.2779397589597
317.05829168746;48.1561659573277
317.079896325302;48.0527586129647
317.101500963144;47.9781119590124
317.123105600986;47.9336596501431
317.144710238828;47.9176355620643
317.16631487667;47.9295816411795
317.187919514512;47.9708203052554
317.209524152354;48.042733716288
317.231128790196;48.1448477380317
317.252733428038;48.2804661162218
317.27433806588;48.4544932568779
317.295942703722;48.6516619336128
317.317547341564;48.8480282608018
317.339151979406;49.0469618805234
317.360756617248;49.2515207800715
317.38236125509;49.453121889404
317.403965892932;49.6355070529465
317.425570530774;49.7922434569954
317.447175168616;49.9201545779536
317.468779806458;50.0145207355515
317.4903844443;50.0768174210719
317.511989082142;50.1117090166709
317.533593719984;50.1208322497617
317.555198357826;50.1099450956895
317.576802995668;50.0879144237336
317.59840763351;50.0630427459254
317.620012271352;50.0388096792568
317.641616909194;50.0152084959761
317.663221547036;49.9882346804483
317.684826184878;49.9511964281915
317.70643082272;49.9069270523953
317.728035460562;49.861371361776
317.749640098404;49.8077671649854
317.771244736246;49.7378041852144
317.792849374088;49.6543916647005
317.81445401193;49.5669824186896
317.836058649771;49.4853475749897
317.857663287613;49.414742998504
317.879267925455;49.3494849475537
317.900872563297;49.2819568861493
317.922477201139;49.2106406916734
317.944081838981;49.1492062722518
317.965686476823;49.1116248690745
317.987291114665;49.0911655001337
318.008895752507;49.0682676877912
318.030500390349;49.0270534834553
318.052105028191;48.964662888205
318.073709666033;48.8826763614537
318.095314303875;48.7782819240711
318.116918941717;48.6456164333528
318.138523579559;48.483452241126
318.160128217401;48.3005532962956
318.181732855243;48.0968153801646
318.203337493085;47.8696833924538
318.224942130927;47.6330953542829
318.246546768769;47.4049782467725
318.268151406611;47.184324190538
318.289756044453;46.9625019194985
318.311360682295;46.7490352416779
318.332965320137;46.5562448539462
318.354569957979;46.3891604878208
318.376174595821;46.2541181338905
318.397779233663;46.148275004161
318.419383871505;46.0715140457917
318.440988509347;46.0322743336741
318.462593147189;46.0404968797613
318.484197785031;46.0984598879921
318.505802422873;46.1910057754277
318.527407060715;46.3210002057186
318.549011698557;46.4999930754857
318.570616336399;46.7316793402025
318.592220974241;46.9996308682363
318.613825612083;47.2956808378818
318.635430249925;47.6037984508559
318.657034887767;47.8967855043566
318.678639525609;48.1624079425135
318.700244163451;48.3968916228952
318.721848801292;48.5737784980734
318.743453439135;48.6807268165136
318.765058076976;48.73027279658
318.786662714818;48.7285136354892
318.80826735266;48.6709572281721
318.829871990502;48.5516105432441
318.851476628344;48.3923423016769
318.873081266186;48.2250075674094
318.894685904028;48.0605986572541
318.91629054187;47.8930170003566
318.937895179712;47.7236942625506
318.959499817554;47.5652252748577
318.981104455396;47.4229547641746
319.002709093238;47.2937035041222
319.02431373108;47.1882816944096
319.045918368922;47.1056724348998
319.067523006764;47.0508966213291
319.089127644606;47.0193759176016
319.110732282448;47.0103050898936
319.13233692029;47.0305799376407
319.153941558132;47.0835884364925
319.175546195974;47.1691889725669
319.197150833816;47.286303531985
319.218755471658;47.4298727435499
319.2403601095;47.5906610397457
319.261964747342;47.7659772196973
319.283569385184;47.9572497689413
319.305174023026;48.1589306744978
319.326778660868;48.3581231170435
319.34838329871;48.5446184407662
319.369987936552;48.7203995625241
319.391592574394;48.8843705443974
319.413197212236;49.0292874941649
319.434801850078;49.1533271736044
319.45640648792;49.2530896839836
319.478011125762;49.3163555042749
319.499615763604;49.3421529182751
319.521220401446;49.34304875334
319.542825039288;49.3224517285892
319.56442967713;49.2770426213982
319.586034314972;49.2035535049176
319.607638952814;49.1048615766493
319.629243590656;48.9826804004848
319.650848228497;48.8501204988695
319.672452866339;48.7229192905177
319.694057504181;48.5991107979272
319.715662142023;48.4679077330362
319.737266779865;48.3304878900261
319.758871417707;48.1896506475297
319.780476055549;48.0474273535243
319.802080693391;47.9137244169326
319.823685331233;47.7984763823061
319.845289969075;47.6985089894902
319.866894606917;47.6108699588384
319.888499244759;47.53800101239
319.910103882601;47.4787387932243
319.931708520443;47.4263709464205
319.953313158285;47.3795339841333
319.974917796127;47.3427604318842
319.996522433969;47.3115050551874
320.018127071811;47.2721866948842
320.039731709653;47.222943919814
320.061336347495;47.1696289919744
320.082940985337;47.1081921145535
320.104545623179;47.0284793499944
320.126150261021;46.9366766379439
320.147754898863;46.8505116649126
320.169359536705;46.779727190513
320.190964174547;46.7180831183571
320.212568812389;46.6564532178915
320.234173450231;46.5924700047113
320.255778088073;46.5224662714598
320.277382725915;46.4434735776974
320.298987363757;46.3702518944884
320.320592001599;46.3168077346451
320.342196639441;46.2666245595237
320.363801277283;46.205167376271
320.385405915125;46.135505075976
320.407010552967;46.0673408816989
320.428615190809;46.0055138532217
320.450219828651;45.9537940955823
320.471824466493;45.9185546507213
320.493429104335;45.9033837590589
320.515033742177;45.9095862432378
320.536638380019;45.9370458695816
320.55824301786;45.9804104692654
320.579847655702;46.0409092656362
320.601452293544;46.1269442855017
320.623056931386;46.2419020427785
320.644661569228;46.3848516401517
320.66626620707;46.5503086197544
320.687870844912;46.727141108273
320.709475482754;46.9017145620667
320.731080120596;47.0637713369525
320.752684758438;47.2003335355314
320.77428939628;47.2988962965509
320.795894034122;47.3497116783304
320.817498671964;47.3504323225965
320.839103309806;47.3034275250299
320.860707947648;47.2065800598976
320.88231258549;47.0594081378492
320.903917223332;46.8754546328846
320.925521861174;46.6760111707737
320.947126499016;46.4722628136622
320.968731136858;46.260075507292
320.9903357747;46.0490268185554
321.011940412542;45.8747452624645
321.033545050384;45.7532859296659
321.055149688226;45.6742061954099
321.076754326068;45.6327252580088
321.09835896391;45.6265379909113
321.119963601752;45.6502342126087
321.141568239594;45.6976765396861
321.163172877436;45.7757356719855
321.184777515278;45.893984245561
321.20638215312;46.0532270102662
321.227986790962;46.23899582669
321.249591428804;46.4378764635173
321.271196066646;46.6414781436128
321.292800704488;46.8581649696073
321.31440534233;47.0843503495769
321.336009980172;47.3056245804401
321.357614618014;47.5095768076087
321.379219255856;47.6735754750171
321.400823893698;47.7860552347778
321.42242853154;47.8410489982373
321.444033169382;47.8332910913351
321.465637807224;47.7453473701535
321.487242445065;47.571438459473
321.508847082907;47.3146205776871
321.530451720749;46.9862774216971
321.552056358591;46.6040028398697
321.573660996433;46.1776986688461
321.595265634275;45.7166297233808
321.616870272117;45.2414786930824
321.638474909959;44.7794173202467
321.660079547801;44.3500156310626
321.681684185643;43.970502874178
321.703288823485;43.6541542425218
321.724893461327;43.4119163704239
321.746498099169;43.2411906442991
321.768102737011;43.1476603837221
321.789707374853;43.1393271573333
321.811312012695;43.1968322269176
321.832916650537;43.2914005085769
321.854521288379;43.403796892539
321.876125926221;43.5235215896693
321.897730564063;43.6449676830029
321.919335201905;43.7432067788181
321.940939839747;43.7831772513694
321.962544477589;43.741240248676
321.984149115431;43.6144312245303
322.005753753273;43.4002092029322
322.027358391115;43.0906687355176
322.048963028957;42.6716518670385
322.070567666799;42.1551633384926
322.092172304641;41.566775486433
322.113776942483;40.9301292133689
322.135381580325;40.2659827439027
322.156986218167;39.5854292830261
322.178590856009;38.8958877423744
322.200195493851;38.2322952473157
322.221800131693;37.6162789549576
322.243404769535;37.0567383650941
322.265009407377;36.5621069873279
322.286614045219;36.1381340013212
322.308218683061;35.8076741511699
322.329823320903;35.5803809528503
322.351427958745;35.4497397709183
322.373032596586;35.4000391074758
322.394637234428;35.4287752287905
322.41624187227;35.5328279373639
322.437846510112;35.6977762641719
322.459451147954;35.9089874612401
322.481055785796;36.1550435707527
322.502660423638;36.4133669450109
322.52426506148;36.6585475090353
322.545869699322;36.8772070566999
322.567474337164;37.0472661609318
322.589078975006;37.1593000599296
322.610683612848;37.2247438660267
322.63228825069;37.234488274369
322.653892888532;37.1852241871528
322.675497526374;37.0803280405163
322.697102164216;36.9288598845585
322.718706802058;36.7455560427395
322.7403114399;36.5494427446469
322.761916077742;36.359007545361
322.783520715584;36.1788011351553
322.805125353426;36.0193736788845
322.826729991268;35.9127405241631
322.84833462911;35.8778067102169
322.869939266952;35.9158130508561
322.891543904794;36.026294269328
322.913148542636;36.2077764080556
322.934753180478;36.4627952447563
322.95635781832;36.7998295887887
322.977962456162;37.2123042157037
322.999567094004;37.6816126839802
323.021171731846;38.1843975175323
323.042776369688;38.6913802997118
323.06438100753;39.1750429638246
323.085985645372;39.6343819228251
323.107590283214;40.0590720074187
323.129194921056;40.4376382101996
323.150799558898;40.7570280351518
323.17240419674;41.0015243333719
323.194008834582;41.1630799829154
323.215613472424;41.2356400674444
323.237218110266;41.2162960866644
323.258822748108;41.1214848517591
323.28042738595;40.9722187057932
323.302032023791;40.7765546021612
323.323636661633;40.5349562934738
323.345241299475;40.2622665326548
323.366845937317;39.9712336372817
323.388450575159;39.6784799990873
323.410055213001;39.4075150640429
323.431659850843;39.1662548009866
323.453264488685;38.9513107041596
323.474869126527;38.7594658910726
323.496473764369;38.5933818546717
323.518078402211;38.4477435502816
323.539683040053;38.3079913218682
323.561287677895;38.1703470159689
323.582892315737;38.0419534802319
323.604496953579;37.9289277702538
323.626101591421;37.8287114516222
323.647706229263;37.7361129886627
323.669310867105;37.6429271221519
323.690915504947;37.5394586514056
323.712520142789;37.4294931382361
323.734124780631;37.3350423787237
323.755729418473;37.2687765415326
323.777334056315;37.2191440466514
323.798938694157;37.1719201064205
323.820543331999;37.1121327561786
323.842147969841;37.0475553209493
323.863752607683;36.9872078398941
323.885357245525;36.928807679616
323.906961883367;36.865931894251
323.928566521209;36.7884742842469
323.950171159051;36.6851788562706
323.971775796893;36.5556770376876
323.993380434735;36.3999794696793
324.014985072577;36.2185044414977
324.036589710419;36.0104983473558
324.058194348261;35.7688999164505
324.079798986103;35.4815688483106
324.101403623945;35.1689461463855
324.123008261787;34.8527196406924
324.144612899629;34.5336099452796
324.166217537471;34.2126563975688
324.187822175312;33.8904844063648
324.209426813154;33.5733834382703
324.231031450996;33.2688653978237
324.252636088838;33.0030132201079
324.27424072668;32.783105547191
324.295845364522;32.6176547908818
324.317450002364;32.5112657382947
324.339054640206;32.4567852740169
324.360659278048;32.4474583596846
324.38226391589;32.4866374118584
324.403868553732;32.5867348602353
324.425473191574;32.7528620792408
324.447077829416;32.9814597140533
324.468682467258;33.2527799298386
324.4902871051;33.5527085044232
324.511891742942;33.8826413087546
324.533496380784;34.2510526751025
324.555101018626;34.6580998944181
324.576705656468;35.0962848412037
324.59831029431;35.5385548172578
324.619914932152;35.9712074571429
324.641519569994;36.4053361032714
324.663124207836;36.8258507987817
324.684728845678;37.2053577071576
324.70633348352;37.5451032173481
324.727938121362;37.856359779753
324.749542759204;38.126455591279
324.771147397046;38.3387423712201
