Name;BF_ESR_01_1800s_X_gon_80dg_result

Recipe
Accumulations;5;Number of accumulations
RetryCount;0;Number of retries on error
AbortOnError;True;Abort on error
EnableQFactorMeasurement;False;Enable/Disable q-Factor measurement
Bfrom;313;B from
Bto;363;B to
SweepTime;60;Sweep time
Modulation;0.2;Modulation
ModulationFreq;100;Modulation
BHoldEnabled;False;B hold enabled
BHold;0;B hold
MicrowavePower;2;Microwave power
MarkerEnabled;False;
MarkerStartField;0;
MarkerEndField;0;
Mode;;
KineticGFact;0;
KineticTotalTransientTime;0;
KineticTimeResolution;0;
TempFrom;5;
TempUseSlope;False;
TempTo;5;
TempdT;1;
TempSetupTime;0;
GonFrom;0;
GonTo;180;
GonSteps;20;
XRayEnabled;False;
XRayTime;3;
XRayVoltage;40;
XRayCurrent;0.5;
UVEnabled;False;
UVIntensity;0;
UVTime;0;
UVLeadTime;0;
UVWavelength;0;
PowSweepFrom;1;
PowSweepTo;5;
PowSweepSteps;5;
AmpModSweepFrom;0;
AmpModSweepTo;1;
AmpModSweepSteps;10;
ExtTriggerEnabled;False;
ExtTrigLeadTime;0;
ExtTrigOnTime;5;

Meas
BField [mT];MW_Absorption []
313.017157058716;119.377578952971
313.03876833655;119.263500677998
313.060379614384;119.143465505172
313.081990892219;119.020370907235
313.103602170053;118.897255329627
313.125213447888;118.769684700993
313.146824725722;118.631503368267
313.168436003556;118.481410285996
313.190047281391;118.317215233095
313.211658559225;118.139028220077
313.233269837059;117.954333588193
313.254881114894;117.765730382922
313.276492392728;117.572020321426
313.298103670562;117.378581334455
313.319714948397;117.190222903149
313.341326226231;117.007064424266
313.362937504065;116.832315877111
313.3845487819;116.668172684954
313.406160059734;116.509830961174
313.427771337569;116.353912952086
313.449382615403;116.201558119545
313.470993893237;116.049699223677
313.492605171072;115.892280446952
313.514216448906;115.730388805147
313.53582772674;115.570284295086
313.557439004575;115.420842176893
313.579050282409;115.285415366299
313.600661560243;115.158007767339
313.622272838078;115.032134316998
313.643884115912;114.91131300964
313.665495393746;114.797704534289
313.687106671581;114.69054825673
313.708717949415;114.586006431191
313.730329227249;114.489467760206
313.751940505084;114.409612853538
313.773551782918;114.346823565092
313.795163060753;114.296178755432
313.816774338587;114.258173146377
313.838385616421;114.23845000392
313.859996894256;114.251785899651
313.88160817209;114.308466139262
313.903219449924;114.395090656531
313.924830727759;114.498076380177
313.946442005593;114.618725871953
313.968053283427;114.767349424237
313.989664561262;114.935756069813
314.011275839096;115.101951522179
314.03288711693;115.266792916899
314.054498394765;115.437226015991
314.076109672599;115.604316925818
314.097720950433;115.751879338554
314.119332228268;115.871698604564
314.140943506102;115.961671788634
314.162554783937;116.01462070535
314.184166061771;116.015450446968
314.205777339605;115.958406817216
314.22738861744;115.848122247186
314.248999895274;115.685220953983
314.270611173108;115.466912554292
314.292222450943;115.205154608218
314.313833728777;114.921476026439
314.335445006611;114.623832701665
314.357056284446;114.315778120209
314.37866756228;114.014763172956
314.400278840114;113.741478489012
314.421890117949;113.503988797487
314.443501395783;113.303153850157
314.465112673618;113.139596534343
314.486723951452;113.012626874007
314.508335229286;112.919643185337
314.529946507121;112.843854963412
314.551557784955;112.785920099827
314.573169062789;112.740236268826
314.594780340624;112.689390626178
314.616391618458;112.609509283373
314.638002896292;112.491553063216
314.659614174127;112.337290621114
314.681225451961;112.153596212394
314.702836729795;111.934387988938
314.72444800763;111.679335608653
314.746059285464;111.387107936519
314.767670563299;111.070866106306
314.789281841133;110.740737758351
314.810893118967;110.384007712271
314.832504396802;110.007806014841
314.854115674636;109.65550141935
314.87572695247;109.348336342087
314.897338230305;109.081946414593
314.918949508139;108.848157845839
314.940560785973;108.646618375201
314.962172063808;108.487478021925
314.983783341642;108.37450781564
315.005394619476;108.297354720235
315.027005897311;108.246597654946
315.048617175145;108.215844851411
315.070228452979;108.204696774258
315.091839730814;108.217246631037
315.113451008648;108.246468447202
315.135062286483;108.281768619009
315.156673564317;108.318582153688
315.178284842151;108.360046427306
315.199896119986;108.410865759845
315.22150739782;108.472935797736
315.243118675654;108.540923006701
315.264729953489;108.606354175155
315.286341231323;108.663713921784
315.307952509157;108.711613813523
315.329563786992;108.755663352651
315.351175064826;108.803053863863
315.37278634266;108.849428686746
315.394397620495;108.889124784399
315.416008898329;108.926677442819
315.437620176163;108.956338968294
315.459231453998;108.97509296352
315.480842731832;108.989968724327
315.502454009667;109.000023900421
315.524065287501;109.00776273329
315.545676565335;109.016528147932
315.56728784317;109.02655450173
315.588899121004;109.032580207979
315.610510398838;109.023759075412
315.632121676673;109.001082200973
315.653732954507;108.977351068647
315.675344232341;108.952852478714
315.696955510176;108.921215197616
315.71856678801;108.880339937538
315.740178065844;108.833435161545
315.761789343679;108.790466029241
315.783400621513;108.760733400417
315.805011899348;108.756503264987
315.826623177182;108.784234754818
315.848234455016;108.843396256787
315.869845732851;108.935303649118
315.891457010685;109.064349392777
315.913068288519;109.237204700166
315.934679566354;109.453132019171
315.956290844188;109.707736079355
315.977902122022;109.989801076606
315.999513399857;110.27703067052
316.021124677691;110.55623499704
316.042735955525;110.82323794399
316.06434723336;111.077454161117
316.085958511194;111.318000760137
316.107569789028;111.545998809148
316.129181066863;111.762133531247
316.150792344697;111.960288133458
316.172403622532;112.132492843369
316.194014900366;112.278116473469
316.2156261782;112.398439414973
316.237237456035;112.49454332593
316.258848733869;112.568567825741
316.280460011703;112.623980885799
316.302071289538;112.657940882764
316.323682567372;112.666489032527
316.345293845206;112.645657830675
316.366905123041;112.593777521098
316.388516400875;112.513524447546
316.410127678709;112.406414703845
316.431738956544;112.272698255146
316.453350234378;112.101623887722
316.474961512212;111.886787620121
316.496572790047;111.640118589252
316.518184067881;111.365834107145
316.539795345716;111.05050370997
316.56140662355;110.684528288831
316.583017901384;110.281799331005
316.604629179219;109.856396930779
316.626240457053;109.412275853764
316.647851734887;108.961332641572
316.669463012722;108.521982374239
316.691074290556;108.111934651071
316.71268556839;107.736847033479
316.734296846225;107.391700623706
316.755908124059;107.075847762428
316.777519401893;106.78682586866
316.799130679728;106.521300813694
316.820741957562;106.282200375977
316.842353235397;106.072856854777
316.863964513231;105.891972529052
316.885575791065;105.738704782189
316.9071870689;105.608247462021
316.928798346734;105.491026734275
316.950409624568;105.386151698622
316.972020902403;105.297043617547
316.993632180237;105.219164393083
317.015243458071;105.14415524433
317.036854735906;105.062603287112
317.05846601374;104.96759005557
317.080077291574;104.8592577969
317.101688569409;104.740257028851
317.123299847243;104.610817992976
317.144911125078;104.469384963257
317.166522402912;104.315889217751
317.188133680746;104.14942986644
317.209744958581;103.971137146664
317.231356236415;103.785299934444
317.252967514249;103.59138387427
317.274578792084;103.388438005703
317.296190069918;103.180057851418
317.317801347752;102.972568216173
317.339412625587;102.769380138216
317.361023903421;102.564798975812
317.382635181255;102.353122500123
317.40424645909;102.147748487081
317.425857736924;101.963665463486
317.447469014758;101.803335986408
317.469080292593;101.665141346455
317.490691570427;101.548999612164
317.512302848261;101.463855821355
317.533914126096;101.409141724182
317.55552540393;101.378275223576
317.577136681765;101.364811390269
317.598747959599;101.359516425055
317.620359237433;101.360630294655
317.641970515268;101.368622417462
317.663581793102;101.370273225142
317.685193070936;101.341693161134
317.706804348771;101.290664942016
317.728415626605;101.254174196298
317.750026904439;101.233000663783
317.771638182274;101.214512248481
317.793249460108;101.194659498787
317.814860737942;101.179932923383
317.836472015777;101.182513199831
317.858083293611;101.217843620457
317.879694571446;101.288266721924
317.90130584928;101.384542423226
317.922917127114;101.496742867492
317.944528404949;101.618128194274
317.966139682783;101.7459236711
317.987750960617;101.877416868221
318.009362238452;102.009194878755
318.030973516286;102.135106189371
318.05258479412;102.248556349613
318.074196071955;102.34828775517
318.095807349789;102.433461169009
318.117418627623;102.501205295267
318.139029905458;102.548159827545
318.160641183292;102.57161791061
318.182252461127;102.57135213737
318.203863738961;102.550271248203
318.225475016795;102.512229977266
318.24708629463;102.46183877429
318.268697572464;102.402843193188
318.290308850298;102.336175027421
318.311920128133;102.261188711348
318.333531405967;102.174794094384
318.355142683801;102.06920958116
318.376753961636;101.937039290561
318.39836523947;101.783290835105
318.419976517304;101.613271590295
318.441587795139;101.435812931008
318.463199072973;101.251019107802
318.484810350807;101.052807044334
318.506421628642;100.837763819926
318.528032906476;100.609260659896
318.549644184311;100.369963817187
318.571255462145;100.11449660766
318.592866739979;99.8311281096157
318.614478017814;99.5237367112036
318.636089295648;99.20814107152
318.657700573482;98.8898542778995
318.679311851317;98.5672099304948
318.700923129151;98.2405515994743
318.722534406985;97.9081852250102
318.74414568482;97.5624797814756
318.765756962654;97.2041541928028
318.787368240488;96.836036544697
318.808979518323;96.4640083897316
318.830590796157;96.1012022781614
318.852202073991;95.7398022256051
318.873813351826;95.3715132981787
318.89542462966;94.9996121754834
318.917035907495;94.6195924355169
318.938647185329;94.2095676134973
318.960258463163;93.7459868693682
318.981869740998;93.2355966172723
319.003481018832;92.7124834097357
319.025092296666;92.1957512824279
319.046703574501;91.672341710621
319.068314852335;91.163017376609
319.089926130169;90.6808498190282
319.111537408004;90.2290089747191
319.133148685838;89.8140027416072
319.154759963672;89.4370992095758
319.176371241507;89.0955517995167
319.197982519341;88.7866788676328
319.219593797175;88.507577050854
319.24120507501;88.2687929165518
319.262816352844;88.0631867638529
319.284427630679;87.8730736569374
319.306038908513;87.6808918598005
319.327650186347;87.4773426228968
319.349261464182;87.2519273968963
319.370872742016;86.9871090427426
319.39248401985;86.6737303777014
319.414095297685;86.334754565696
319.435706575519;85.9784481039785
319.457317853353;85.6015541403988
319.478929131188;85.2059706602537
319.500540409022;84.7964283660061
319.522151686856;84.3712911561542
319.543762964691;83.9408486266206
319.565374242525;83.5305006593036
319.58698552036;83.1380254829084
319.608596798194;82.7587666649062
319.630208076028;82.4122180798098
319.651819353863;82.1205130156692
319.673430631697;81.8632405307707
319.695041909531;81.6230668154978
319.716653187366;81.3982915900367
319.7382644652;81.1944272424911
319.759875743034;81.0138464512782
319.781487020869;80.8433027883595
319.803098298703;80.6672462110098
319.824709576537;80.4876154202223
319.846320854372;80.3234849544692
319.867932132206;80.1722819105463
319.88954341004;80.0305266247118
319.911154687875;79.9156016909846
319.932765965709;79.8418089861013
319.954377243544;79.8064246316387
319.975988521378;79.8134500856099
319.997599799212;79.866461202486
320.019211077047;79.965722764124
320.040822354881;80.1163258317896
320.062433632715;80.3276004065561
320.08404491055;80.5998448114574
320.105656188384;80.923520432341
320.127267466218;81.2944744021175
320.148878744053;81.7046770272262
320.170490021887;82.1291449716778
320.192101299721;82.5521237965351
320.213712577556;82.9870733459818
320.23532385539;83.4225302469036
320.256935133224;83.8382822542055
320.278546411059;84.2222823381246
320.300157688893;84.5593032508518
320.321768966728;84.830535316278
320.343380244562;85.025118083757
320.364991522396;85.1429978780534
320.386602800231;85.1799590421976
320.408214078065;85.1253645384511
320.429825355899;84.9736818037134
320.451436633734;84.7219235461955
320.473047911568;84.3687668647161
320.494659189402;83.9219187356928
320.516270467237;83.3913392216696
320.537881745071;82.7752560443067
320.559493022905;82.0897661843368
320.58110430074;81.3671969243974
320.602715578574;80.6324822367237
320.624326856409;79.890603230739
320.645938134243;79.1337145408608
320.667549412077;78.3663580710211
320.689160689912;77.6201283393348
320.710771967746;76.9390494408879
320.73238324558;76.3358422870388
320.753994523415;75.8054554100514
320.775605801249;75.3545529801759
320.797217079083;74.9879844432727
320.818828356918;74.6973559352563
320.840439634752;74.4684593948973
320.862050912586;74.288938556797
320.883662190421;74.1518423062691
320.905273468255;74.04862479873
320.92688474609;73.9685254353037
320.948496023924;73.895901198108
320.970107301758;73.8044493557617
320.991718579593;73.669386469442
321.013329857427;73.4722429172998
321.034941135261;73.1977866004899
321.056552413096;72.8456481358024
321.07816369093;72.4214157984603
321.099774968764;71.9169246840107
321.121386246599;71.3250531270833
321.142997524433;70.6630144369801
321.164608802267;69.9690335748694
321.186220080102;69.2750809222304
321.207831357936;68.5985372893267
321.22944263577;67.963681196118
321.251053913605;67.4069738883994
321.272665191439;66.9475452608319
321.294276469274;66.5868548925246
321.315887747108;66.3339770658478
321.337499024942;66.2015124237201
321.359110302777;66.1885102676382
321.380721580611;66.2775251260506
321.402332858445;66.4473602891489
321.42394413628;66.6841946524887
321.445555414114;66.9812927065753
321.467166691948;67.3229769538238
321.488777969783;67.6726886382606
321.510389247617;68.013368331921
321.532000525451;68.347155964914
321.553611803286;68.6764277352468
321.57522308112;68.9953362060006
321.596834358954;69.2847008416726
321.618445636789;69.5309773510982
321.640056914623;69.7292924574278
321.661668192458;69.8786485765306
321.683279470292;69.9762403511527
321.704890748126;70.0212867122203
321.726502025961;70.01119621323
321.748113303795;69.9443917113373
321.769724581629;69.8290898417162
321.791335859464;69.6789369452875
321.812947137298;69.4993590447892
321.834558415132;69.2928582289251
321.856169692967;69.0590078311253
321.877780970801;68.8060700459038
321.899392248635;68.5525719891133
321.92100352647;68.3035108802819
321.942614804304;68.065006843404
321.964226082139;67.8475074524064
321.985837359973;67.63980666031
322.007448637807;67.4250166199756
322.029059915642;67.1931080821997
322.050671193476;66.9538871175882
322.07228247131;66.7151029880136
322.093893749145;66.4773985264547
322.115505026979;66.2448563154353
322.137116304813;66.0195582413166
322.158727582648;65.789397777978
322.180338860482;65.5539688476124
322.201950138316;65.3316151895466
322.223561416151;65.1235900770172
322.245172693985;64.9246473352407
322.266783971819;64.7232220540472
322.288395249654;64.5113783141374
322.310006527488;64.2913774679564
322.331617805323;64.0676522323903
322.353229083157;63.842058893134
322.374840360991;63.6171125769564
322.396451638826;63.390925945065
322.41806291666;63.1665521251631
322.439674194494;62.9444446833519
322.461285472329;62.7149660463922
322.482896750163;62.4747627764585
322.504508027997;62.2222753325458
322.526119305832;61.9524330567267
322.547730583666;61.6617223319334
322.5693418615;61.3546791833759
322.590953139335;61.0289492998684
322.612564417169;60.690484779037
322.634175695003;60.3602561314742
322.655786972838;60.0534036909388
322.677398250672;59.7700967217281
322.699009528507;59.5084819700832
322.720620806341;59.271436577899
322.742232084175;59.0714009562639
322.76384336201;58.9167661772714
322.785454639844;58.8013271143867
322.807065917678;58.7211414288107
322.828677195513;58.6773709659499
322.850288473347;58.6664944520553
322.871899751181;58.6830272817488
322.893511029016;58.7170764215508
322.91512230685;58.759982296456
322.936733584684;58.8062122383371
322.958344862519;58.8536211430056
322.979956140353;58.9013337104796
323.001567418188;58.9509061318973
323.023178696022;58.9991711495013
323.044789973856;59.0411011013962
323.066401251691;59.0699087680025
323.088012529525;59.0744808135804
323.109623807359;59.05785851355
323.131235085194;59.0271645818896
323.152846363028;58.9830346524443
323.174457640862;58.9179766699672
323.196068918697;58.822958866921
323.217680196531;58.6942043078877
323.239291474365;58.5271468201622
323.2609027522;58.3244492970283
323.282514030034;58.0996450123049
323.304125307869;57.8650771611965
323.325736585703;57.6344949441831
323.347347863537;57.40762869638
323.368959141372;57.179014127068
323.390570419206;56.9644884582399
323.41218169704;56.7834465698303
323.433792974875;56.6438231260758
323.455404252709;56.553893407287
323.477015530543;56.5184479545679
323.498626808378;56.5244236283283
323.520238086212;56.5483023382572
323.541849364046;56.58561688183
323.563460641881;56.6468983883304
323.585071919715;56.7402012905785
323.606683197549;56.8587180708192
323.628294475384;56.9973655571201
323.649905753218;57.1439148192493
323.671517031053;57.2905745966427
323.693128308887;57.4379744037432
323.714739586721;57.5868431176087
323.736350864556;57.7324246400996
323.75796214239;57.8772035512143
323.779573420224;58.0264892541058
323.801184698059;58.1782997048678
323.822795975893;58.3175817110561
323.844407253727;58.4450426985394
323.866018531562;58.5671472819576
323.887629809396;58.6875771584036
323.90924108723;58.7900305751053
323.930852365065;58.8576747028333
323.952463642899;58.8876239918254
323.974074920733;58.8759520494821
323.995686198568;58.8263682974876
324.017297476402;58.7378733050061
324.038908754237;58.6193970568245
324.060520032071;58.4749796827561
324.082131309905;58.3077686263062
324.10374258774;58.1261088665106
324.125353865574;57.935376493034
324.146965143408;57.7354612156653
324.168576421243;57.5203350151812
324.190187699077;57.2910114758001
324.211798976911;57.0789111754576
324.233410254746;56.9032387937665
324.25502153258;56.7551300031698
324.276632810414;56.627954400212
324.298244088249;56.5194810962002
324.319855366083;56.4190146865446
324.341466643918;56.3140364892247
324.363077921752;56.200619463375
324.384689199586;56.0767231833278
324.406300477421;55.9307520094315
324.427911755255;55.7469391301372
324.449523033089;55.5183162397634
324.471134310924;55.2435417936753
324.492745588758;54.9240293273481
324.514356866592;54.5725978543912
324.535968144427;54.2005059582232
324.557579422261;53.8056077261248
324.579190700095;53.3941919976312
324.60080197793;52.9770684950257
324.622413255764;52.5587217774107
324.644024533598;52.1478537063239
324.665635811433;51.753871221373
324.687247089267;51.3729088727352
324.708858367102;51.0015151285331
324.730469644936;50.6573927939008
324.75208092277;50.349342847487
324.773692200605;50.0610714647518
