Name;BF_ESR_01_7202s_y_gon_120dg_result

Recipe
Accumulations;5;Number of accumulations
RetryCount;0;Number of retries on error
AbortOnError;True;Abort on error
EnableQFactorMeasurement;False;Enable/Disable q-Factor measurement
Bfrom;313;B from
Bto;363;B to
SweepTime;60;Sweep time
Modulation;0.2;Modulation
ModulationFreq;100;Modulation
BHoldEnabled;False;B hold enabled
BHold;0;B hold
MicrowavePower;2;Microwave power
MarkerEnabled;False;
MarkerStartField;0;
MarkerEndField;0;
Mode;;
KineticGFact;0;
KineticTotalTransientTime;0;
KineticTimeResolution;0;
TempFrom;5;
TempUseSlope;False;
TempTo;5;
TempdT;1;
TempSetupTime;0;
GonFrom;0;
GonTo;180;
GonSteps;20;
XRayEnabled;False;
XRayTime;3;
XRayVoltage;40;
XRayCurrent;0.5;
UVEnabled;False;
UVIntensity;0;
UVTime;0;
UVLeadTime;0;
UVWavelength;0;
PowSweepFrom;1;
PowSweepTo;5;
PowSweepSteps;5;
AmpModSweepFrom;0;
AmpModSweepTo;1;
AmpModSweepSteps;10;
ExtTriggerEnabled;False;
ExtTrigLeadTime;0;
ExtTrigOnTime;5;

Meas
BField [mT];MW_Absorption []
313.014080810547;77.7546388055321
313.035681686533;77.0449242237457
313.05728256252;76.2264171708312
313.078883438506;75.2921022393242
313.100484314493;74.2751599524688
313.122085190479;73.2401177173673
313.143686066465;72.2235697615857
313.165286942452;71.214373315088
313.186887818438;70.2034487071452
313.208488694425;69.2104391333293
313.230089570411;68.294432310961
313.251690446398;67.5218893591318
313.273291322384;66.9054097713819
313.29489219837;66.4416097415444
313.316493074357;66.1331228843622
313.338093950343;65.9838914562425
313.35969482633;65.9939415824171
313.381295702316;66.1507443455701
313.402896578303;66.436816683073
313.424497454289;66.8280892167332
313.446098330275;67.2908367031
313.467699206262;67.7969586275752
313.489300082248;68.3139349289287
313.510900958235;68.8230392288525
313.532501834221;69.3169567497819
313.554102710208;69.7712527774807
313.575703586194;70.1336562140291
313.59730446218;70.3771214559853
313.618905338167;70.4910937776464
313.640506214153;70.4917309532611
313.66210709014;70.3830216853472
313.683707966126;70.1777738388986
313.705308842113;69.8771532789048
313.726909718099;69.4750366146043
313.748510594086;69.0093640351026
313.770111470072;68.5044277256413
313.791712346058;67.9832161087424
313.813313222045;67.488590629426
313.834914098031;67.0374633408181
313.856514974018;66.6127344151195
313.878115850004;66.2008494748281
313.899716725991;65.8157104098215
313.921317601977;65.4750383692166
313.942918477963;65.1675219554237
313.96451935395;64.8750990794231
313.986120229936;64.5897645005589
314.007721105923;64.3016984499341
314.029321981909;63.9960254523269
314.050922857896;63.6860750709303
314.072523733882;63.3841658517824
314.094124609868;63.0877663613836
314.115725485855;62.8061114521438
314.137326361841;62.5605802051011
314.158927237828;62.3589835513687
314.180528113814;62.192598360617
314.202128989801;62.0588909338669
314.223729865787;61.9703196377674
314.245330741773;61.9284163815453
314.26693161776;61.9157681374555
314.288532493746;61.9209363332369
314.310133369733;61.9377343509264
314.331734245719;61.9504918857525
314.353335121706;61.9511772203854
314.374935997692;61.9310039610368
314.396536873678;61.8875232693758
314.418137749665;61.8156257432511
314.439738625651;61.7309542518672
314.461339501638;61.6442922524723
314.482940377624;61.5564702028083
314.504541253611;61.475886390549
314.526142129597;61.404503729561
314.547743005583;61.3457071203606
314.56934388157;61.3148414510601
314.590944757556;61.3132659779213
314.612545633543;61.3158797705291
314.634146509529;61.3264952166199
314.655747385516;61.3501678471939
314.677348261502;61.381907663722
314.698949137489;61.4174103275274
314.720550013475;61.4632779597962
314.742150889461;61.532615002881
314.763751765448;61.6355118347056
314.785352641434;61.7739984425622
314.806953517421;61.9424839180207
314.828554393407;62.1364483247273
314.850155269394;62.3521449279312
314.87175614538;62.5792227733341
314.893357021366;62.8017905535875
314.914957897353;63.0049268535103
314.936558773339;63.1809545690205
314.958159649326;63.3191789850634
314.979760525312;63.4000969299696
315.001361401299;63.4080739276746
315.022962277285;63.3520657031675
315.044563153271;63.2469893937877
315.066164029258;63.0937619938845
315.087764905244;62.8870316490022
315.109365781231;62.6278871805942
315.130966657217;62.3359923589686
315.152567533204;62.0375014437897
315.17416840919;61.7428741618644
315.195769285176;61.4512160786557
315.217370161163;61.1517184530289
315.238971037149;60.8359486725578
315.260571913136;60.5020608955425
315.282172789122;60.1501745989265
315.303773665109;59.7797692731829
315.325374541095;59.3964092885285
315.346975417081;59.0036461235224
315.368576293068;58.5995679006892
315.390177169054;58.1789930083329
315.411778045041;57.7541234197879
315.433378921027;57.3611515653475
315.454979797014;57.0138821943849
315.476580673;56.7160492166165
315.498181548986;56.4854200840438
315.519782424973;56.3274152938033
315.541383300959;56.2256772461011
315.562984176946;56.1711513114684
315.584585052932;56.1721952099565
315.606185928919;56.2261697082666
315.627786804905;56.3113060585467
315.649387680891;56.3936399732039
315.670988556878;56.4590092503409
315.692589432864;56.4991784407076
315.714190308851;56.5020473686194
315.735791184837;56.4629958101888
315.757392060824;56.3912222573534
315.77899293681;56.285244284645
315.800593812796;56.1407669997829
315.822194688783;55.9679036069425
315.843795564769;55.7807427528528
315.865396440756;55.5840972609714
315.886997316742;55.3745455025493
315.908598192729;55.1476703734329
315.930199068715;54.9001818106135
315.951799944702;54.6464419104521
315.973400820688;54.3971630279953
315.995001696674;54.1459606165002
316.016602572661;53.8814275918862
316.038203448647;53.6022176675779
316.059804324634;53.3126494307031
316.08140520062;53.0178129689768
316.103006076607;52.7263809354407
316.124606952593;52.4415704551549
316.146207828579;52.1562446244427
316.167808704566;51.8645944701262
316.189409580552;51.5692983212851
316.211010456539;51.2793925162491
316.232611332525;50.9998597428817
316.254212208512;50.7296310256542
316.275813084498;50.4684963182453
316.297413960484;50.2202606890291
316.319014836471;49.9883524306208
316.340615712457;49.7739691787799
316.362216588444;49.5828592559496
316.38381746443;49.4236980111222
316.405418340417;49.2868309171442
316.427019216403;49.164452416005
316.448620092389;49.0552507197321
316.470220968376;48.9558508046834
316.491821844362;48.8662362278983
316.513422720349;48.7889791231444
316.535023596335;48.7255297126643
316.556624472322;48.674386968582
316.578225348308;48.6368042082868
316.599826224294;48.6291608910312
316.621427100281;48.652090440069
316.643027976267;48.6914607875558
316.664628852254;48.7396082594262
316.68622972824;48.8055870235824
316.707830604227;48.8836304589814
316.729431480213;48.9668953935587
316.7510323562;49.0539560867855
316.772633232186;49.1318833366854
316.794234108172;49.1945242317717
316.815834984159;49.2531842797704
316.837435860145;49.3098614438758
316.859036736132;49.3275434688741
316.880637612118;49.2869852960969
316.902238488105;49.2123190249427
316.923839364091;49.1172949943126
316.945440240077;48.9952158144601
316.967041116064;48.8349535438227
316.98864199205;48.6402964669776
317.010242868037;48.4390892253222
317.031843744023;48.25635487167
317.05344462001;48.0948404424312
317.075045495996;47.9502795893584
317.096646371982;47.8174248897303
317.118247247969;47.7100299798989
317.139848123955;47.6374361731742
317.161448999942;47.6060812022106
317.183049875928;47.6182244335325
317.204650751915;47.6698885017859
317.226251627901;47.7443601797494
317.247852503887;47.8269896688023
317.269453379874;47.9084617976503
317.29105425586;47.9865635134066
317.312655131847;48.07096836201
317.334256007833;48.1633606186311
317.35585688382;48.260080062949
317.377457759806;48.3602734025139
317.399058635792;48.4700545014735
317.420659511779;48.596053249111
317.442260387765;48.7271912436937
317.463861263752;48.8552039795564
317.485462139738;48.9884061028545
317.507063015725;49.1251938222804
317.528663891711;49.2465269180315
317.550264767697;49.3388952188369
317.571865643684;49.4038954489404
317.59346651967;49.4498336596488
317.615067395657;49.4858790943519
317.636668271643;49.5097690099245
317.65826914763;49.5120475494919
317.679870023616;49.4823225495605
317.701470899603;49.4114649344602
317.723071775589;49.3145523286642
317.744672651575;49.1969549029866
317.766273527562;49.0580468123184
317.787874403548;48.8955843954538
317.809475279535;48.7205513581855
317.831076155521;48.5418170947542
317.852677031507;48.3607620983983
317.874277907494;48.1797628719793
317.89587878348;47.9972674129245
317.917479659467;47.8104390062474
317.939080535453;47.6201108857838
317.96068141144;47.4269863437746
317.982282287426;47.2336569321025
318.003883163413;47.0447394251104
318.025484039399;46.8575465826685
318.047084915385;46.6708879269136
318.068685791372;46.4780593548194
318.090286667358;46.2802741028412
318.111887543345;46.0953981457137
318.133488419331;45.9363118017283
318.155089295318;45.800481929774
318.176690171304;45.68249411556
318.19829104729;45.5804343786944
318.219891923277;45.4904913191472
318.241492799263;45.408160985742
318.26309367525;45.3411602574663
318.284694551236;45.3030676758052
318.306295427223;45.28523559127
318.327896303209;45.2746922228988
318.349497179195;45.2690449504021
318.371098055182;45.2772092291606
318.392698931168;45.3134756506912
318.414299807155;45.3856248743108
318.435900683141;45.4925685237866
318.457501559128;45.6333062809775
318.479102435114;45.8055489391402
318.5007033111;46.008198467303
318.522304187087;46.2340788120444
318.543905063073;46.4759498041042
318.56550593906;46.7336681801508
318.587106815046;46.9972722363421
318.608707691033;47.251775234114
318.630308567019;47.487167133681
318.651909443005;47.6993686931771
318.673510318992;47.8813841434643
318.695111194978;48.0419136632417
318.716712070965;48.1928193227631
318.738312946951;48.3204771405947
318.759913822938;48.4221183829476
318.781514698924;48.5095563203253
318.803115574911;48.5884580034905
318.824716450897;48.6576111537612
318.846317326883;48.7076198173127
318.86791820287;48.7271005416301
318.889519078856;48.7182847861981
318.911119954843;48.6900030114735
318.932720830829;48.6447554512838
318.954321706816;48.5849679073479
318.975922582802;48.5132165907659
318.997523458788;48.4294065104884
319.019124334775;48.3371271483532
319.040725210761;48.2393857686757
319.062326086748;48.135049719123
319.083926962734;48.0206870767759
319.105527838721;47.8913480565183
319.127128714707;47.7374954510794
319.148729590693;47.5514252269271
319.17033046668;47.327203018444
319.191931342666;47.067467457804
319.213532218653;46.7723372025554
319.235133094639;46.4468645154754
319.256733970626;46.088195188688
319.278334846612;45.7004093246529
319.299935722598;45.2853709107297
319.321536598585;44.8499704059589
319.343137474571;44.4137516455747
319.364738350558;43.9834805175522
319.386339226544;43.5631779209421
319.407940102531;43.1624848312302
319.429540978517;42.7864788408436
319.451141854503;42.4314908652883
319.47274273049;42.0964898134529
319.494343606476;41.7775855685071
319.515944482463;41.4800107910952
319.537545358449;41.2141990013714
319.559146234436;40.9780894335636
319.580747110422;40.7600114719939
319.602347986408;40.5471342237668
319.623948862395;40.3477329426952
319.645549738381;40.1772497195877
319.667150614368;40.0485275495519
319.688751490354;39.9587450199402
319.710352366341;39.9046271167161
319.731953242327;39.8914441949004
319.753554118314;39.9216117507592
319.7751549943;39.9946697937829
319.796755870286;40.1124286132206
319.818356746273;40.2754833252941
319.839957622259;40.4706184685092
319.861558498246;40.6899621778697
319.883159374232;40.9320398441166
319.904760250218;41.1860356264701
319.926361126205;41.4294525950043
319.947962002191;41.643570684145
319.969562878178;41.8156731327027
319.991163754164;41.9345543306408
320.012764630151;41.991217715697
320.034365506137;41.9834024456986
320.055966382124;41.9256521885202
320.07756725811;41.8288044745772
320.099168134096;41.6945310598291
320.120769010083;41.5196361918554
320.142369886069;41.3111362717754
320.163970762056;41.0974116015188
320.185571638042;40.8968101960808
320.207172514029;40.7081934796502
320.228773390015;40.5333093597728
320.250374266001;40.3891936061869
320.271975141988;40.2932517380795
320.293576017974;40.2421579135
320.315176893961;40.2263511394108
320.336777769947;40.235413520769
320.358378645934;40.2564742902067
320.37997952192;40.2798652534713
320.401580397906;40.2933548560543
320.423181273893;40.2844974388241
320.444782149879;40.2466517875303
320.466383025866;40.1837155867048
320.487983901852;40.1036174465407
320.509584777839;40.0066706945676
320.531185653825;39.8916995488264
320.552786529811;39.7708433034396
320.574387405798;39.6579039983576
320.595988281784;39.5477156767418
320.617589157771;39.4304227397728
320.639190033757;39.3096796926927
320.660790909744;39.206618690929
320.68239178573;39.1361633694879
320.703992661716;39.0915291306162
320.725593537703;39.0624755119848
320.747194413689;39.0551452083585
320.768795289676;39.078267015753
320.790396165662;39.1284642030043
320.811997041649;39.1994425375434
320.833597917635;39.2914934358278
320.855198793621;39.4053746369251
320.876799669608;39.5424455073761
320.898400545594;39.7049604819684
320.920001421581;39.890666923749
320.941602297567;40.0967024752995
320.963203173554;40.31746617076
320.98480404954;40.55255438398
321.006404925527;40.8047483207011
321.028005801513;41.0770869010387
321.049606677499;41.3732024448085
321.071207553486;41.6843678680186
321.092808429472;41.99773165565
321.114409305459;42.3088942790707
321.136010181445;42.6116629793973
321.157611057432;42.8963675034805
321.179211933418;43.1670782785391
321.200812809404;43.4270408743102
321.222413685391;43.6598057609046
321.244014561377;43.8462688821446
321.265615437364;43.9850408395412
321.28721631335;44.0875438589974
321.308817189337;44.1617268828437
321.330418065323;44.2070179455704
321.352018941309;44.2251003503516
321.373619817296;44.2163038598956
321.395220693282;44.1784481065624
321.416821569269;44.1074395140896
321.438422445255;43.9972469810254
321.460023321242;43.8474091416016
321.481624197228;43.6664324540376
321.503225073214;43.4666099338924
321.524825949201;43.2528634576757
321.546426825187;43.0208471128067
321.568027701174;42.767924143274
321.58962857716;42.5027644438964
321.611229453147;42.2490431861056
321.632830329133;42.0224466611443
321.654431205119;41.821935468796
321.676032081106;41.6430177094382
321.697632957092;41.4862120730038
321.719233833079;41.3556844670077
321.740834709065;41.2554291299875
321.762435585052;41.1797770596742
321.784036461038;41.1247169231075
321.805637337025;41.0882797752621
321.827238213011;41.0713559864483
321.848839088997;41.0716275258087
321.870439964984;41.0891436348953
321.89204084097;41.1242612731436
321.913641716957;41.1707341149618
321.935242592943;41.2173489124144
321.956843468929;41.2582723034503
321.978444344916;41.2917694345578
322.000045220902;41.3041415630987
322.021646096889;41.2778272830031
322.043246972875;41.202303852122
322.064847848862;41.0620810707051
322.086448724848;40.8449323268848
322.108049600835;40.5448309304561
322.129650476821;40.1640715129135
322.151251352807;39.7000804663964
322.172852228794;39.167291218959
322.19445310478;38.5752059796432
322.216053980767;37.9375899571657
322.237654856753;37.2972285694249
322.25925573274;36.6873359720326
322.280856608726;36.1221133673241
322.302457484712;35.6049562254734
322.324058360699;35.1620255091444
322.345659236685;34.8356868009951
322.367260112672;34.6365119936836
322.388860988658;34.5407739404997
322.410461864645;34.5370880577925
322.432062740631;34.6213907900441
322.453663616617;34.7870064744414
322.475264492604;35.0170773593685
322.49686536859;35.2842600612315
322.518466244577;35.5765404440685
322.540067120563;35.8744403486388
322.56166799655;36.1690122683165
322.583268872536;36.4532101613087
322.604869748522;36.7039515296251
322.626470624509;36.9018865265236
322.648071500495;37.0370229605326
322.669672376482;37.1093520420365
322.691273252468;37.1206434011128
322.712874128455;37.0760797560519
322.734475004441;36.9849076858717
322.756075880427;36.8557102641122
322.777676756414;36.7047155653598
322.7992776324;36.5442302499949
322.820878508387;36.3845018270433
322.842479384373;36.231759243487
322.86408026036;36.091623933066
322.885681136346;35.9673952107766
322.907282012332;35.8603096233023
322.928882888319;35.7733637219743
322.950483764305;35.7097171902301
322.972084640292;35.6730788494752
322.993685516278;35.6624833796737
323.015286392265;35.672131017346
323.036887268251;35.69700682153
323.058488144238;35.7263139440518
323.080089020224;35.7505658610144
323.10168989621;35.765873631896
323.123290772197;35.7664047843776
323.144891648183;35.7447185724366
323.16649252417;35.6995198318281
323.188093400156;35.6304287121145
323.209694276143;35.536696761549
323.231295152129;35.4151049879354
323.252896028115;35.2620261966407
323.274496904102;35.0757278579937
323.296097780088;34.8673911729099
323.317698656075;34.6437124105572
323.339299532061;34.4036132908983
323.360900408048;34.1532841655862
323.382501284034;33.906672914019
323.40410216002;33.676529419476
323.425703036007;33.4728791960798
323.447303911993;33.2914315436837
323.46890478798;33.1339138804115
323.490505663966;33.0016422491716
323.512106539953;32.8923803946799
323.533707415939;32.7968464380827
323.555308291925;32.7137495679403
323.576909167912;32.6387916765425
323.598510043898;32.5679468908139
323.620110919885;32.4928455441658
323.641711795871;32.4064866861094
323.663312671858;32.3129130357986
323.684913547844;32.2262745660512
323.70651442383;32.1576825816984
323.728115299817;32.1139234019857
323.749716175803;32.0984756702925
323.77131705179;32.1170629059404
323.792917927776;32.1798662412824
323.814518803763;32.2995426829945
323.836119679749;32.4751477538861
323.857720555735;32.6927276537234
323.879321431722;32.9399935318548
323.900922307708;33.2220253015721
323.922523183695;33.5483663907821
323.944124059681;33.900278464095
323.965724935668;34.2500781217611
323.987325811654;34.5721917825853
324.008926687641;34.8421812722616
324.030527563627;35.0510207401428
324.052128439613;35.1984704213372
324.0737293156;35.2824084342357
324.095330191586;35.2943548712927
324.116931067573;35.2505220245807
324.138531943559;35.1615206426809
324.160132819546;35.0157552473882
324.181733695532;34.8097124834615
324.203334571518;34.5490722529447
324.224935447505;34.2422242961811
324.246536323491;33.9009997723208
324.268137199478;33.5367076659566
324.289738075464;33.1508427786805
324.311338951451;32.7416471289942
324.332939827437;32.3095928165769
324.354540703423;31.860548809397
324.37614157941;31.4013019040562
324.397742455396;30.9325720191965
324.419343331383;30.4550518553177
324.440944207369;29.9778409619406
324.462545083356;29.516831721212
324.484145959342;29.0817764381778
324.505746835328;28.6748235493883
324.527347711315;28.3032962687134
324.548948587301;27.9971835952137
324.570549463288;27.7654550094706
324.592150339274;27.5975687148388
324.613751215261;27.4881455364078
324.635352091247;27.4358456678204
324.656952967233;27.4341830963847
324.67855384322;27.4715044284099
324.700154719206;27.5359360939724
324.721755595193;27.6163861274687
324.743356471179;27.6997979624796
324.764957347166;27.7740547521567
