Name;BF_ESR_01_1800s_Z_gon_40dg_result

Recipe
Accumulations;5;Number of accumulations
RetryCount;0;Number of retries on error
AbortOnError;True;Abort on error
EnableQFactorMeasurement;False;Enable/Disable q-Factor measurement
Bfrom;313;B from
Bto;363;B to
SweepTime;60;Sweep time
Modulation;0.2;Modulation
ModulationFreq;100;Modulation
BHoldEnabled;False;B hold enabled
BHold;0;B hold
MicrowavePower;2;Microwave power
MarkerEnabled;False;
MarkerStartField;0;
MarkerEndField;0;
Mode;;
KineticGFact;0;
KineticTotalTransientTime;0;
KineticTimeResolution;0;
TempFrom;5;
TempUseSlope;False;
TempTo;5;
TempdT;1;
TempSetupTime;0;
GonFrom;0;
GonTo;180;
GonSteps;20;
XRayEnabled;False;
XRayTime;3;
XRayVoltage;40;
XRayCurrent;0.5;
UVEnabled;False;
UVIntensity;0;
UVTime;0;
UVLeadTime;0;
UVWavelength;0;
PowSweepFrom;1;
PowSweepTo;5;
PowSweepSteps;5;
AmpModSweepFrom;0;
AmpModSweepTo;1;
AmpModSweepSteps;10;
ExtTriggerEnabled;False;
ExtTrigLeadTime;0;
ExtTrigOnTime;5;

Meas
BField [mT];MW_Absorption []
313.00700340271;88.7019718903862
313.028613421958;88.5241493454218
313.050223441206;88.1607831598333
313.071833460455;87.7642108264381
313.093443479703;87.3452095771173
313.115053498951;86.903679680131
313.136663518199;86.4461343484627
313.158273537448;85.9711488796293
313.179883556696;85.4750355444124
313.201493575944;84.9698776409971
313.223103595192;84.4828335022174
313.244713614441;84.0472150909341
313.266323633689;83.6756877077047
313.287933652937;83.3672466898758
313.309543672185;83.1124670943765
313.331153691434;82.9054211579133
313.352763710682;82.7466329057154
313.37437372993;82.6392777804943
313.395983749178;82.5821945575635
313.417593768427;82.567211512607
313.439203787675;82.5880982031041
313.460813806923;82.6459575128321
313.482423826171;82.7358942282109
313.50403384542;82.8439763169318
313.525643864668;82.9646609243384
313.547253883916;83.1025490220474
313.568863903164;83.2514466614042
313.590473922413;83.3904059216262
313.612083941661;83.514064779067
313.633693960909;83.6237049498247
313.655303980157;83.7025075887803
313.676913999406;83.7420242489631
313.698524018654;83.7447298830995
313.720134037902;83.7120182023507
313.74174405715;83.6399149027338
313.763354076399;83.5273715586248
313.784964095647;83.3767515957771
313.806574114895;83.1917771003612
313.828184134143;82.9833499232583
313.849794153392;82.7698501952749
313.87140417264;82.5695048960101
313.893014191888;82.3878287028987
313.914624211136;82.2320083414957
313.936234230385;82.106828791834
313.957844249633;82.015857469936
313.979454268881;81.9705097225225
314.001064288129;81.9743825540889
314.022674307378;82.0182405114802
314.044284326626;82.092593906593
314.065894345874;82.197301492862
314.087504365122;82.3257097572925
314.109114384371;82.463283620395
314.130724403619;82.6106351801938
314.152334422867;82.7760201397983
314.173944442115;82.9529582008742
314.195554461364;83.1261235280244
314.217164480612;83.2831727906962
314.23877449986;83.4182100184207
314.260384519108;83.5291607529927
314.281994538357;83.6149145589724
314.303604557605;83.6768040227423
314.325214576853;83.7175670788191
314.346824596101;83.7431386310022
314.36843461535;83.7526096580351
314.390044634598;83.7482482615223
314.411654653846;83.7393205360915
314.433264673094;83.7310537441769
314.454874692343;83.7206871446409
314.476484711591;83.7013546292893
314.498094730839;83.6757601232397
314.519704750087;83.6524667277988
314.541314769336;83.6293138112963
314.562924788584;83.6052700104458
314.584534807832;83.5857249977677
314.60614482708;83.5749129441995
314.627754846329;83.5610349746785
314.649364865577;83.5260423836968
314.670974884825;83.4787627474064
314.692584904073;83.4463304058194
314.714194923322;83.4206991689823
314.73580494257;83.3782605879187
314.757414961818;83.3315782208968
314.779024981066;83.2863218475003
314.800635000315;83.2355461253932
314.822245019563;83.1837469301701
314.843855038811;83.1391018764684
314.865465058059;83.1084668505574
314.887075077308;83.1001017914227
314.908685096556;83.1161353828043
314.930295115804;83.1600599059343
314.951905135052;83.2347070734967
314.973515154301;83.3416260297961
314.995125173549;83.4737985452117
315.016735192797;83.6185490868968
315.038345212045;83.7678528756079
315.059955231294;83.9186444837239
315.081565250542;84.0615995123311
315.10317526979;84.1861414459554
315.124785289038;84.2908306549441
315.146395308287;84.3720989858757
315.168005327535;84.4211326418143
315.189615346783;84.4437605523563
315.211225366031;84.4518664303097
315.23283538528;84.4582034189758
315.254445404528;84.4586458395791
315.276055423776;84.4428747850614
315.297665443024;84.4184094503144
315.319275462273;84.398318363457
315.340885481521;84.3849779363531
315.362495500769;84.3741144061066
315.384105520017;84.3577355758922
315.405715539266;84.3269952503436
315.427325558514;84.2768028123975
315.448935577762;84.2115521995078
315.47054559701;84.1414566812352
315.492155616259;84.0562291640797
315.513765635507;83.9383483445931
315.535375654755;83.7879014202747
315.556985674003;83.6228578481789
315.578595693252;83.4537253971022
315.6002057125;83.2743837642521
315.621815731748;83.0826723040811
315.643425750996;82.8771687148935
315.665035770245;82.6515441879262
315.686645789493;82.410694419089
315.708255808741;82.1591047774723
315.729865827989;81.8944632765219
315.751475847238;81.6157239460048
315.773085866486;81.3329276338586
315.794695885734;81.0431525294137
315.816305904982;80.7411376027213
315.837915924231;80.4286959076878
315.859525943479;80.1225653650906
315.881135962727;79.8283107350347
315.902745981975;79.5297336293288
315.924356001224;79.2137692964907
315.945966020472;78.8893275865437
315.96757603972;78.5706673293412
315.989186058968;78.2720544767316
316.010796078217;77.992026810114
316.032406097465;77.7312827754664
316.054016116713;77.5010130263749
316.075626135961;77.3047715810561
316.09723615521;77.1494200250965
316.118846174458;77.0459774697253
316.140456193706;77.0026795998974
316.162066212954;77.0186565445016
316.183676232203;77.0933010129098
316.205286251451;77.2187937616336
316.226896270699;77.3871451551093
316.248506289947;77.5891053168437
316.270116309196;77.8082475638735
316.291726328444;78.0328993034326
316.313336347692;78.2641557534789
316.33494636694;78.4980038707883
316.356556386189;78.7219814210791
316.378166405437;78.9263529060236
316.399776424685;79.1117647217338
316.421386443933;79.2658593682948
316.442996463182;79.3708739201173
316.46460648243;79.4300095535674
316.486216501678;79.4503511899492
316.507826520926;79.4408670538324
316.529436540175;79.4089701153573
316.551046559423;79.3528233389096
316.572656578671;79.2652336210142
316.594266597919;79.1483081791521
316.615876617168;79.0088723084909
316.637486636416;78.8433722187898
316.659096655664;78.6439036080656
316.680706674912;78.4204428291521
316.702316694161;78.2043921563213
316.723926713409;78.0103715357186
316.745536732657;77.8350358098249
316.767146751905;77.671294589216
316.788756771154;77.513832100603
316.810366790402;77.3652735873593
316.83197680965;77.2348538899978
316.853586828898;77.1278184964221
316.875196848147;77.0469128649418
316.896806867395;76.9955316776194
316.918416886643;76.9775200012857
316.940026905891;76.9938414960126
316.96163692514;77.0406728871891
316.983246944388;77.1088907374497
317.004856963636;77.197802035728
317.026466982884;77.3103098446149
317.048077002133;77.4364243828249
317.069687021381;77.5630028244506
317.091297040629;77.6858872658522
317.112907059877;77.8028806062187
317.134517079126;77.9095507594265
317.156127098374;78.0005628426502
317.177737117622;78.0654029733595
317.19934713687;78.0934067498
317.220957156119;78.078837412591
317.242567175367;78.0249548523297
317.264177194615;77.9349543364218
317.285787213863;77.8066812956861
317.307397233112;77.6298906213666
317.32900725236;77.4065321762583
317.350617271608;77.1493005868379
317.372227290856;76.8749644701256
317.393837310105;76.5893938993861
317.415447329353;76.2991359628525
317.437057348601;76.0146388312667
317.458667367849;75.7372056513079
317.480277387098;75.4665356278536
317.501887406346;75.209207839217
317.523497425594;74.9689032937744
317.545107444842;74.7518328285376
317.566717464091;74.569811965252
317.588327483339;74.4357581790717
317.609937502587;74.3466515190471
317.631547521835;74.2893916564635
317.653157541084;74.2595920120712
317.674767560332;74.2605341058967
317.69637757958;74.2860546420858
317.717987598828;74.3268244617736
317.739597618077;74.3741002325183
317.761207637325;74.4180754594647
317.782817656573;74.4460580772223
317.804427675821;74.4489793175253
317.82603769507;74.4174624748967
317.847647714318;74.3398394047172
317.869257733566;74.2106562922963
317.890867752814;74.0328216117301
317.912477772063;73.8111025319037
317.934087791311;73.5497957561226
317.955697810559;73.2501654741666
317.977307829807;72.9085704369814
317.998917849056;72.52064063549
318.020527868304;72.0951616214111
318.042137887552;71.6653884178194
318.0637479068;71.2588739015098
318.085357926049;70.8857855603389
318.106967945297;70.5446814490935
318.128577964545;70.2349310825504
318.150187983793;69.9583934282146
318.171798003042;69.7133022841862
318.19340802229;69.4980174241699
318.215018041538;69.3163446269888
318.236628060786;69.1688632309895
318.258238080035;69.0458021216725
318.279848099283;68.9369830402031
318.301458118531;68.8404924995129
318.323068137779;68.7545730652015
318.344678157028;68.6731432819616
318.366288176276;68.5922618998098
318.387898195524;68.5114953982911
318.409508214772;68.4406634117868
318.431118234021;68.386915140127
318.452728253269;68.3498866304127
318.474338272517;68.3291038298041
318.495948291765;68.3246598829458
318.517558311014;68.3335323713432
318.539168330262;68.3489132883182
318.56077834951;68.3644027417431
318.582388368758;68.3799951685517
318.603998388007;68.3963891882495
318.625608407255;68.4076277095392
318.647218426503;68.4096276743396
318.668828445751;68.4036159802203
318.690438465;68.3903032831368
318.712048484248;68.3735768868616
318.733658503496;68.3582157755293
318.755268522744;68.3424409539454
318.776878541993;68.3245641038649
318.798488561241;68.3085336624624
318.820098580489;68.2982194048003
318.841708599737;68.2992422387097
318.863318618986;68.3194091164376
318.884928638234;68.3735720522811
318.906538657482;68.4759519162249
318.92814867673;68.6247329963129
318.949758695979;68.8109960945127
318.971368715227;69.0463232939606
318.992978734475;69.3551496422356
319.014588753723;69.7272295312773
319.036198772972;70.1307769414849
319.05780879222;70.5317381315568
319.079418811468;70.9251660909459
319.101028830716;71.3315488027433
319.122638849965;71.7473378611361
319.144248869213;72.1359213452239
319.165858888461;72.4544056524545
319.187468907709;72.6809977692804
319.209078926958;72.825597878538
319.230688946206;72.8992495122159
319.252298965454;72.8975221390744
319.273908984702;72.8129574305895
319.295519003951;72.6526679154373
319.317129023199;72.4309757045188
319.338739042447;72.1464762395239
319.360349061695;71.7877218695902
319.381959080944;71.3755731623258
319.403569100192;70.9570573432736
319.42517911944;70.5426666057547
319.446789138688;70.120023714903
319.468399157937;69.6912823608872
319.490009177185;69.2805850970645
319.511619196433;68.8974626197145
319.533229215681;68.5206541936926
319.55483923493;68.1670718300297
319.576449254178;67.8592209787902
319.598059273426;67.6040933029465
319.619669292674;67.3848936688939
319.641279311923;67.1880728839727
319.662889331171;67.0164569722876
319.684499350419;66.8644283784611
319.706109369667;66.7176395333081
319.727719388916;66.5733185263449
319.749329408164;66.4340035489521
319.770939427412;66.2989258124327
319.79254944666;66.165227680905
319.814159465909;66.0388889387074
319.835769485157;65.9364463634527
319.857379504405;65.8584390598805
319.878989523653;65.794259234026
319.900599542902;65.7434184645753
319.92220956215;65.7153199990447
319.943819581398;65.7075155214832
319.965429600646;65.701499827895
319.987039619895;65.6811081675358
320.008649639143;65.6484622537623
320.030259658391;65.6149886081881
320.051869677639;65.5688368375814
320.073479696888;65.4898555377403
320.095089716136;65.3908606817104
320.116699735384;65.3006795432921
320.138309754632;65.2379393075537
320.159919773881;65.2026173993994
320.181529793129;65.1958724655633
320.203139812377;65.2166823098577
320.224749831625;65.2748988542131
320.246359850874;65.3881752597963
320.267969870122;65.5636056454901
320.28957988937;65.8016437496053
320.311189908618;66.0842974687053
320.332799927867;66.3885730916406
320.354409947115;66.710956187437
320.376019966363;67.0549479356357
320.397629985611;67.4042056108391
320.41924000486;67.737392482131
320.440850024108;68.0543958820798
320.462460043356;68.3431899896769
320.484070062604;68.5823434028364
320.505680081853;68.7617808574998
320.527290101101;68.8786644133023
320.548900120349;68.926888228649
320.570510139597;68.8967512675999
320.592120158846;68.7844520311135
320.613730178094;68.5894859806868
320.635340197342;68.3115763823748
320.65695021659;67.9588221772157
320.678560235839;67.5513924488713
320.700170255087;67.0997415510482
320.721780274335;66.6145632803962
320.743390293583;66.1177476405408
320.765000312832;65.6329328070135
320.78661033208;65.1795850644384
320.808220351328;64.7808555556153
320.829830370576;64.4528877125857
320.851440389825;64.188893084212
320.873050409073;63.9682782657612
320.894660428321;63.787737627759
320.916270447569;63.6582436924681
320.937880466818;63.5840641160492
320.959490486066;63.5453077832355
320.981100505314;63.5252459609821
321.002710524562;63.5210567126354
321.024320543811;63.5341033476782
321.045930563059;63.5425993736764
321.067540582307;63.5108901088754
321.089150601555;63.4335308980921
321.110760620804;63.3186643402813
321.132370640052;63.1705706460311
321.1539806593;62.990002004432
321.175590678548;62.7734746895831
321.197200697797;62.5136659370992
321.218810717045;62.2055835193039
321.240420736293;61.867938604767
321.262030755541;61.5201939723344
321.28364077479;61.1623041466198
321.305250794038;60.7926049747263
321.326860813286;60.4171636461062
321.348470832534;60.0414639006907
321.370080851783;59.6808423142967
321.391690871031;59.3479580938316
321.413300890279;59.043040013702
321.434910909527;58.7675673623172
321.456520928776;58.5296536626029
321.478130948024;58.3430899995443
321.499740967272;58.2124054429584
321.52135098652;58.1317012711234
321.542961005769;58.0953344646702
321.564571025017;58.104383429086
321.586181044265;58.1643001580869
321.607791063513;58.2679077667968
321.629401082762;58.3820780402201
321.65101110201;58.4869034084096
321.672621121258;58.5955527972127
321.694231140506;58.7046856923996
321.715841159755;58.7979330894644
321.737451179003;58.8592421539753
321.759061198251;58.8798968373815
321.780671217499;58.8635076424199
321.802281236748;58.820831415245
321.823891255996;58.7590259505756
321.845501275244;58.6764821709044
321.867111294492;58.5695012317269
321.888721313741;58.4450309089379
321.910331332989;58.3127944964103
321.931941352237;58.1736221202209
321.953551371485;58.027673914908
321.975161390734;57.8840129369838
321.996771409982;57.7579482766866
322.01838142923;57.6586997974317
322.039991448478;57.5851967605653
322.061601467727;57.5297367932467
322.083211486975;57.4864951321601
322.104821506223;57.4501512555444
322.126431525471;57.4187644831919
322.14804154472;57.389506240436
322.169651563968;57.3595990010179
322.191261583216;57.3178106016489
322.212871602464;57.2599364641152
322.234481621713;57.1995655414953
322.256091640961;57.1402444806256
322.277701660209;57.0788623401461
322.299311679457;57.0133932546219
322.320921698706;56.9398418110763
322.342531717954;56.8636736056838
322.364141737202;56.7859491537034
322.38575175645;56.6875233842929
322.407361775699;56.5825445865343
322.428971794947;56.4811778657266
322.450581814195;56.3809937729258
322.472191833443;56.2682367783167
322.493801852692;56.131116326004
322.51541187194;55.9701671232551
322.537021891188;55.7909260270372
322.558631910436;55.5930399205465
322.580241929685;55.3687290983681
322.601851948933;55.1129764858522
322.623461968181;54.832949729947
322.645071987429;54.5350498488765
322.666682006677;54.2181947878493
322.688292025926;53.87972594293
322.709902045174;53.5281176739909
322.731512064422;53.1746209789584
322.753122083671;52.8118403350313
322.774732102919;52.4405964340558
322.796342122167;52.0684916877236
322.817952141415;51.6948213292087
322.839562160663;51.314629523669
322.861172179912;50.9337978749489
322.88278219916;50.5665757316292
322.904392218408;50.2214660898359
322.926002237657;49.8906314387655
322.947612256905;49.5726488440412
322.969222276153;49.2709490123565
322.990832295401;48.9928802434978
323.012442314649;48.737529525415
323.034052333898;48.4940224774166
323.055662353146;48.2496464028553
323.077272372394;47.9999831048971
323.098882391643;47.7469019360327
323.120492410891;47.489666050301
323.142102430139;47.2132858864673
323.163712449387;46.9173652026025
323.185322468635;46.6231348387857
323.206932487884;46.3409063861005
323.228542507132;46.0743996797371
323.25015252638;45.8315314777627
323.271762545629;45.6180077026906
323.293372564877;45.4362449331954
323.314982584125;45.2960124194798
323.336592603373;45.209315608704
323.358202622621;45.1866088495487
323.37981264187;45.2374453225188
323.401422661118;45.3688098530431
323.423032680366;45.5784636186482
323.444642699615;45.8558680182615
323.466252718863;46.2024831034214
323.487862738111;46.6137169309194
323.509472757359;47.0717507829743
323.531082776607;47.5762089022939
323.552692795856;48.1193986349191
323.574302815104;48.6733926507764
323.595912834352;49.2099628371194
323.617522853601;49.7243085255903
323.639132872849;50.2116521554317
323.660742892097;50.6529216096846
323.682352911345;51.0254301375827
323.703962930593;51.3244715187889
323.725572949842;51.571531914256
323.74718296909;51.7643626023352
323.768792988338;51.8811967818598
323.790403007587;51.9146999538064
323.812013026835;51.8771757423604
323.833623046083;51.7858519482104
323.855233065331;51.6540415271898
323.876843084579;51.4896207923162
323.898453103828;51.2936694237013
323.920063123076;51.0676259932638
323.941673142324;50.8294037398391
323.963283161573;50.5962402884615
323.984893180821;50.375186016093
324.006503200069;50.16304246322
324.028113219317;49.9430504394441
324.049723238565;49.6959683403326
324.071333257814;49.4288616874549
324.092943277062;49.1734220651953
324.11455329631;48.9382070194757
324.136163315559;48.7110280426611
324.157773334807;48.4821526723005
324.179383354055;48.2440682762856
324.200993373303;47.9936917674829
324.222603392551;47.7275524205164
324.2442134118;47.4413387947357
324.265823431048;47.135985506264
324.287433450296;46.8176996881971
324.309043469544;46.4913961933944
324.330653488793;46.1554906597974
324.352263508041;45.8259332712304
324.373873527289;45.5146447203872
324.395483546537;45.2061713675299
324.417093565786;44.9012424248636
324.438703585034;44.6104196349876
324.460313604282;44.3467718127085
324.48192362353;44.1170324481275
324.503533642779;43.9135107524382
324.525143662027;43.7297375781824
324.546753681275;43.5637424798584
324.568363700523;43.4105396247585
324.589973719772;43.2564090418611
324.61158373902;43.0885896122382
324.633193758268;42.8948885447858
324.654803777516;42.6560886769923
324.676413796765;42.3683765650397
324.698023816013;42.0240789459947
324.719633835261;41.628880723993
324.741243854509;41.1995921354921
