Name;BF_ESR_01_3602s_Y_gon_40dg_result

Recipe
Accumulations;5;Number of accumulations
RetryCount;0;Number of retries on error
AbortOnError;True;Abort on error
EnableQFactorMeasurement;False;Enable/Disable q-Factor measurement
Bfrom;313;B from
Bto;363;B to
SweepTime;60;Sweep time
Modulation;0.2;Modulation
ModulationFreq;100;Modulation
BHoldEnabled;False;B hold enabled
BHold;0;B hold
MicrowavePower;2;Microwave power
MarkerEnabled;False;
MarkerStartField;0;
MarkerEndField;0;
Mode;;
KineticGFact;0;
KineticTotalTransientTime;0;
KineticTimeResolution;0;
TempFrom;5;
TempUseSlope;False;
TempTo;5;
TempdT;1;
TempSetupTime;0;
GonFrom;0;
GonTo;180;
GonSteps;20;
XRayEnabled;False;
XRayTime;3;
XRayVoltage;40;
XRayCurrent;0.5;
UVEnabled;False;
UVIntensity;0;
UVTime;0;
UVLeadTime;0;
UVWavelength;0;
PowSweepFrom;1;
PowSweepTo;5;
PowSweepSteps;5;
AmpModSweepFrom;0;
AmpModSweepTo;1;
AmpModSweepSteps;10;
ExtTriggerEnabled;False;
ExtTrigLeadTime;0;
ExtTrigOnTime;5;

Meas
BField [mT];MW_Absorption []
313.015880661011;66.2957494605826
313.0374882002;66.0716786979072
313.059095739389;65.7346131151624
313.080703278577;65.3093004311091
313.102310817766;64.7976987574844
313.123918356955;64.1982930141688
313.145525896144;63.5264670871019
313.167133435333;62.7847689527839
313.188740974522;62.0029517839998
313.210348513711;61.2435598183265
313.2319560529;60.5276058112941
313.253563592089;59.8430690504139
313.275171131277;59.1969715975294
313.296778670466;58.6178730963903
313.318386209655;58.1248362955845
313.339993748844;57.7293394906667
313.361601288033;57.4337356278112
313.383208827222;57.2382518082187
313.404816366411;57.133700780577
313.4264239056;57.1046677922294
313.448031444789;57.1336966063934
313.469638983978;57.2124233974964
313.491246523166;57.3319613038013
313.512854062355;57.4778668110319
313.534461601544;57.6396814789342
313.556069140733;57.8064447770498
313.577676679922;57.9663181764424
313.599284219111;58.1005048165753
313.6208917583;58.1950825368964
313.642499297489;58.2511246559784
313.664106836678;58.2748239860794
313.685714375867;58.26914542005
313.707321915055;58.238959983312
313.728929454244;58.1881613925318
313.750536993433;58.1196754147608
313.772144532622;58.0266646342392
313.793752071811;57.9059561767407
313.815359611;57.7751422338754
313.836967150189;57.650774112742
313.858574689378;57.5356221789021
313.880182228567;57.4292270379367
313.901789767756;57.330648883372
313.923397306944;57.2416037814238
313.945004846133;57.1607116924615
313.966612385322;57.0831068183086
313.988219924511;57.0045216839357
314.0098274637;56.9274373988238
314.031435002889;56.8561272950528
314.053042542078;56.7841102334506
314.074650081267;56.7026699190382
314.096257620456;56.6115797910638
314.117865159645;56.5177531773659
314.139472698833;56.4232073848522
314.161080238022;56.3285595620275
314.182687777211;56.2409618202874
314.2042953164;56.1692648999097
314.225902855589;56.113165915476
314.247510394778;56.0714378997019
314.269117933967;56.0445245749659
314.290725473156;56.0337427700797
314.312333012345;56.0349254049211
314.333940551533;56.0387120539312
314.355548090722;56.0400750485394
314.377155629911;56.0372982071982
314.3987631691;56.0317647428124
314.420370708289;56.022382295505
314.441978247478;56.0072314509203
314.463585786667;55.9904973430682
314.485193325856;55.9794775735061
314.506800865045;55.9778964216895
314.528408404234;55.9849287322061
314.550015943422;55.9990168025858
314.571623482611;56.0149437538879
314.5932310218;56.0307576051327
314.614838560989;56.0446817282667
314.636446100178;56.0515511418469
314.658053639367;56.036584802504
314.679661178556;55.9898128058123
314.701268717745;55.9139694814432
314.722876256934;55.8086267832008
314.744483796123;55.6703591435188
314.766091335311;55.5076598932643
314.7876988745;55.3503285667413
314.809306413689;55.2095821726902
314.830913952878;55.0796536732249
314.852521492067;54.9569826416955
314.874129031256;54.8508308248252
314.895736570445;54.7727510571319
314.917344109634;54.7297843943261
314.938951648823;54.7249685299187
314.960559188012;54.7505917295222
314.9821667272;54.7912021304014
315.003774266389;54.8303060891324
315.025381805578;54.8569153921786
315.046989344767;54.8709407075004
315.068596883956;54.8766786900764
315.090204423145;54.8817376969281
315.111811962334;54.8924647578362
315.133419501523;54.8872802675889
315.155027040712;54.8469699505399
315.176634579901;54.7873166462691
315.198242119089;54.7231485879719
315.219849658278;54.6497513722052
315.241457197467;54.5642768681449
315.263064736656;54.4660710080752
315.284672275845;54.3573615551979
315.306279815034;54.2418292212488
315.327887354223;54.1274149375904
315.349494893412;54.0305239048034
315.371102432601;53.9542192859965
315.392709971789;53.8914620762677
315.414317510978;53.833809241069
315.435925050167;53.7744136265541
315.457532589356;53.7225670231616
315.479140128545;53.6915459333705
315.500747667734;53.6799803576455
315.522355206923;53.6725259276485
315.543962746112;53.6624215498546
315.565570285301;53.6479918229663
315.58717782449;53.6267025913304
315.608785363678;53.5960906339604
315.630392902867;53.5560506794643
315.652000442056;53.50967913755
315.673607981245;53.459436486233
315.695215520434;53.4088780184587
315.716823059623;53.3575564032654
315.738430598812;53.3086864753015
315.760038138001;53.272677997095
315.78164567719;53.2606983834028
315.803253216379;53.2801654906224
315.824860755567;53.3207314471339
315.846468294756;53.3802635332331
315.868075833945;53.4754341265109
315.889683373134;53.6070219682756
315.911290912323;53.7607179113071
315.932898451512;53.9312931666456
315.954505990701;54.1253975160221
315.97611352989;54.3367075661267
315.997721069079;54.5501853979804
316.019328608268;54.7632869944268
316.040936147456;54.9742967981033
316.062543686645;55.1803098076293
316.084151225834;55.3790716323142
316.105758765023;55.5641638738785
316.127366304212;55.7221424859416
316.148973843401;55.8423214081264
316.17058138259;55.9242761412367
316.192188921779;55.9701921685259
316.213796460968;55.9821546212848
316.235404000157;55.963850809549
316.257011539345;55.9198659981612
316.278619078534;55.854543489121
316.300226617723;55.7719298400908
316.321834156912;55.6945444820902
316.343441696101;55.6418153006754
316.36504923529;55.6084325487903
316.386656774479;55.5891548631774
316.408264313668;55.5830466451293
316.429871852857;55.587645925437
316.451479392045;55.5981744331814
316.473086931234;55.6041475367966
316.494694470423;55.5877926299334
316.516302009612;55.5370338758671
316.537909548801;55.4484177315644
316.55951708799;55.3157284143942
316.581124627179;55.1292762387135
316.602732166368;54.8891658666694
316.624339705557;54.6115592413629
316.645947244746;54.3125315727222
316.667554783934;53.9928882313426
316.689162323123;53.6596541303902
316.710769862312;53.3526861130997
316.732377401501;53.0962584769057
316.75398494069;52.8907682033645
316.775592479879;52.7444339786268
316.797200019068;52.6823487133727
316.818807558257;52.7130795072646
316.840415097446;52.7989776714992
316.862022636635;52.9087105155447
316.883630175823;53.0390460997309
316.905237715012;53.1999311363515
316.926845254201;53.387971652496
316.94845279339;53.5868185017154
316.970060332579;53.7725549129293
316.991667871768;53.9281910223287
317.013275410957;54.0476458798546
317.034882950146;54.1245516855357
317.056490489335;54.1564701338494
317.078098028524;54.1542475575074
317.099705567712;54.1315885160288
317.121313106901;54.0956335010432
317.14292064609;54.0504838051798
317.164528185279;54.0004912916347
317.186135724468;53.9475878437366
317.207743263657;53.9062867809935
317.229350802846;53.8787260874874
317.250958342035;53.8479341638646
317.272565881224;53.8052597084813
317.294173420413;53.7545626693085
317.315780959601;53.7024488080051
317.33738849879;53.650635851929
317.358996037979;53.5945262002605
317.380603577168;53.5333175315954
317.402211116357;53.4695818607713
317.423818655546;53.407928670763
317.445426194735;53.3494952267116
317.467033733924;53.2908247588715
317.488641273113;53.2439655279622
317.510248812301;53.2127882183674
317.53185635149;53.1994655065838
317.553463890679;53.2222093682845
317.575071429868;53.2927477453776
317.596678969057;53.4114589230333
317.618286508246;53.5603914277158
317.639894047435;53.7244252775496
317.661501586624;53.8981285299919
317.683109125813;54.0789685840518
317.704716665002;54.2559444579114
317.72632420419;54.4161134020184
317.747931743379;54.5485825481551
317.769539282568;54.6409058395171
317.791146821757;54.675054935276
317.812754360946;54.6549623938227
317.834361900135;54.5969672080742
317.855969439324;54.5052405338678
317.877576978513;54.3862681789308
317.899184517702;54.2590780651794
317.920792056891;54.1343761361936
317.942399596079;54.0123693704929
317.964007135268;53.9006634069769
317.985614674457;53.8150144177067
318.007222213646;53.7610663624797
318.028829752835;53.7281832059306
318.050437292024;53.7091197959522
318.072044831213;53.7035802449013
318.093652370402;53.7091668723628
318.115259909591;53.7179579296473
318.13686744878;53.7252851334392
318.158474987968;53.7261769140881
318.180082527157;53.7101121445214
318.201690066346;53.6651540287353
318.223297605535;53.5918506017609
318.244905144724;53.4942468325074
318.266512683913;53.3710092318979
318.288120223102;53.2227081939263
318.309727762291;53.0456519210649
318.33133530148;52.8298751174538
318.352942840669;52.5790104198432
318.374550379857;52.3048949255974
318.396157919046;52.0089093538547
318.417765458235;51.6943263157488
318.439372997424;51.3717298380315
318.460980536613;51.0535446412499
318.482588075802;50.7483402304044
318.504195614991;50.4608497187065
318.52580315418;50.1924610911924
318.547410693369;49.9497857873875
318.569018232557;49.7445371166022
318.590625771746;49.5816090715254
318.612233310935;49.4568455265892
318.633840850124;49.3728417015797
318.655448389313;49.3313220411569
318.677055928502;49.3342382308131
318.698663467691;49.3778802248359
318.72027100688;49.4566372918385
318.741878546069;49.5650184084432
318.763486085258;49.6982041874936
318.785093624446;49.8389829085486
318.806701163635;49.9729885521144
318.828308702824;50.0930734872563
318.849916242013;50.1879048019926
318.871523781202;50.2466625672678
318.893131320391;50.2624643670211
318.91473885958;50.2285267493443
318.936346398769;50.1412551213805
318.957953937958;50.0076813901602
318.979561477147;49.8504267270822
319.001169016335;49.6858405502655
319.022776555524;49.5042290688324
319.044384094713;49.3019127884547
319.065991633902;49.0958684235505
319.087599173091;48.9107824533777
319.10920671228;48.7595478543173
319.130814251469;48.638828970568
319.152421790658;48.5349388774979
319.174029329847;48.4473463365999
319.195636869036;48.3766193033102
319.217244408224;48.3155283213263
319.238851947413;48.2510667176533
319.260459486602;48.1666771326319
319.282067025791;48.0570044355259
319.30367456498;47.9377210484197
319.325282104169;47.8140874871923
319.346889643358;47.6787282379467
319.368497182547;47.5338625715698
319.390104721736;47.3921929924083
319.411712260925;47.2679865807757
319.433319800113;47.1527852074521
319.454927339302;47.052275214039
319.476534878491;46.9856822351971
319.49814241768;46.948150587356
319.519749956869;46.9362491452795
319.541357496058;46.9417449391856
319.562965035247;46.9617113405155
319.584572574436;46.991925427276
319.606180113625;47.0254424655312
319.627787652813;47.0655662782301
319.649395192002;47.115946910835
319.671002731191;47.1739947312449
319.69261027038;47.234934626846
319.714217809569;47.2937387632109
319.735825348758;47.347228192061
319.757432887947;47.3968101659195
319.779040427136;47.4464521048299
319.800647966325;47.495732768738
319.822255505514;47.5431465898354
319.843863044702;47.5699559691664
319.865470583891;47.5677543008139
319.88707812308;47.5399249571364
319.908685662269;47.498324758101
319.930293201458;47.4530466935292
319.951900740647;47.4022479800668
319.973508279836;47.3423176488427
319.995115819025;47.2764737213869
320.016723358214;47.1971794206994
320.038330897403;47.1028756366567
320.059938436591;47.0049902168477
320.08154597578;46.9126577686547
320.103153514969;46.8302765673386
320.124761054158;46.7670629098916
320.146368593347;46.7280911823061
320.167976132536;46.7085459075504
320.189583671725;46.6972481594637
320.211191210914;46.6968613091772
320.232798750103;46.7220479078924
320.254406289292;46.7762684444741
320.27601382848;46.8393401993883
320.297621367669;46.88991395773
320.319228906858;46.9267709972138
320.340836446047;46.9479045590713
320.362443985236;46.9532510131499
320.384051524425;46.9598424021707
320.405659063614;46.9580434409076
320.427266602803;46.9376244255156
320.448874141992;46.9050731005732
320.470481681181;46.8771892774187
320.492089220369;46.8502758450938
320.513696759558;46.8102973666169
320.535304298747;46.7639661342779
320.556911837936;46.7393629762819
320.578519377125;46.7516870647972
320.600126916314;46.7922457509902
320.621734455503;46.8560542084612
320.643341994692;46.9412304261568
320.664949533881;47.0351569257295
320.686557073069;47.1242764722415
320.708164612258;47.2126768153779
320.729772151447;47.3129680911103
320.751379690636;47.4207752386137
320.772987229825;47.5170290697926
320.794594769014;47.5920780712739
320.816202308203;47.6489953447938
320.837809847392;47.6937640092329
320.859417386581;47.7312896977684
320.88102492577;47.7579425789612
320.902632464958;47.7683569909638
320.924240004147;47.7672216816172
320.945847543336;47.7610710341944
320.967455082525;47.749214335971
320.989062621714;47.7285053505752
321.010670160903;47.7015700282456
321.032277700092;47.6693281735275
321.053885239281;47.6345983541428
321.07549277847;47.5997410091055
321.097100317659;47.5625027429238
321.118707856847;47.5308019643603
321.140315396036;47.5093365769962
321.161922935225;47.4965185882979
321.183530474414;47.4900191680514
321.205138013603;47.4884741857437
321.226745552792;47.4937056404684
321.248353091981;47.5060412844385
321.26996063117;47.5202076201857
321.291568170359;47.5341621945875
321.313175709548;47.5479844206111
321.334783248736;47.5515427741675
321.356390787925;47.5307357662821
321.377998327114;47.4819198098689
321.399605866303;47.4105842966235
321.421213405492;47.3182536409136
321.442820944681;47.1945995543655
321.46442848387;47.0219744807115
321.486036023059;46.7873452781898
321.507643562248;46.4912831930425
321.529251101437;46.1470395591016
321.550858640625;45.7718018190629
321.572466179814;45.3741085760337
321.594073719003;44.9518330797638
321.615681258192;44.5004915604549
321.637288797381;44.0520034549089
321.65889633657;43.6290736766702
321.680503875759;43.2258959585967
321.702111414948;42.8491814414598
321.723718954137;42.4960716582676
321.745326493325;42.1689766022578
321.766934032514;41.8842817672632
321.788541571703;41.6482149785986
321.810149110892;41.4540611627832
321.831756650081;41.2939495955256
321.85336418927;41.1651030246505
321.874971728459;41.0659955789487
321.896579267648;40.9889365857073
321.918186806837;40.9210797060722
321.939794346026;40.8529231389347
321.961401885214;40.773219311404
321.983009424403;40.6673179144828
322.004616963592;40.5289963575292
322.026224502781;40.3600120910497
322.04783204197;40.1586513714094
322.069439581159;39.9185644370266
322.091047120348;39.6347251275779
322.112654659537;39.3201475601072
322.134262198726;38.9962196165015
322.155869737915;38.6787668817606
322.177477277103;38.3698931193813
322.199084816292;38.0664178252821
322.220692355481;37.7744770426133
322.24229989467;37.5130007320776
322.263907433859;37.2880387977435
322.285514973048;37.1084330899754
322.307122512237;36.9925528619466
322.328730051426;36.9438295431312
322.350337590615;36.9509603957971
322.371945129804;37.0059376401679
322.393552668992;37.1117318481288
322.415160208181;37.2684200618055
322.43676774737;37.463378635675
322.458375286559;37.6840656241746
322.479982825748;37.9247663306093
322.501590364937;38.1770279939315
322.523197904126;38.4315784575599
322.544805443315;38.6665405123096
322.566412982504;38.8614996432933
322.588020521693;39.0177427149179
322.609628060881;39.1440225053688
322.63123560007;39.2437714000331
322.652843139259;39.320203191268
322.674450678448;39.3877566899668
322.696058217637;39.4547855851617
322.717665756826;39.5190351839541
322.739273296015;39.5819539162573
322.760880835204;39.6422427928898
322.782488374393;39.6931262875314
322.804095913581;39.7341378332086
322.82570345277;39.7809899538414
322.847310991959;39.831559324113
322.868918531148;39.861614747356
322.890526070337;39.8630239241887
322.912133609526;39.8398927266938
322.933741148715;39.7929330436432
322.955348687904;39.7188279793493
322.976956227093;39.619132824559
322.998563766282;39.4993923062118
323.02017130547;39.3559287785632
323.041778844659;39.1930678186607
323.063386383848;39.0218623445148
323.084993923037;38.8434582135783
323.106601462226;38.648530060214
323.128209001415;38.4340590278149
323.149816540604;38.1957990300094
323.171424079793;37.9354004247353
323.193031618982;37.6587363883911
323.214639158171;37.3704689789417
323.236246697359;37.0822390149067
323.257854236548;36.8015201047341
323.279461775737;36.521989473016
323.301069314926;36.2370031496331
323.322676854115;35.9443174874969
323.344284393304;35.6433631176522
323.365891932493;35.3405398788967
323.387499471682;35.0441510233437
323.409107010871;34.7568113683554
323.43071455006;34.4857867995499
323.452322089248;34.2452439089289
323.473929628437;34.0379368590189
323.495537167626;33.8566250496551
323.517144706815;33.7009434002605
323.538752246004;33.5749972850996
323.560359785193;33.4891074006834
323.581967324382;33.4517716795692
323.603574863571;33.4627904274501
323.62518240276;33.5298751556257
323.646789941949;33.6588668802402
323.668397481137;33.8428344313261
323.690005020326;34.0759106433142
323.711612559515;34.3369619842655
323.733220098704;34.606356821076
323.754827637893;34.8832194305857
323.776435177082;35.1557388608068
323.798042716271;35.3996949672153
323.81965025546;35.6000277764594
323.841257794649;35.7592810937337
323.862865333837;35.8881169521825
323.884472873026;35.9845470503658
323.906080412215;36.0335408562933
323.927687951404;36.0340297479193
323.949295490593;35.9905137224859
323.970903029782;35.9082741694974
323.992510568971;35.8049767165979
324.01411810816;35.6852613077341
324.035725647349;35.5528193901801
324.057333186538;35.4112601118892
324.078940725726;35.2641090916297
324.100548264915;35.1151262632431
324.122155804104;34.9673485021446
324.143763343293;34.819396513852
324.165370882482;34.6761864017313
324.186978421671;34.5404612367293
324.20858596086;34.3945832621053
324.230193500049;34.2177589519598
324.251801039238;34.0240476669402
324.273408578427;33.8261994654632
324.295016117615;33.6136321490055
324.316623656804;33.3719642058468
324.338231195993;33.1047219713228
324.359838735182;32.8324351641637
324.381446274371;32.5610395745059
324.40305381356;32.2841029699407
324.424661352749;32.0226398452623
324.446268891938;31.7898898886105
324.467876431127;31.5875840654217
324.489483970316;31.4143004835356
324.511091509504;31.2806791509072
324.532699048693;31.1964378440501
324.554306587882;31.1617033663969
324.575914127071;31.1725315357745
324.59752166626;31.2303778987251
324.619129205449;31.3339555203168
324.640736744638;31.4727880735069
324.662344283827;31.634323033491
324.683951823016;31.8104676167328
324.705559362205;31.9902826333666
324.727166901393;32.1578296650375
324.748774440582;32.2934628644145
