Name;BF_ESR_01_90s_Z_gon_80dg_result

Recipe
Accumulations;5;Number of accumulations
RetryCount;0;Number of retries on error
AbortOnError;True;Abort on error
EnableQFactorMeasurement;False;Enable/Disable q-Factor measurement
Bfrom;313;B from
Bto;363;B to
SweepTime;60;Sweep time
Modulation;0.2;Modulation
ModulationFreq;100;Modulation
BHoldEnabled;False;B hold enabled
BHold;0;B hold
MicrowavePower;2;Microwave power
MarkerEnabled;False;
MarkerStartField;0;
MarkerEndField;0;
Mode;;
KineticGFact;0;
KineticTotalTransientTime;0;
KineticTimeResolution;0;
TempFrom;5;
TempUseSlope;False;
TempTo;5;
TempdT;1;
TempSetupTime;0;
GonFrom;0;
GonTo;180;
GonSteps;20;
XRayEnabled;False;
XRayTime;3;
XRayVoltage;40;
XRayCurrent;0.5;
UVEnabled;False;
UVIntensity;0;
UVTime;0;
UVLeadTime;0;
UVWavelength;0;
PowSweepFrom;1;
PowSweepTo;5;
PowSweepSteps;5;
AmpModSweepFrom;0;
AmpModSweepTo;1;
AmpModSweepSteps;10;
ExtTriggerEnabled;False;
ExtTrigLeadTime;0;
ExtTrigOnTime;5;

Meas
BField [mT];MW_Absorption []
313.010183944702;55.8077713681784
313.031797692619;55.7216918889278
313.053411440536;55.6013291465187
313.075025188453;55.5396272136862
313.096638936369;55.532392900143
313.118252684286;55.5694711187728
313.139866432203;55.6441126987418
313.16148018012;55.7426531951837
313.183093928037;55.8356550746293
313.204707675954;55.8985229703293
313.22632142387;55.9245492972737
313.247935171787;55.9129696384853
313.269548919704;55.8643128318374
313.291162667621;55.7704920474849
313.312776415538;55.6183534951865
313.334390163455;55.422174215274
313.356003911371;55.2025478121578
313.377617659288;54.9717868568601
313.399231407205;54.7366935785448
313.420845155122;54.5135835486205
313.442458903039;54.322960835064
313.464072650956;54.1783696125623
313.485686398872;54.0772185335272
313.507300146789;54.0162597516042
313.528913894706;54.0081310037589
313.550527642623;54.0606544514998
313.57214139054;54.1694713202717
313.593755138457;54.3269788006878
313.615368886373;54.5303523861339
313.63698263429;54.7706188277187
313.658596382207;55.0357157468525
313.680210130124;55.3224458665926
313.701823878041;55.6257701409165
313.723437625958;55.914086498121
313.745051373874;56.1653432706467
313.766665121791;56.3843738816168
313.788278869708;56.5680896839932
313.809892617625;56.7065626668667
313.831506365542;56.8069500409465
313.853120113459;56.8822831083044
313.874733861375;56.9327661880761
313.896347609292;56.9731566012181
313.917961357209;57.0081376222634
313.939575105126;57.0393710744786
313.961188853043;57.0790409319804
313.98280260096;57.1454280443461
314.004416348876;57.2552690733009
314.026030096793;57.4098165812856
314.04764384471;57.599886664601
314.069257592627;57.8226673056723
314.090871340544;58.0805092345523
314.112485088461;58.3703080589293
314.134098836377;58.681991987191
314.155712584294;58.9927907606536
314.177326332211;59.2843402867414
314.198940080128;59.5388163254649
314.220553828045;59.7414499251844
314.242167575962;59.8864564430231
314.263781323878;59.9779288887178
314.285395071795;60.0163705371601
314.307008819712;59.994855676615
314.328622567629;59.8974415455792
314.350236315546;59.736902925604
314.371850063463;59.5352663388363
314.393463811379;59.3012501855156
314.415077559296;59.0372861251556
314.436691307213;58.7492299142561
314.45830505513;58.4502151421321
314.479918803047;58.1656253551834
314.501532550964;57.9045992455871
314.52314629888;57.6781743315843
314.544760046797;57.4965151482921
314.566373794714;57.3601069132642
314.587987542631;57.2770125595322
314.609601290548;57.260466813269
314.631215038465;57.3113007586487
314.652828786381;57.4153467576213
314.674442534298;57.5577104507865
314.696056282215;57.732810812195
314.717670030132;57.9296391360975
314.739283778049;58.1290480211923
314.760897525966;58.3224500085156
314.782511273882;58.5053666866813
314.804125021799;58.672876083816
314.825738769716;58.8294547240685
314.847352517633;58.9853746456629
314.86896626555;59.1332453055591
314.890580013467;59.2529286208179
314.912193761383;59.3372547178334
314.9338075093;59.4027629358398
314.955421257217;59.4654617436875
314.977035005134;59.5278840394461
314.998648753051;59.5768123852339
315.020262500968;59.6042064344603
315.041876248884;59.6206730087887
315.063489996801;59.6398993051659
315.085103744718;59.6659483834038
315.106717492635;59.6968452864468
315.128331240552;59.7313021800056
315.149944988469;59.7686072916299
315.171558736385;59.8036877864865
315.193172484302;59.8281269051985
315.214786232219;59.8359481771148
315.236399980136;59.8226601157576
315.258013728053;59.7813477070216
315.27962747597;59.711104816849
315.301241223886;59.6165830753851
315.322854971803;59.4930940545897
315.34446871972;59.3300729510784
315.366082467637;59.1257301631489
315.387696215554;58.9013273606638
315.40930996347;58.6730073434974
315.430923711387;58.4429143306741
315.452537459304;58.2132876769239
315.474151207221;58.0023697489487
315.495764955138;57.8006720111016
315.517378703055;57.593620572075
315.538992450971;57.3858728798825
315.560606198888;57.2095548914656
315.582219946805;57.0730084286639
315.603833694722;56.9564879660344
315.625447442639;56.8497082269991
315.647061190556;56.7526322499027
315.668674938472;56.673363062616
315.690288686389;56.6064952227398
315.711902434306;56.5376469655006
315.733516182223;56.4582736640286
315.75512993014;56.3616795190472
315.776743678057;56.235910783543
315.798357425974;56.0701678452735
315.81997117389;55.8652636037895
315.841584921807;55.6274788359224
315.863198669724;55.3616819663476
315.884812417641;55.078726622888
315.906426165558;54.8000159354008
315.928039913474;54.5414127613085
315.949653661391;54.308096805413
315.971267409308;54.1082102527579
315.992881157225;53.9534334917572
316.014494905142;53.8488605734358
316.036108653059;53.7969109733345
316.057722400975;53.7961783349089
316.079336148892;53.8413550376988
316.100949896809;53.9287521670608
316.122563644726;54.0537923017344
316.144177392643;54.2037471975634
316.16579114056;54.3626477586575
316.187404888476;54.5162873912445
316.209018636393;54.6541938325363
316.23063238431;54.7703484842204
316.252246132227;54.8610958474746
316.273859880144;54.9259899337592
316.295473628061;54.9644315783289
316.317087375977;54.9697224965486
316.338701123894;54.9362575389846
316.360314871811;54.8690144612111
316.381928619728;54.7696168836835
316.403542367645;54.6299202107595
316.425156115562;54.4414815731179
316.446769863478;54.2134820562997
316.468383611395;53.9609455238633
316.489997359312;53.6916642136098
316.511611107229;53.4060904232299
316.533224855146;53.1030169271667
316.554838603063;52.7942368878578
316.576452350979;52.5012012051934
316.598066098896;52.2377469067784
316.619679846813;52.0040381061841
316.64129359473;51.7987329811534
316.662907342647;51.6326771875362
316.684521090564;51.507041587846
316.70613483848;51.4186402377062
316.727748586397;51.3624385176774
316.749362334314;51.3377103951779
316.770976082231;51.3419409450241
316.792589830148;51.365600930105
316.814203578065;51.4009897102075
316.835817325981;51.4400184649448
316.857431073898;51.4749042714191
316.879044821815;51.5050226239517
316.900658569732;51.5342930346799
316.922272317649;51.5660535567743
316.943886065566;51.6051818095287
316.965499813482;51.6453236402353
316.987113561399;51.6676433942856
317.008727309316;51.678401858598
317.030341057233;51.6973616938493
317.05195480515;51.7132399871667
317.073568553067;51.7126446637914
317.095182300983;51.7037843015156
317.1167960489;51.6869849943686
317.138409796817;51.6489895839971
317.160023544734;51.580210610381
317.181637292651;51.4687666635676
317.203251040568;51.3095815425322
317.224864788484;51.1030457140628
317.246478536401;50.8637939038902
317.268092284318;50.5979084684201
317.289706032235;50.3048476968529
317.311319780152;49.9919481255377
317.332933528069;49.6675232303508
317.354547275985;49.3400380686233
317.376161023902;49.0189432844552
317.397774771819;48.7065166766805
317.419388519736;48.4100718368048
317.441002267653;48.1510777878673
317.46261601557;47.9334611894859
317.484229763486;47.7635788990859
317.505843511403;47.6377923532716
317.52745725932;47.5503339313403
317.549071007237;47.5026449087793
317.570684755154;47.4952094561644
317.592298503071;47.5127674582946
317.613912250987;47.5442662107793
317.635525998904;47.5914761335713
317.657139746821;47.657924361671
317.678753494738;47.7369242851698
317.700367242655;47.8173996516457
317.721980990572;47.9009899487341
317.743594738488;47.9949352902645
317.765208486405;48.0904399271081
317.786822234322;48.1817092565596
317.808435982239;48.2712857254775
317.830049730156;48.3637571205978
317.851663478073;48.4592825567544
317.873277225989;48.5566791226041
317.894890973906;48.659670309628
317.916504721823;48.7748848950342
317.93811846974;48.8987942076842
317.959732217657;49.0230957753255
317.981345965574;49.1501256032212
318.00295971349;49.2823220887598
318.024573461407;49.4099063070171
318.046187209324;49.5199600756099
318.067800957241;49.6086214120946
318.089414705158;49.6751838863743
318.111028453075;49.7181702186386
318.132642200991;49.7287610207026
318.154255948908;49.6941266770377
318.175869696825;49.6019441256129
318.197483444742;49.4566837584141
318.219097192659;49.2702499598455
318.240710940576;49.0496618221888
318.262324688492;48.8020847792559
318.283938436409;48.5296479440384
318.305552184326;48.2264615485725
318.327165932243;47.8991517875565
318.34877968016;47.5814689710925
318.370393428077;47.2910424631109
318.392007175993;47.0277266055928
318.41362092391;46.79060770781
318.435234671827;46.5942929359347
318.456848419744;46.4491240739244
318.478462167661;46.3620290992872
318.500075915578;46.3335380166518
318.521689663494;46.3494219475396
318.543303411411;46.3988610689786
318.564917159328;46.4785995627823
318.586530907245;46.5912329369584
318.608144655162;46.7379620075912
318.629758403078;46.9119441590052
318.651372150995;47.1074048705282
318.672985898912;47.3196854011943
318.694599646829;47.5412960161144
318.716213394746;47.7681726368311
318.737827142663;47.9947873437099
318.759440890579;48.2009289381439
318.781054638496;48.3711043612194
318.802668386413;48.5010200573536
318.82428213433;48.5844731348031
318.845895882247;48.6179541245579
318.867509630164;48.5971960965365
318.88912337808;48.5192790893661
318.910737125997;48.3858818358214
318.932350873914;48.2026586741288
318.953964621831;47.9798221481655
318.975578369748;47.7335179323117
318.997192117665;47.4765773510791
319.018805865581;47.2245919047295
319.040419613498;46.9784797632563
319.062033361415;46.7375265894216
319.083647109332;46.5107235665854
319.105260857249;46.3125119974756
319.126874605166;46.1502934136141
319.148488353082;46.0229018492942
319.170102100999;45.9232768254246
319.191715848916;45.8407062723965
319.213329596833;45.7633349801496
319.23494334475;45.6876461685611
319.256557092667;45.6124736005637
319.278170840583;45.5353168743519
319.2997845885;45.4511713358741
319.321398336417;45.3627909778494
319.343012084334;45.2744717593773
319.364625832251;45.1857138541979
319.386239580168;45.0919713256729
319.407853328084;44.9992995195602
319.429467076001;44.9241270974264
319.451080823918;44.8700199308018
319.472694571835;44.8331335024041
319.494308319752;44.8165631721709
319.515922067669;44.8234064333942
319.537535815585;44.8460503403101
319.559149563502;44.8876132204438
319.580763311419;44.9487507763714
319.602377059336;45.0152661245409
319.623990807253;45.076715076892
319.64560455517;45.1352376597067
319.667218303086;45.1948741396751
319.688832051003;45.2496274637242
319.71044579892;45.2945110420154
319.732059546837;45.3354039060783
319.753673294754;45.3797321344843
319.775287042671;45.4284804516613
319.796900790587;45.4755056068559
319.818514538504;45.5197215042142
319.840128286421;45.567946801032
319.861742034338;45.6232414790962
319.883355782255;45.6788061724299
319.904969530172;45.7190397980494
319.926583278088;45.7324949363761
319.948197026005;45.7148995254924
319.969810773922;45.6752036792419
319.991424521839;45.6198615055263
320.013038269756;45.5440515484115
320.034652017673;45.4420281868932
320.056265765589;45.3183582955918
320.077879513506;45.1924054911253
320.099493261423;45.0833148325332
320.12110700934;44.9984298336588
320.142720757257;44.9395176695272
320.164334505174;44.9086953231704
320.18594825309;44.9065244114973
320.207562001007;44.9353503868659
320.229175748924;45.0032631237189
320.250789496841;45.1083124212176
320.272403244758;45.2449015496303
320.294016992675;45.4064069760492
320.315630740591;45.5870033486812
320.337244488508;45.7831851850729
320.358858236425;45.9984538261192
320.380471984342;46.2285247512542
320.402085732259;46.4654442592652
320.423699480176;46.7236129203475
320.445313228092;47.0260824787845
320.466926976009;47.3750549300618
320.488540723926;47.7410232684799
320.510154471843;48.102861421627
320.53176821976;48.4679648776176
320.553381967677;48.8175696116162
320.574995715593;49.1050678237548
320.59660946351;49.3240582882784
320.618223211427;49.4709678960787
320.639836959344;49.5340755070193
320.661450707261;49.4974490756541
320.683064455178;49.3598669369659
320.704678203094;49.1232951841203
320.726291951011;48.7895100654697
320.747905698928;48.3828396247154
320.769519446845;47.9414729058103
320.791133194762;47.4926718898448
320.812746942679;47.0364138947198
320.834360690595;46.5926294343396
320.855974438512;46.1906468509554
320.877588186429;45.8400404030415
320.899201934346;45.5504586121475
320.920815682263;45.3258501205611
320.94242943018;45.1551470397191
320.964043178096;45.0269629246336
320.985656926013;44.9305580018649
321.00727067393;44.8468947371429
321.028884421847;44.7616121202976
321.050498169764;44.6742748800181
321.072111917681;44.5770015149736
321.093725665597;44.4443263160045
321.115339413514;44.257809672051
321.136953161431;44.0090747574169
321.158566909348;43.7079679594875
321.180180657265;43.3671551336313
321.201794405181;43.0000893380287
321.223408153098;42.6092399841734
321.245021901015;42.1876375563112
321.266635648932;41.7318739586095
321.288249396849;41.2381672898008
321.309863144766;40.7196830061008
321.331476892683;40.2028519125294
321.353090640599;39.7062573054024
321.374704388516;39.229612697955
321.396318136433;38.7790157171628
321.41793188435;38.3687277328107
321.439545632267;38.0097894779653
321.461159380184;37.7181133338804
321.4827731281;37.4968879312275
321.504386876017;37.343688499115
321.526000623934;37.2469566244263
321.547614371851;37.1965542332817
321.569228119768;37.1888653921678
321.590841867685;37.218140857449
321.612455615601;37.2779925772576
321.634069363518;37.3558489412534
321.655683111435;37.4446331759849
321.677296859352;37.5441490886724
321.698910607269;37.6569155000307
321.720524355185;37.7774586219658
321.742138103102;37.8953226544599
321.763751851019;38.0119798907721
321.785365598936;38.1259456521817
321.806979346853;38.2414966091319
321.82859309477;38.3668505724374
321.850206842686;38.509155453298
321.871820590603;38.6664508122837
321.89343433852;38.8437050011938
321.915048086437;39.0570223949841
321.936661834354;39.3156155285393
321.958275582271;39.6081750466848
321.979889330187;39.9212388551074
322.001503078104;40.2551906777519
322.023116826021;40.6034127006494
322.044730573938;40.9458394737402
322.066344321855;41.2842178167821
322.087958069772;41.6277082202188
322.109571817688;41.9582853797569
322.131185565605;42.2601112348093
322.152799313522;42.5367309438065
322.174413061439;42.7844430348717
322.196026809356;42.9890244824427
322.217640557273;43.1589313540277
322.239254305189;43.3006588690755
322.260868053106;43.4113556054083
322.282481801023;43.4894121051578
322.30409554894;43.5348717604294
322.325709296857;43.5485091647037
322.347323044774;43.5253154400256
322.36893679269;43.452695180286
322.390550540607;43.3154541579825
322.412164288524;43.1128436599458
322.433778036441;42.849537780652
322.455391784358;42.5510267436043
322.477005532275;42.2356935909807
322.498619280191;41.8963754085645
322.520233028108;41.5353386071285
322.541846776025;41.1480407304124
322.563460523942;40.7327993146219
322.585074271859;40.302390829369
322.606688019776;39.8697098384059
322.628301767692;39.4413587769696
322.649915515609;39.0252163253928
322.671529263526;38.6287770086484
322.693143011443;38.2571959731663
322.71475675936;37.9175183215809
322.736370507277;37.5975956025126
322.757984255193;37.2734649076984
322.77959800311;36.9534583841281
322.801211751027;36.6644346220986
322.822825498944;36.4013001266546
322.844439246861;36.1441773000426
322.866052994778;35.8800788337444
322.887666742694;35.6106320461096
322.909280490611;35.3351353291333
322.930894238528;35.0514218742747
322.952507986445;34.7613417953017
322.974121734362;34.4715290649008
322.995735482279;34.1832605453126
323.017349230195;33.8944451826974
323.038962978112;33.6199771718163
323.060576726029;33.3848016675444
323.082190473946;33.1895331779143
323.103804221863;33.0243765201323
323.12541796978;32.8875147742957
323.147031717696;32.7891225423319
323.168645465613;32.7350929956541
323.19025921353;32.7162940410135
323.211872961447;32.7247325549921
323.233486709364;32.7568402817923
323.255100457281;32.8062672087976
323.276714205197;32.8665733645841
323.298327953114;32.9405771959696
323.319941701031;33.0304754695636
323.341555448948;33.1396825060467
323.363169196865;33.268014476984
323.384782944782;33.4158509179407
323.406396692698;33.5912768571551
323.428010440615;33.8000894290726
323.449624188532;34.0405799909072
323.471237936449;34.3164734354207
323.492851684366;34.6261845754932
323.514465432283;34.9513501491601
323.536079180199;35.2657073725142
323.557692928116;35.5618308149105
323.579306676033;35.8446099366532
323.60092042395;36.103483956593
323.622534171867;36.3077232459082
323.644147919784;36.4522387680186
323.6657616677;36.5430292231815
323.687375415617;36.575413629806
323.708989163534;36.5501771094394
323.730602911451;36.4790582290424
323.752216659368;36.3678428940412
323.773830407285;36.2220132291437
323.795444155201;36.0583871765343
323.817057903118;35.892995586755
323.838671651035;35.7303516055963
323.860285398952;35.5720893863726
323.881899146869;35.4235974168307
323.903512894786;35.2969103606467
323.925126642702;35.1960051688255
323.946740390619;35.121567024557
323.968354138536;35.0802118303708
323.989967886453;35.0609559320186
324.01158163437;35.0479908965391
324.033195382287;35.0372042006333
324.054809130203;35.035544899009
324.07642287812;35.0321869426718
324.098036626037;35.0003887683519
324.119650373954;34.9291821735239
324.141264121871;34.8201988721505
324.162877869788;34.6803845635517
324.184491617704;34.5234436870682
324.206105365621;34.350966596788
324.227719113538;34.1584822183916
324.249332861455;33.9545016786895
324.270946609372;33.7552156511548
324.292560357288;33.5635539738147
324.314174105205;33.3688163081433
324.335787853122;33.1690186515926
324.357401601039;32.9837562341276
324.379015348956;32.8173199435036
324.400629096873;32.6675296568191
324.422242844789;32.5357511205784
324.443856592706;32.4203951402787
324.465470340623;32.3188172732049
324.48708408854;32.2263294290881
324.508697836457;32.1336402431647
324.530311584374;32.0279570295322
324.55192533229;31.9098213120624
324.573539080207;31.7870747673752
324.595152828124;31.6590311704664
324.616766576041;31.5202140457938
324.638380323958;31.3648001541139
324.659994071875;31.1881609875004
324.681607819791;30.9927865486137
324.703221567708;30.7889705433055
324.724835315625;30.5859952275564
324.746449063542;30.3776543375683
