Name;BF_ESR_01_1800s_Z_gon_20dg_result

Recipe
Accumulations;5;Number of accumulations
RetryCount;0;Number of retries on error
AbortOnError;True;Abort on error
EnableQFactorMeasurement;False;Enable/Disable q-Factor measurement
Bfrom;313;B from
Bto;363;B to
SweepTime;60;Sweep time
Modulation;0.2;Modulation
ModulationFreq;100;Modulation
BHoldEnabled;False;B hold enabled
BHold;0;B hold
MicrowavePower;2;Microwave power
MarkerEnabled;False;
MarkerStartField;0;
MarkerEndField;0;
Mode;;
KineticGFact;0;
KineticTotalTransientTime;0;
KineticTimeResolution;0;
TempFrom;5;
TempUseSlope;False;
TempTo;5;
TempdT;1;
TempSetupTime;0;
GonFrom;0;
GonTo;180;
GonSteps;20;
XRayEnabled;False;
XRayTime;3;
XRayVoltage;40;
XRayCurrent;0.5;
UVEnabled;False;
UVIntensity;0;
UVTime;0;
UVLeadTime;0;
UVWavelength;0;
PowSweepFrom;1;
PowSweepTo;5;
PowSweepSteps;5;
AmpModSweepFrom;0;
AmpModSweepTo;1;
AmpModSweepSteps;10;
ExtTriggerEnabled;False;
ExtTrigLeadTime;0;
ExtTrigOnTime;5;

Meas
BField [mT];MW_Absorption []
313.022993545532;115.323939854199
313.044602809926;115.019311198988
313.066212074319;114.674595324618
313.087821338713;114.289145260551
313.109430603106;113.859187316301
313.1310398675;113.39164120276
313.152649131894;112.897759634165
313.174258396287;112.373582131307
313.195867660681;111.807925263579
313.217476925074;111.214130920058
313.239086189468;110.621511186427
313.260695453862;110.038482724428
313.282304718255;109.468522052738
313.303913982649;108.91122613511
313.325523247042;108.373323173134
313.347132511436;107.863661241611
313.368741775829;107.380325303514
313.390351040223;106.928095164512
313.411960304617;106.523894702635
313.43356956901;106.178480852156
313.455178833404;105.885778001484
313.476788097797;105.645773334761
313.498397362191;105.455722312436
313.520006626585;105.311400003084
313.541615890978;105.207149918578
313.563225155372;105.139592355187
313.584834419765;105.111283713377
313.606443684159;105.128454367058
313.628052948552;105.195306921411
313.649662212946;105.29849487602
313.67127147734;105.415975412823
313.692880741733;105.531117647974
313.714490006127;105.634057451263
313.73609927052;105.721883159983
313.757708534914;105.781754356798
313.779317799307;105.803482512181
313.800927063701;105.789464376298
313.822536328095;105.728793817315
313.844145592488;105.612133379236
313.865754856882;105.43906592275
313.887364121275;105.244908314771
313.908973385669;105.053855283972
313.930582650062;104.86733645076
313.952191914456;104.680292861154
313.97380117885;104.501417593678
313.995410443243;104.350411282315
314.017019707637;104.228306369003
314.03862897203;104.123280231494
314.060238236424;104.025164207525
314.081847500818;103.926923894964
314.103456765211;103.825825195255
314.125066029605;103.715886086162
314.146675293998;103.597701576668
314.168284558392;103.479103886268
314.189893822785;103.367979637124
314.211503087179;103.26025280625
314.233112351573;103.145206632752
314.254721615966;103.023732828319
314.27633088036;102.916327232361
314.297940144753;102.827080593878
314.319549409147;102.751068626097
314.341158673541;102.68496556342
314.362767937934;102.617967663301
314.384377202328;102.538966988011
314.405986466721;102.437399019514
314.427595731115;102.306972433749
314.449204995508;102.143563562737
314.470814259902;101.946474470843
314.492423524296;101.721409519301
314.514032788689;101.471166247383
314.535642053083;101.215583066453
314.557251317476;100.981103299948
314.57886058187;100.770520384751
314.600469846263;100.559787174897
314.622079110657;100.327535241532
314.643688375051;100.097028484796
314.665297639444;99.8989999091095
314.686906903838;99.7068024324026
314.708516168231;99.4934957018858
314.730125432625;99.2434532365795
314.751734697018;98.9661774691464
314.773343961412;98.6725000924646
314.794953225806;98.3546322791243
314.816562490199;98.0041193620775
314.838171754593;97.6191830699148
314.859781018986;97.215020970616
314.88139028338;96.8038399894394
314.902999547774;96.4026863852943
314.924608812167;96.028324346093
314.946218076561;95.6815996419389
314.967827340954;95.3586402985803
314.989436605348;95.0586292020538
315.011045869741;94.7804477073337
315.032655134135;94.5239789924301
315.054264398529;94.2962172309919
315.075873662922;94.1024367440183
315.097482927316;93.9386988643336
315.119092191709;93.8041274868404
315.140701456103;93.7078446097936
315.162310720496;93.6419346203828
315.18391998489;93.6038717372377
315.205529249284;93.5987548614463
315.227138513677;93.6272187570667
315.248747778071;93.6817775470794
315.270357042464;93.7499617426593
315.291966306858;93.8241642111049
315.313575571252;93.9044170891726
315.335184835645;93.9872075318939
315.356794100039;94.0656615590088
315.378403364432;94.1406630425113
315.400012628826;94.2110042751651
315.421621893219;94.2731676839956
315.443231157613;94.3282281862146
315.464840422007;94.3788337963638
315.4864496864;94.4249075616712
315.508058950794;94.461590085766
315.529668215187;94.4790720552002
315.551277479581;94.4694797297617
315.572886743974;94.4503214589582
315.594496008368;94.4296551989431
315.616105272762;94.4024546473259
315.637714537155;94.3580052873309
315.659323801549;94.286299580408
315.680933065942;94.1852900013162
315.702542330336;94.0602223440397
315.72415159473;93.909490313551
315.745760859123;93.7318743032562
315.767370123517;93.5349225429151
315.78897938791;93.3181959842721
315.810588652304;93.0764898204053
315.832197916697;92.8056358368807
315.853807181091;92.4980540997495
315.875416445485;92.1741587836532
315.897025709878;91.8558283275554
315.918634974272;91.54082024399
315.940244238665;91.2180676589067
315.961853503059;90.8854225288046
315.983462767452;90.5388541372144
316.005072031846;90.1841902291691
316.02668129624;89.8526924373599
316.048290560633;89.5574976910011
316.069899825027;89.2894889834935
316.09150908942;89.0324330833911
316.113118353814;88.7890943381764
316.134727618208;88.5732369129553
316.156336882601;88.3930594948105
316.177946146995;88.2502447051751
316.199555411388;88.1449554114075
316.221164675782;88.0679164703638
316.242773940175;88.0041751640683
316.264383204569;87.9416480053466
316.285992468963;87.8726950384558
316.307601733356;87.7979145661253
316.32921099775;87.7104476121403
316.350820262143;87.5967417310725
316.372429526537;87.45735605418
316.39403879093;87.3119817419598
316.415648055324;87.1738346088095
316.437257319718;87.0375309444445
316.458866584111;86.9022167841213
316.480475848505;86.7676919622049
316.502085112898;86.6311216803504
316.523694377292;86.4965137701879
316.545303641686;86.3785340636585
316.566912906079;86.2818073772516
316.588522170473;86.2032966921247
316.610131434866;86.1403522394903
316.63174069926;86.0937168870811
316.653349963653;86.0557111596932
316.674959228047;86.013588781505
316.696568492441;85.9576033019346
316.718177756834;85.8798559532997
316.739787021228;85.7728054923188
316.761396285621;85.6263033124148
316.783005550015;85.4379281643453
316.804614814408;85.2196097793796
316.826224078802;84.9806662541475
316.847833343196;84.723068063367
316.869442607589;84.4501763823701
316.891051871983;84.1693592107634
316.912661136376;83.8911094531586
316.93427040077;83.6323341429485
316.955879665164;83.4021407528807
316.977488929557;83.2075010902262
316.999098193951;83.048768816745
317.020707458344;82.9152865118707
317.042316722738;82.8195031496818
317.063925987131;82.7658283799638
317.085535251525;82.7390726511928
317.107144515919;82.7295572192726
317.128753780312;82.7428498837736
317.150363044706;82.7793631399387
317.171972309099;82.8228933311554
317.193581573493;82.8526212148042
317.215190837887;82.862542788276
317.23680010228;82.8598245206621
317.258409366674;82.8414570951421
317.280018631067;82.8123257979563
317.301627895461;82.7793150958115
317.323237159854;82.7353698755897
317.344846424248;82.6712411241514
317.366455688642;82.592343514885
317.388064953035;82.5047603216387
317.409674217429;82.4072633426218
317.431283481822;82.3013267548906
317.452892746216;82.2064695565232
317.474502010609;82.1291257292767
317.496111275003;82.0450906011286
317.517720539397;81.9409832745061
317.53932980379;81.8372441607832
317.560939068184;81.7446563083606
317.582548332577;81.6580506069904
317.604157596971;81.5686950117338
317.625766861364;81.4737092835217
317.647376125758;81.3751296476441
317.668985390152;81.270275016035
317.690594654545;81.1538542826748
317.712203918939;81.0259827577831
317.733813183332;80.8950719694888
317.755422447726;80.7654774588829
317.77703171212;80.6307268017599
317.798640976513;80.4826487199699
317.820250240907;80.322708678964
317.8418595053;80.16493728244
317.863468769694;80.0151050612445
317.885078034087;79.8640344251226
317.906687298481;79.7012001112035
317.928296562875;79.5252357824855
317.949905827268;79.3425624992867
317.971515091662;79.1550231773217
317.993124356055;78.9682284515458
318.014733620449;78.7881654912023
318.036342884842;78.6153435671275
318.057952149236;78.445095204067
318.07956141363;78.2758961641154
318.101170678023;78.1142301973314
318.122779942417;77.9598323687693
318.14438920681;77.8019994794693
318.165998471204;77.6342412356543
318.187607735598;77.4534151952426
318.209216999991;77.256450065241
318.230826264385;77.0441472748049
318.252435528778;76.8218765573046
318.274044793172;76.590444210357
318.295654057565;76.341241584426
318.317263321959;76.0704293730308
318.338872586353;75.7811246023479
318.360481850746;75.4768822837909
318.38209111514;75.1640755774114
318.403700379533;74.8479368702041
318.425309643927;74.5189365221683
318.44691890832;74.1730609609239
318.468528172714;73.8241881694096
318.490137437108;73.4812734319879
318.511746701501;73.1382818603099
318.533355965895;72.788345056309
318.554965230288;72.4337662270927
318.576574494682;72.0781027622084
318.598183759076;71.7175947316247
318.619793023469;71.3481786037066
318.641402287863;70.9728387024836
318.663011552256;70.6124939245013
318.68462081665;70.2730065763262
318.706230081043;69.9570248631371
318.727839345437;69.6631311648325
318.749448609831;69.3916729981774
318.771057874224;69.1450568067051
318.792667138618;68.9255955475838
318.814276403011;68.7355334033388
318.835885667405;68.5814881847772
318.857494931798;68.4660869651088
318.879104196192;68.3900787312065
318.900713460586;68.3499059132789
318.922322724979;68.3396682378612
318.943931989373;68.3552699017291
318.965541253766;68.3945201932446
318.98715051816;68.4537816705754
319.008759782554;68.5267857415141
319.030369046947;68.6045654188411
319.051978311341;68.6774279082921
319.073587575734;68.7412373837184
319.095196840128;68.7953548120934
319.116806104521;68.8311965640442
319.138415368915;68.8397683798824
319.160024633309;68.8181611006898
319.181633897702;68.7722884411655
319.203243162096;68.7048140536365
319.224852426489;68.6032896353168
319.246461690883;68.4678248361221
319.268070955276;68.3145013287076
319.28968021967;68.1437346490633
319.311289484064;67.9557751711283
319.332898748457;67.757794645706
319.354508012851;67.537571592856
319.376117277244;67.2759296454521
319.397726541638;66.9773804616202
319.419335806031;66.65728704085
319.440945070425;66.3022160051101
319.462554334819;65.9119694344691
319.484163599212;65.4999684940354
319.505772863606;65.05892280425
319.527382127999;64.5791733448053
319.548991392393;64.0647823090789
319.570600656787;63.5377538349122
319.59220992118;63.0078215014427
319.613819185574;62.4796388438654
319.635428449967;61.9601560090968
319.657037714361;61.4633715313798
319.678646978754;61.014198659773
319.700256243148;60.6192636699893
319.721865507542;60.2796701423644
319.743474771935;59.9963508059404
319.765084036329;59.7778027453579
319.786693300722;59.6089886810977
319.808302565116;59.4693171439332
319.82991182951;59.351943875096
319.851521093903;59.2645991369944
319.873130358297;59.2051177031444
319.89473962269;59.1599346543021
319.916348887084;59.1266770685168
319.937958151477;59.1143730143008
319.959567415871;59.1256091865134
319.981176680265;59.1575500873931
320.002785944658;59.2117335672035
320.024395209052;59.2961595001464
320.046004473445;59.4078180584794
320.067613737839;59.5437243353665
320.089223002232;59.7019084270916
320.110832266626;59.8860161167523
320.13244153102;60.0946728870206
320.154050795413;60.3158780109351
320.175660059807;60.5262478227858
320.1972693242;60.7080543597892
320.218878588594;60.8571653139323
320.240487852987;60.9735322108585
320.262097117381;61.0589093062131
320.283706381775;61.1227415554183
320.305315646168;61.1601698075773
320.326924910562;61.1572700126161
320.348534174955;61.124710605039
320.370143439349;61.0798340135844
320.391752703743;61.0400856167997
320.413361968136;61.0143046074353
320.43497123253;61.0021991900534
320.456580496923;61.0035847610129
320.478189761317;61.0196414989022
320.49979902571;61.0429924485495
320.521408290104;61.0620480934603
320.543017554498;61.0697695757165
320.564626818891;61.0634121938594
320.586236083285;61.0396182096531
320.607845347678;60.9871574298008
320.629454612072;60.894486194111
320.651063876466;60.7559494519867
320.672673140859;60.5613804989555
320.694282405253;60.3106945107514
320.715891669646;60.0354440055217
320.73750093404;59.7481636632623
320.759110198433;59.436993855922
320.780719462827;59.0994057487585
320.802328727221;58.7665464224271
320.823937991614;58.4620473186649
320.845547256008;58.1858856833753
320.867156520401;57.9334886024521
320.888765784795;57.7021976134731
320.910375049188;57.4901901147731
320.931984313582;57.2920611340936
320.953593577976;57.0996661561283
320.975202842369;56.9075895391955
320.996812106763;56.7086344266556
321.018421371156;56.4942436186689
321.04003063555;56.2624026358868
321.061639899943;56.0112265062921
321.083249164337;55.7282964100975
321.104858428731;55.4051184136234
321.126467693124;55.0512259159781
321.148076957518;54.6726658224134
321.169686221911;54.2684063001028
321.191295486305;53.8455456628248
321.212904750699;53.415716203103
321.234514015092;52.9723996866084
321.256123279486;52.5014412533579
321.277732543879;52.0089664677514
321.299341808273;51.5223527833397
321.320951072666;51.0701473155461
321.34256033706;50.6463316472354
321.364169601454;50.2361688478586
321.385778865847;49.8337671091659
321.407388130241;49.4390767243811
321.428997394634;49.059670586143
321.450606659028;48.7077749849337
321.472215923422;48.3887282372849
321.493825187815;48.1062750129531
321.515434452209;47.871117141707
321.537043716602;47.6928126731726
321.558652980996;47.5724640064785
321.580262245389;47.5096086908956
321.601871509783;47.5123636437634
321.623480774177;47.5916213648028
321.64509003857;47.7406324181277
321.666699302964;47.9311537854652
321.688308567357;48.1315804067697
321.709917831751;48.3285244355043
321.731527096144;48.5126193715584
321.753136360538;48.666575187054
321.774745624932;48.7740847121086
321.796354889325;48.8270910559401
321.817964153719;48.8139432789467
321.839573418112;48.7282965508575
321.861182682506;48.5681477197216
321.882791946899;48.3409888004092
321.904401211293;48.0563865636972
321.926010475687;47.7229663926715
321.94761974008;47.3577584127169
321.969229004474;46.9884859885896
321.990838268867;46.6464208444775
322.012447533261;46.3243611585805
322.034056797655;46.013135592634
322.055666062048;45.7151325488554
322.077275326442;45.4457203870554
322.098884590835;45.1972453246815
322.120493855229;44.9689431609558
322.142103119622;44.7601266610699
322.163712384016;44.5657413342544
322.18532164841;44.3768879722597
322.206930912803;44.1977468682428
322.228540177197;44.0415375460578
322.25014944159;43.911437235362
322.271758705984;43.8072416058004
322.293367970377;43.7238792664168
322.314977234771;43.6615447834135
322.336586499165;43.628144486675
322.358195763558;43.6364134039347
322.379805027952;43.682865525485
322.401414292345;43.7428680418701
322.423023556739;43.8105834614915
322.444632821133;43.8877717998739
322.466242085526;43.964664244803
322.48785134992;44.0265463722554
322.509460614313;44.0648049133818
322.531069878707;44.075198199495
322.5526791431;44.0574083904636
322.574288407494;44.0206162767076
322.595897671888;43.9706522759054
322.617506936281;43.899179917517
322.639116200675;43.7968661370368
322.660725465068;43.6715877861803
322.682334729462;43.5352332042922
322.703943993855;43.3837281982082
322.725553258249;43.2102282230676
322.747162522643;43.0226169252423
322.768771787036;42.838878071868
322.79038105143;42.644524927849
322.811990315823;42.4292474700351
322.833599580217;42.2002874107053
322.855208844611;41.9583082682725
322.876818109004;41.6913909169577
322.898427373398;41.391830445134
322.920036637791;41.058065566204
322.941645902185;40.7014235509026
322.963255166578;40.3183946577304
322.984864430972;39.894915628056
323.006473695366;39.432359819746
323.028082959759;38.9484432718828
323.049692224153;38.4750825400432
323.071301488546;38.0149821874735
323.09291075294;37.5600604900945
323.114520017333;37.1097247753312
323.136129281727;36.6603588794153
323.157738546121;36.2419879326673
323.179347810514;35.8802528701204
323.200957074908;35.5681398058639
323.222566339301;35.2892653844214
323.244175603695;35.0316791151956
323.265784868089;34.7907916144102
323.287394132482;34.5808155047381
323.309003396876;34.3965313547191
323.330612661269;34.2283377388203
323.352221925663;34.0776543097409
323.373831190056;33.9375383309728
323.39544045445;33.8034317637999
323.417049718844;33.6702953863188
323.438658983237;33.547096981653
323.460268247631;33.4612096761646
323.481877512024;33.4108413722135
323.503486776418;33.3864456261621
323.525096040811;33.3774355365322
323.546705305205;33.3873350834967
323.568314569599;33.4235256563566
323.589923833992;33.4912323948313
323.611533098386;33.5918461033177
323.633142362779;33.7224972923952
323.654751627173;33.881080369742
323.676360891567;34.0594306222397
323.69797015596;34.2525666699513
323.719579420354;34.4672703216588
323.741188684747;34.7168357514854
323.762797949141;34.994218186172
323.784407213534;35.277510562513
323.806016477928;35.5583019886273
323.827625742322;35.8271842277059
323.849235006715;36.0686897903562
323.870844271109;36.2749807710521
323.892453535502;36.4420598389735
323.914062799896;36.5627374201766
323.935672064289;36.6303395856657
323.957281328683;36.6352391785384
323.978890593077;36.5777627606239
324.00049985747;36.4691902645359
324.022109121864;36.3122354465238
324.043718386257;36.1069857405234
324.065327650651;35.8592494761311
324.086936915045;35.581626710574
324.108546179438;35.2856618305992
324.130155443832;34.9773583087758
324.151764708225;34.6669592270556
324.173373972619;34.347558677931
324.194983237012;34.0035499880243
324.216592501406;33.6323119667672
324.2382017658;33.2404822770215
324.259811030193;32.8319072093165
324.281420294587;32.4043490333398
324.30302955898;31.9750593351437
324.324638823374;31.5593209579782
324.346248087767;31.1584286208355
324.367857352161;30.7661412278579
324.389466616555;30.3831436245513
324.411075880948;30.0362852115854
324.432685145342;29.7599854756883
324.454294409735;29.5561216476932
324.475903674129;29.4223156858409
324.497512938523;29.3561309023569
324.519122202916;29.3444412644952
324.54073146731;29.3701632494357
324.562340731703;29.4109943876424
324.583949996097;29.4545373662229
324.60555926049;29.4867311015104
324.627168524884;29.5013568989982
324.648777789278;29.4841640903761
324.670387053671;29.4103609485183
324.691996318065;29.2647156673919
324.713605582458;29.0587326806857
324.735214846852;28.8131867618981
324.756824111245;28.5219527809615
324.778433375639;28.1761524779984
