Name;BF_ESR_01_7202s_X_gon_180dg_result

Recipe
Accumulations;5;Number of accumulations
RetryCount;0;Number of retries on error
AbortOnError;True;Abort on error
EnableQFactorMeasurement;False;Enable/Disable q-Factor measurement
Bfrom;313;B from
Bto;363;B to
SweepTime;60;Sweep time
Modulation;0.2;Modulation
ModulationFreq;100;Modulation
BHoldEnabled;False;B hold enabled
BHold;0;B hold
MicrowavePower;2;Microwave power
MarkerEnabled;False;
MarkerStartField;0;
MarkerEndField;0;
Mode;;
KineticGFact;0;
KineticTotalTransientTime;0;
KineticTimeResolution;0;
TempFrom;5;
TempUseSlope;False;
TempTo;5;
TempdT;1;
TempSetupTime;0;
GonFrom;0;
GonTo;180;
GonSteps;20;
XRayEnabled;False;
XRayTime;3;
XRayVoltage;40;
XRayCurrent;0.5;
UVEnabled;False;
UVIntensity;0;
UVTime;0;
UVLeadTime;0;
UVWavelength;0;
PowSweepFrom;1;
PowSweepTo;5;
PowSweepSteps;5;
AmpModSweepFrom;0;
AmpModSweepTo;1;
AmpModSweepSteps;10;
ExtTriggerEnabled;False;
ExtTrigLeadTime;0;
ExtTrigOnTime;5;

Meas
BField [mT];MW_Absorption []
313.021613006592;124.692891276922
313.043217671151;124.771128957495
313.064822335711;124.78438917975
313.086427000271;124.721642314722
313.108031664831;124.58959744435
313.12963632939;124.398777291991
313.15124099395;124.1501561457
313.17284565851;123.834616626735
313.194450323069;123.452917932435
313.216054987629;123.02498018863
313.237659652189;122.576234580114
313.259264316749;122.125835975793
313.280868981308;121.682331897238
313.302473645868;121.250973225996
313.324078310428;120.848359348455
313.345682974987;120.502374963204
313.367287639547;120.212877011422
313.388892304107;119.968832663079
313.410496968666;119.768791229156
313.432101633226;119.608401667506
313.453706297786;119.479811726975
313.475310962345;119.376823538762
313.496915626905;119.30283166977
313.518520291465;119.264885144273
313.540124956025;119.258008527949
313.561729620584;119.27184106475
313.583334285144;119.302739551312
313.604938949704;119.365998503684
313.626543614263;119.474382063593
313.648148278823;119.634334596171
313.669752943383;119.839536976774
313.691357607943;120.074488215967
313.712962272502;120.32842676826
313.734566937062;120.614978638072
313.756171601622;120.930814432885
313.777776266181;121.254120740505
313.799380930741;121.572037580668
313.820985595301;121.87836233397
313.84259025986;122.166578112874
313.86419492442;122.431660592438
313.88579958898;122.67788113862
313.907404253539;122.906708904681
313.929008918099;123.115507589153
313.950613582659;123.30638261852
313.972218247219;123.484928441857
313.993822911778;123.657244521583
314.015427576338;123.818789850519
314.037032240898;123.95781800944
314.058636905457;124.071404901003
314.080241570017;124.170874228727
314.101846234577;124.265985380198
314.123450899137;124.349409239985
314.145055563696;124.404582272571
314.166660228256;124.428594338193
314.188264892816;124.428413769097
314.209869557375;124.406556439784
314.231474221935;124.362403214662
314.253078886495;124.291490723575
314.274683551054;124.190063456589
314.296288215614;124.061789986594
314.317892880174;123.917761693616
314.339497544733;123.771253952628
314.361102209293;123.620383850034
314.382706873853;123.453755345511
314.404311538413;123.265716898854
314.425916202972;123.055084482433
314.447520867532;122.814485078429
314.469125532092;122.543283210007
314.490730196651;122.242957857296
314.512334861211;121.914456000631
314.533939525771;121.558461135643
314.555544190331;121.180997605634
314.57714885489;120.790824530908
314.59875351945;120.382638051833
314.62035818401;119.967233449231
314.641962848569;119.573219847104
314.663567513129;119.214643146201
314.685172177689;118.886066483844
314.706776842248;118.590233765071
314.728381506808;118.34601279982
314.749986171368;118.152950568181
314.771590835928;117.997817841489
314.793195500487;117.877193349307
314.814800165047;117.8113242027
314.836404829607;117.799000811072
314.858009494166;117.826002829926
314.879614158726;117.88590616282
314.901218823286;117.9790978728
314.922823487845;118.10080556716
314.944428152405;118.235589420258
314.966032816965;118.371968910598
314.987637481525;118.504762788607
315.009242146084;118.63473277853
315.030846810644;118.758373296157
315.052451475204;118.866314338505
315.074056139763;118.966095546639
315.095660804323;119.06769729283
315.117265468883;119.167052033976
315.138870133442;119.266155706014
315.160474798002;119.369688106081
315.182079462562;119.478576831699
315.203684127122;119.586473053308
315.225288791681;119.68724650889
315.246893456241;119.779593525395
315.268498120801;119.856581827102
315.29010278536;119.903883881757
315.31170744992;119.91509734386
315.33331211448;119.889027768741
315.354916779039;119.821656812228
315.376521443599;119.703799831848
315.398126108159;119.52985441079
315.419730772719;119.302839679376
315.441335437278;119.029596430633
315.462940101838;118.723340663725
315.484544766398;118.394833223836
315.506149430957;118.038004983716
315.527754095517;117.65123486622
315.549358760077;117.243210569461
315.570963424636;116.829033740306
315.592568089196;116.423186879364
315.614172753756;116.043079454509
315.635777418316;115.696197731559
315.657382082875;115.377173409913
315.678986747435;115.10217712459
315.700591411995;114.88560531527
315.722196076554;114.728048079371
315.743800741114;114.621408972842
315.765405405674;114.558823500687
315.787010070233;114.531024259776
315.808614734793;114.526193276664
315.830219399353;114.536945014569
315.851824063913;114.556316303366
315.873428728472;114.577686092797
315.895033393032;114.591923328844
315.916638057592;114.590206066444
315.938242722151;114.566890009676
315.959847386711;114.527519196433
315.981452051271;114.477099296605
316.00305671583;114.419871806343
316.02466138039;114.360049120312
316.04626604495;114.3024996338
316.06787070951;114.259078107572
316.089475374069;114.239346710159
316.111080038629;114.251623964702
316.132684703189;114.297143770134
316.154289367748;114.368716171209
316.175894032308;114.459192020702
316.197498696868;114.562188840309
316.219103361427;114.670955555937
316.240708025987;114.780259072938
316.262312690547;114.886377817327
316.283917355107;114.98218828797
316.305522019666;115.057297720763
316.327126684226;115.103681483757
316.348731348786;115.121762926397
316.370336013345;115.120376639886
316.391940677905;115.110979780343
316.413545342465;115.104087058859
316.435150007024;115.107144279514
316.456754671584;115.122167538627
316.478359336144;115.150622503123
316.499964000704;115.195662557027
316.521568665263;115.260523587525
316.543173329823;115.347148085013
316.564777994383;115.455190304736
316.586382658942;115.580792763699
316.607987323502;115.716816645533
316.629591988062;115.854097781948
316.651196652621;115.98739612754
316.672801317181;116.116499056651
316.694405981741;116.245444127634
316.716010646301;116.377145392542
316.73761531086;116.51014872144
316.75921997542;116.644441873129
316.78082463998;116.779778788135
316.802429304539;116.916702430345
316.824033969099;117.060733762656
316.845638633659;117.213339721086
316.867243298218;117.367045741363
316.888847962778;117.518994385536
316.910452627338;117.674203922583
316.932057291898;117.833211114087
316.953661956457;117.98762601292
316.975266621017;118.130719660042
316.996871285577;118.255775975467
317.018475950136;118.352537188178
317.040080614696;118.422637475647
317.061685279256;118.474856022167
317.083289943815;118.503302795305
317.104894608375;118.492059487619
317.126499272935;118.426011765364
317.148103937495;118.300637626379
317.169708602054;118.116164115919
317.191313266614;117.872580317499
317.212917931174;117.561568666521
317.234522595733;117.180419714352
317.256127260293;116.740765275983
317.277731924853;116.270085308675
317.299336589412;115.79083319809
317.320941253972;115.313347120645
317.342545918532;114.830779457478
317.364150583092;114.342556946962
317.385755247651;113.852734080659
317.407359912211;113.380081000371
317.428964576771;112.966363742218
317.45056924133;112.625048140458
317.47217390589;112.343174608229
317.49377857045;112.120142035462
317.515383235009;111.961567427481
317.536987899569;111.860777270132
317.558592564129;111.802514776133
317.580197228689;111.776511501601
317.601801893248;111.77637432124
317.623406557808;111.786503208478
317.645011222368;111.787430514462
317.666615886927;111.765857559285
317.688220551487;111.710599533952
317.709825216047;111.616225775904
317.731429880606;111.475372177015
317.753034545166;111.278476424134
317.774639209726;111.026450531025
317.796243874286;110.733773581238
317.817848538845;110.412077800338
317.839453203405;110.06031325391
317.861057867965;109.670095032923
317.882662532524;109.260757620024
317.904267197084;108.864470710614
317.925871861644;108.493745243026
317.947476526204;108.153459485449
317.969081190763;107.844964444661
317.990685855323;107.567765298075
318.012290519883;107.332072421897
318.033895184442;107.147255576449
318.055499849002;107.015268981422
318.077104513562;106.927465407507
318.098709178121;106.874393519135
318.120313842681;106.855156232004
318.141918507241;106.867137937307
318.1635231718;106.898614054247
318.18512783636;106.93970723196
318.20673250092;106.985187201954
318.22833716548;107.031171499912
318.249941830039;107.075026974052
318.271546494599;107.117355249081
318.293151159159;107.161940780183
318.314755823718;107.21040013936
318.336360488278;107.264397267327
318.357965152838;107.336033521695
318.379569817398;107.437307302004
318.401174481957;107.562926049083
318.422779146517;107.699244825418
318.444383811077;107.840019674205
318.465988475636;107.989722339863
318.487593140196;108.149920696216
318.509197804756;108.324025742087
318.530802469315;108.521099298191
318.552407133875;108.727091199055
318.574011798435;108.912304404035
318.595616462994;109.066876174653
318.617221127554;109.196069941543
318.638825792114;109.30132579481
318.660430456674;109.371632633232
318.682035121233;109.396527162326
318.703639785793;109.368184019831
318.725244450353;109.278348085874
318.746849114912;109.124287964555
318.768453779472;108.921442857241
318.790058444032;108.684166668893
318.811663108591;108.409522773101
318.833267773151;108.084772549821
318.854872437711;107.699207439211
318.876477102271;107.271870717907
318.89808176683;106.8358639912
318.91968643139;106.41174245573
318.94129109595;106.017054629506
318.962895760509;105.654402223155
318.984500425069;105.311285125841
319.006105089629;104.984396400516
319.027709754188;104.693903354411
319.049314418748;104.447586209598
319.070919083308;104.242770856165
319.092523747868;104.06903346602
319.114128412427;103.91597318711
319.135733076987;103.780200130948
319.157337741547;103.658412853613
319.178942406106;103.551722050333
319.200547070666;103.462769031603
319.222151735226;103.397098617544
319.243756399786;103.35507798849
319.265361064345;103.327160541587
319.286965728905;103.321304857264
319.308570393465;103.341913310263
319.330175058024;103.383009050355
319.351779722584;103.425706768232
319.373384387144;103.453429822598
319.394989051703;103.463984754229
319.416593716263;103.452521339057
319.438198380823;103.418584985803
319.459803045383;103.360096839623
319.481407709942;103.266767159051
319.503012374502;103.129478100385
319.524617039062;102.938284543847
319.546221703621;102.697440625595
319.567826368181;102.416364678057
319.589431032741;102.100683535135
319.6110356973;101.756530833414
319.63264036186;101.390241419822
319.65424502642;101.023660843698
319.675849690979;100.671273112614
319.697454355539;100.334346934157
319.719059020099;100.017009240584
319.740663684659;99.7348439184207
319.762268349218;99.5119725012118
319.783873013778;99.3411718508211
319.805477678338;99.2308195520382
319.827082342897;99.2050141912281
319.848687007457;99.2696889706595
319.870291672017;99.4174414502885
319.891896336577;99.6356146640385
319.913501001136;99.9116595754852
319.935105665696;100.239045060441
319.956710330256;100.613449397
319.978314994815;101.02018075634
319.999919659375;101.440507360615
320.021524323935;101.860565396258
320.043128988494;102.274209512708
320.064733653054;102.681473542719
320.086338317614;103.082688085267
320.107942982173;103.4725428442
320.129547646733;103.837822054709
320.151152311293;104.166681332411
320.172756975853;104.467330675655
320.194361640412;104.750703459414
320.215966304972;105.016025087893
320.237570969532;105.26250660447
320.259175634091;105.488313407658
320.280780298651;105.693693617331
320.302384963211;105.878795581411
320.323989627771;106.039180478749
320.34559429233;106.171528911697
320.36719895689;106.275902130519
320.38880362145;106.349374863577
320.410408286009;106.381758481879
320.432012950569;106.363530202854
320.453617615129;106.296425737824
320.475222279688;106.181212321538
320.496826944248;106.011013589281
320.518431608808;105.778350486007
320.540036273367;105.483888297766
320.561640937927;105.132229526396
320.583245602487;104.7428696566
320.604850267047;104.332566619622
320.626454931606;103.903132209351
320.648059596166;103.460520492793
320.669664260726;103.036050235225
320.691268925285;102.65821004147
320.712873589845;102.335076667421
320.734478254405;102.073458840517
320.756082918965;101.885939560649
320.777687583524;101.776329827675
320.799292248084;101.736425708568
320.820896912644;101.753108130692
320.842501577203;101.815873411812
320.864106241763;101.913757455965
320.885710906323;102.025117518023
320.907315570882;102.126679262649
320.928920235442;102.212923432098
320.950524900002;102.281503171327
320.972129564562;102.318919821717
320.993734229121;102.307736539499
321.015338893681;102.23717888191
321.036943558241;102.103272334799
321.0585482228;101.904293872879
321.08015288736;101.638094911614
321.10175755192;101.301422813333
321.123362216479;100.904458034007
321.144966881039;100.465618276436
321.166571545599;99.9837774975471
321.188176210159;99.446675624452
321.209780874718;98.8493295295549
321.231385539278;98.2154109219347
321.252990203838;97.5647593103408
321.274594868397;96.8900432405755
321.296199532957;96.1866155828897
321.317804197517;95.464319796066
321.339408862076;94.7367791734464
321.361013526636;94.0187447193979
321.382618191196;93.3174889954404
321.404222855756;92.6370296853108
321.425827520315;91.9940225605593
321.447432184875;91.4219304667029
321.469036849435;90.9350170809978
321.490641513994;90.531451481529
321.512246178554;90.2190311880187
321.533850843114;90.0183381889705
321.555455507673;89.9306571706219
321.577060172233;89.9362808384521
321.598664836793;90.0216714901511
321.620269501353;90.1852257966909
321.641874165912;90.4262977201865
321.663478830472;90.7283485997921
321.685083495032;91.0561297922746
321.706688159591;91.3858425503527
321.728292824151;91.7119378362478
321.749897488711;92.0302915108904
321.77150215327;92.3244550905915
321.79310681783;92.5823486839876
321.81471148239;92.8016227295227
321.83631614695;92.9887202078034
321.857920811509;93.1539881732302
321.879525476069;93.305397432616
321.901130140629;93.4520263481025
321.922734805188;93.6094588833043
321.944339469748;93.798601859872
321.965944134308;94.0352357586257
321.987548798867;94.3015048704023
322.009153463427;94.5810403771637
322.030758127987;94.8884088841257
322.052362792547;95.2284214103725
322.073967457106;95.5826358163193
322.095572121666;95.9257265802028
322.117176786226;96.250954026856
322.138781450785;96.5598213816044
322.160386115345;96.8521618760534
322.181990779905;97.1246072812092
322.203595444464;97.3664823887977
322.225200109024;97.5724322142839
322.246804773584;97.7548238657636
322.268409438144;97.9306764022588
322.290014102703;98.1061120884212
322.311618767263;98.2711063621468
322.333223431823;98.4242582060054
322.354828096382;98.5701988675838
322.376432760942;98.7034727492491
322.398037425502;98.816958054102
322.419642090061;98.926542052978
322.441246754621;99.0412509632849
322.462851419181;99.1510680780158
322.484456083741;99.2483988822935
322.5060607483;99.333023730668
322.52766541286;99.3988689060529
322.54927007742;99.438156429964
322.570874741979;99.4569131408757
322.592479406539;99.4593275452618
322.614084071099;99.444242836507
322.635688735658;99.4120092507146
322.657293400218;99.3613105067213
322.678898064778;99.2917634644791
322.700502729338;99.1980345041746
322.722107393897;99.0859561675471
322.743712058457;98.9713629145796
322.765316723017;98.8443907676308
322.786921387576;98.693964764562
322.808526052136;98.5226948427091
322.830130716696;98.3282429030057
322.851735381255;98.1029166466626
322.873340045815;97.8734223008009
322.894944710375;97.6592040313916
322.916549374935;97.449961755035
322.938154039494;97.2394362448286
322.959758704054;97.0286621643341
322.981363368614;96.8222773160859
323.002968033173;96.6274339522235
323.024572697733;96.4512222205417
323.046177362293;96.2930583791236
323.067782026852;96.1487727862104
323.089386691412;96.0249658331259
323.110991355972;95.9325362666976
323.132596020532;95.862261745192
323.154200685091;95.7948835926398
323.175805349651;95.7189265219747
323.197410014211;95.6398464358595
323.21901467877;95.5581484133259
323.24061934333;95.4782646358648
323.26222400789;95.4096872316005
323.283828672449;95.3518075230464
323.305433337009;95.3033164912555
323.327038001569;95.2638147833644
323.348642666129;95.2375816751588
323.370247330688;95.2331664669209
323.391851995248;95.2548477913053
323.413456659808;95.29518764841
323.435061324367;95.3476929948999
323.456665988927;95.4084225991285
323.478270653487;95.4804174475091
323.499875318046;95.5727493776882
323.521479982606;95.6858241812893
323.543084647166;95.8095988918418
323.564689311726;95.9348673446138
323.586293976285;96.0609818932092
323.607898640845;96.188210031372
323.629503305405;96.3154710760207
323.651107969964;96.4420753741303
323.672712634524;96.5687576487368
323.694317299084;96.6989252005061
323.715921963644;96.8273645836992
323.737526628203;96.9381259446694
323.759131292763;97.022781776595
323.780735957323;97.0863540969635
323.802340621882;97.1308060977128
323.823945286442;97.1470262138356
323.845549951002;97.122538321525
323.867154615561;97.0512544673266
323.888759280121;96.9294938993817
323.910363944681;96.743246858286
323.93196860924;96.488490950307
323.9535732738;96.1811484789237
323.97517793836;95.8232266470506
323.99678260292;95.4202266621153
324.018387267479;94.9763946297032
324.039991932039;94.4949129752068
324.061596596599;93.9850571965418
324.083201261158;93.4634701703547
324.104805925718;92.9337027387709
324.126410590278;92.3891798996659
324.148015254838;91.8554199017986
324.169619919397;91.3580236031875
324.191224583957;90.9016637554612
324.212829248517;90.4685887034254
324.234433913076;90.0417654254777
324.256038577636;89.637536743682
324.277643242196;89.2750516373799
324.299247906755;88.9446635825301
324.320852571315;88.6240401595737
324.342457235875;88.3088336248803
324.364061900434;88.0083062847088
324.385666564994;87.7091012730902
324.407271229554;87.3956895924544
324.428875894114;87.0639962184762
324.450480558673;86.7042266803995
324.472085223233;86.3064531851413
324.493689887793;85.8719770430743
324.515294552352;85.4138917072145
324.536899216912;84.9328765347135
324.558503881472;84.4076374474104
324.580108546032;83.8379603708384
324.601713210591;83.272778904197
324.623317875151;82.7186994392243
324.644922539711;82.1629377065329
324.66652720427;81.5871562474725
324.68813186883;80.9843207692967
324.70973653339;80.3705431363102
324.731341197949;79.7580611545312
324.752945862509;79.1488956629864
324.774550527069;78.5546626993217
