Name;BF_ESR_01_90s_X_gon_100dg_result

Recipe
Accumulations;5;Number of accumulations
RetryCount;0;Number of retries on error
AbortOnError;True;Abort on error
EnableQFactorMeasurement;False;Enable/Disable q-Factor measurement
Bfrom;313;B from
Bto;363;B to
SweepTime;60;Sweep time
Modulation;0.2;Modulation
ModulationFreq;100;Modulation
BHoldEnabled;False;B hold enabled
BHold;0;B hold
MicrowavePower;2;Microwave power
MarkerEnabled;False;
MarkerStartField;0;
MarkerEndField;0;
Mode;;
KineticGFact;0;
KineticTotalTransientTime;0;
KineticTimeResolution;0;
TempFrom;5;
TempUseSlope;False;
TempTo;5;
TempdT;1;
TempSetupTime;0;
GonFrom;0;
GonTo;180;
GonSteps;20;
XRayEnabled;False;
XRayTime;3;
XRayVoltage;40;
XRayCurrent;0.5;
UVEnabled;False;
UVIntensity;0;
UVTime;0;
UVLeadTime;0;
UVWavelength;0;
PowSweepFrom;1;
PowSweepTo;5;
PowSweepSteps;5;
AmpModSweepFrom;0;
AmpModSweepTo;1;
AmpModSweepSteps;10;
ExtTriggerEnabled;False;
ExtTrigLeadTime;0;
ExtTrigOnTime;5;

Meas
BField [mT];MW_Absorption []
313.014216384888;56.221069985986
313.035830840305;56.5184215157128
313.057445295723;56.9402021869923
313.07905975114;57.3441270673893
313.100674206558;57.7321406300657
313.122288661975;58.1051823952772
313.143903117392;58.4757260971543
313.16551757281;58.8421416608546
313.187132028227;59.1964308979903
313.208746483645;59.5434962505584
313.230360939062;59.9178840178973
313.25197539448;60.3289443285467
313.273589849897;60.7631726639772
313.295204305315;61.2097070933785
313.316818760732;61.6597158928754
313.33843321615;62.1119826450361
313.360047671567;62.5614847969065
313.381662126984;62.9995682779712
313.403276582402;63.4343821807694
313.424891037819;63.8751279915059
313.446505493237;64.306355638688
313.468119948654;64.6968215069829
313.489734404072;65.0541634154415
313.511348859489;65.4061670831407
313.532963314907;65.7569400693021
313.554577770324;66.0863557554772
313.576192225741;66.4087401810984
313.597806681159;66.7378614358837
313.619421136576;67.0815293175241
313.641035591994;67.4477228937471
313.662650047411;67.8404249992617
313.684264502829;68.2534417937427
313.705878958246;68.6747970115911
313.727493413664;69.1082032819454
313.749107869081;69.5618810489597
313.770722324498;70.0279005542677
313.792336779916;70.4881627991288
313.813951235333;70.938038941412
313.835565690751;71.3800194372187
313.857180146168;71.8131936825782
313.878794601586;72.2397307322949
313.900409057003;72.6726742445232
313.922023512421;73.1253742405457
313.943637967838;73.5908214761991
313.965252423256;74.057691291614
313.986866878673;74.5384365392654
314.00848133409;75.046713304202
314.030095789508;75.5772072775945
314.051710244925;76.1153279213953
314.073324700343;76.6695576094683
314.09493915576;77.2349954511909
314.116553611178;77.7919856211003
314.138168066595;78.3464320302761
314.159782522013;78.9092887122251
314.18139697743;79.4593086108557
314.203011432847;79.9751080668704
314.224625888265;80.4567148264904
314.246240343682;80.9045485658433
314.2678547991;81.3125718474844
314.289469254517;81.6582687576946
314.311083709935;81.9401333492362
314.332698165352;82.1591397590524
314.35431262077;82.3167372101171
314.375927076187;82.4202918019788
314.397541531605;82.4770413424391
314.419155987022;82.4855762517274
314.440770442439;82.451041513012
314.462384897857;82.380426542452
314.483999353274;82.2715562478695
314.505613808692;82.131824398774
314.527228264109;81.9747365289205
314.548842719527;81.8182014397415
314.570457174944;81.6611507835946
314.592071630362;81.4993610704237
314.613686085779;81.345329924064
314.635300541196;81.2148454584816
314.656914996614;81.1007533748829
314.678529452031;80.98957725748
314.700143907449;80.8814831896116
314.721758362866;80.7816452452375
314.743372818284;80.6922767821275
314.764987273701;80.6152596982915
314.786601729119;80.5496304179038
314.808216184536;80.5008691537739
314.829830639954;80.4850384571477
314.851445095371;80.5091227455921
314.873059550788;80.571127705889
314.894674006206;80.6623330337499
314.916288461623;80.7837111694033
314.937902917041;80.9516782671241
314.959517372458;81.1856996832322
314.981131827876;81.4927809061568
315.002746283293;81.8785423778091
315.024360738711;82.3522376242818
315.045975194128;82.873872095507
315.067589649545;83.3883219544502
315.089204104963;83.8865409811431
315.11081856038;84.3862638258132
315.132433015798;84.9081171930246
315.154047471215;85.4488877379199
315.175661926633;85.9641229365512
315.19727638205;86.4283936786385
315.218890837468;86.8424563129971
315.240505292885;87.2071439267321
315.262119748303;87.5288000198771
315.28373420372;87.8091436284336
315.305348659137;88.0441906748912
315.326963114555;88.2412061212399
315.348577569972;88.4116462403045
315.37019202539;88.5475112315967
315.391806480807;88.6520042828544
315.413420936225;88.7383198027176
315.435035391642;88.8205933614065
315.45664984706;88.9034747295502
315.478264302477;88.9855637780315
315.499878757894;89.0677432667815
315.521493213312;89.1509050154934
315.543107668729;89.2380120609049
315.564722124147;89.3361913785959
315.586336579564;89.4555465578334
315.607951034982;89.5655459740163
315.629565490399;89.6534860355222
315.651179945817;89.72419563341
315.672794401234;89.7790583219338
315.694408856652;89.8104507278887
315.716023312069;89.8083839089504
315.737637767486;89.769550389436
315.759252222904;89.6958695491278
315.780866678321;89.5890073833102
315.802481133739;89.4529492215931
315.824095589156;89.2921960908841
315.845710044574;89.1085986635307
315.867324499991;88.9053854326539
315.888938955409;88.6926418902729
315.910553410826;88.4823905690915
315.932167866243;88.2913904030865
315.953782321661;88.1383396692415
315.975396777078;88.0233350617434
315.997011232496;87.932754819399
316.018625687913;87.864069537301
316.040240143331;87.8304782414031
316.061854598748;87.8368669417645
316.083469054166;87.8713365086494
316.105083509583;87.9163329895093
316.126697965001;87.961991620705
316.148312420418;88.0013694261473
316.169926875835;88.0234494417541
316.191541331253;88.0195333508156
316.21315578667;87.9926369138255
316.234770242088;87.9435103656125
316.256384697505;87.8568550076255
316.277999152923;87.7270333856243
316.29961360834;87.5715981107061
316.321228063758;87.4032207952229
316.342842519175;87.2255095355325
316.364456974592;87.0444536937635
316.38607143001;86.8640449018855
316.407685885427;86.6879237164866
316.429300340845;86.5224593882638
316.450914796262;86.3852945087604
316.47252925168;86.2927667500967
316.494143707097;86.2490084948069
316.515758162515;86.2478138379981
316.537372617932;86.2880349549548
316.55898707335;86.3752193133048
316.580601528767;86.505240513298
316.602215984184;86.6564835558632
316.623830439602;86.8119308226043
316.645444895019;86.9647584691626
316.667059350437;87.1195155805799
316.688673805854;87.2792641703606
316.710288261272;87.4315281628995
316.731902716689;87.5582174767988
316.753517172107;87.6505917763901
316.775131627524;87.7098798757774
316.796746082941;87.7374822818338
316.818360538359;87.7363728974178
316.839974993776;87.7169604283011
316.861589449194;87.6845394882356
316.883203904611;87.6394901763483
316.904818360029;87.5863743254252
316.926432815446;87.5409297620275
316.948047270864;87.5081069464807
316.969661726281;87.4841793851286
316.991276181698;87.466255996888
317.012890637116;87.4546652444542
317.034505092533;87.4492547336714
317.056119547951;87.4641706801899
317.077734003368;87.5083295041545
317.099348458786;87.578333576986
317.120962914203;87.6688049587559
317.142577369621;87.7729200805054
317.164191825038;87.8914958325999
317.185806280456;88.0285723638234
317.207420735873;88.2004262961871
317.22903519129;88.4314521063831
317.250649646708;88.7362819112656
317.272264102125;89.1024555798308
317.293878557543;89.5184320350985
317.31549301296;89.9792695215156
317.337107468378;90.4965744681704
317.358721923795;91.0815504751706
317.380336379213;91.7239738653628
317.40195083463;92.4079775094959
317.423565290048;93.1291861354333
317.445179745465;93.8670447348464
317.466794200882;94.5846705446376
317.4884086563;95.2604989820204
317.510023111717;95.8982794025504
317.531637567135;96.4991269549624
317.553252022552;97.0476438747407
317.57486647797;97.5420870802475
317.596480933387;97.9803200905435
317.618095388805;98.3609943359217
317.639709844222;98.6895099842724
317.661324299639;98.9648129712646
317.682938755057;99.182493153978
317.704553210474;99.3482275710683
317.726167665892;99.4720448817014
317.747782121309;99.5665212859404
317.769396576727;99.6419699771421
317.791011032144;99.7042935038671
317.812625487562;99.7571126325775
317.834239942979;99.8052942867045
317.855854398397;99.8506583440264
317.877468853814;99.892680362047
317.899083309231;99.9300178521697
317.920697764649;99.9630777326044
317.942312220066;99.9946261965739
317.963926675484;100.022146404033
317.985541130901;100.040220757086
318.007155586319;100.051878089194
318.028770041736;100.066755067369
318.050384497154;100.087762511988
318.071998952571;100.11647992938
318.093613407988;100.15947917999
318.115227863406;100.230053569558
318.136842318823;100.32758333558
318.158456774241;100.444318061703
318.180071229658;100.596480041896
318.201685685076;100.786883931764
318.223300140493;101.016752405188
318.244914595911;101.285329140835
318.266529051328;101.581508673171
318.288143506745;101.896461614962
318.309757962163;102.226816664567
318.33137241758;102.575894698915
318.352986872998;102.921418605128
318.374601328415;103.235708616327
318.396215783833;103.508065446504
318.41783023925;103.742168601531
318.439444694668;103.931549071459
318.461059150085;104.068765204158
318.482673605503;104.151379773531
318.50428806092;104.185018359206
318.525902516337;104.181008445848
318.547516971755;104.145452976224
318.569131427172;104.080905894779
318.59074588259;103.991906745769
318.612360338007;103.887371692336
318.633974793425;103.77968050521
318.655589248842;103.687461726908
318.67720370426;103.620518759018
318.698818159677;103.587727110801
318.720432615094;103.58958028537
318.742047070512;103.626069429648
318.763661525929;103.700262691915
318.785275981347;103.813654016401
318.806890436764;103.955821268429
318.828504892182;104.115252073024
318.850119347599;104.290123797006
318.871733803017;104.487587341114
318.893348258434;104.717129275295
318.914962713852;104.972294421676
318.936577169269;105.24372321255
318.958191624686;105.536722595878
318.979806080104;105.865873300437
319.001420535521;106.235481709811
319.023034990939;106.639012675711
319.044649446356;107.072857401831
319.066263901774;107.545366925101
319.087878357191;108.034646335037
319.109492812609;108.511944792148
319.131107268026;108.96874535318
319.152721723444;109.399880462487
319.174336178861;109.804463593417
319.195950634278;110.187552307891
319.217565089696;110.541775990326
319.239179545113;110.852357994651
319.260794000531;111.12413082283
319.282408455948;111.364802799076
319.304022911366;111.574916163133
319.325637366783;111.758920573793
319.347251822201;111.921039565438
319.368866277618;112.058493409181
319.390480733035;112.168238920354
319.412095188453;112.249640868583
319.43370964387;112.304025719417
319.455324099288;112.33272709096
319.476938554705;112.333884120602
319.498553010123;112.304384270151
319.52016746554;112.248725725313
319.541781920958;112.178127321794
319.563396376375;112.09804519741
319.585010831792;112.008059515621
319.60662528721;111.912809530743
319.628239742627;111.824354919952
319.649854198045;111.756643219288
319.671468653462;111.720961378024
319.69308310888;111.730766296267
319.714697564297;111.795152209415
319.736312019715;111.923815771762
319.757926475132;112.119573858764
319.77954093055;112.375464489857
319.801155385967;112.688064607537
319.822769841384;113.046651785387
319.844384296802;113.436137453422
319.865998752219;113.850272867892
319.887613207637;114.294626181063
319.909227663054;114.768591338381
319.930842118472;115.263676731597
319.952456573889;115.769597179331
319.974071029307;116.284340699976
319.995685484724;116.816037005317
320.017299940141;117.349598116906
320.038914395559;117.860589507257
320.060528850976;118.335602868091
320.082143306394;118.780654277623
320.103757761811;119.218452779205
320.125372217229;119.633296260485
320.146986672646;120.009944278356
320.168601128064;120.347405589709
320.190215583481;120.649435495085
320.211830038899;120.921950905428
320.233444494316;121.174499601075
320.255058949733;121.415497190661
320.276673405151;121.654771364641
320.298287860568;121.903477714451
320.319902315986;122.145274745501
320.341516771403;122.358800900757
320.363131226821;122.533914972981
320.384745682238;122.665384234141
320.406360137656;122.74373998239
320.427974593073;122.756688830543
320.44958904849;122.698556412672
320.471203503908;122.571443299929
320.492817959325;122.376737915585
320.514432414743;122.116584244174
320.53604687016;121.7967830107
320.557661325578;121.433767752429
320.579275780995;121.057350506093
320.600890236413;120.689265672345
320.62250469183;120.334299489784
320.644119147248;119.992444468708
320.665733602665;119.677599963999
320.687348058082;119.409693008424
320.7089625135;119.197257861313
320.730576968917;119.034368672368
320.752191424335;118.904781039512
320.773805879752;118.794687298281
320.79542033517;118.694257907268
320.817034790587;118.588732105184
320.838649246005;118.458372383424
320.860263701422;118.281671575285
320.881878156839;118.052124549938
320.903492612257;117.785342563503
320.925107067674;117.482859291564
320.946721523092;117.131331413248
320.968335978509;116.720666191355
320.989950433927;116.26570429816
321.011564889344;115.780665885365
321.033179344762;115.262757088886
321.054793800179;114.720423675884
321.076408255597;114.182047214369
321.098022711014;113.677185818227
321.119637166431;113.21055828539
321.141251621849;112.769429816381
321.162866077266;112.343049164832
321.184480532684;111.924325552112
321.206094988101;111.516036801484
321.227709443519;111.128051038847
321.249323898936;110.759316217434
321.270938354354;110.417134212878
321.292552809771;110.123224293532
321.314167265188;109.883941576301
321.335781720606;109.690703734186
321.357396176023;109.535949657772
321.379010631441;109.408063776143
321.400625086858;109.299267561983
321.422239542276;109.21903092652
321.443853997693;109.177806382807
321.465468453111;109.173548763263
321.487082908528;109.191532171755
321.508697363945;109.223546178204
321.530311819363;109.276808730928
321.55192627478;109.353292801104
321.573540730198;109.444994062829
321.595155185615;109.547190818751
321.616769641033;109.663000317924
321.63838409645;109.791724661992
321.659998551868;109.92626019452
321.681613007285;110.063494021712
321.703227462703;110.199983018054
321.72484191812;110.329396151831
321.746456373537;110.449886261354
321.768070828955;110.560345619526
321.789685284372;110.658675676363
321.81129973979;110.737252454064
321.832914195207;110.795230205421
321.854528650625;110.835961606341
321.876143106042;110.861868735476
321.89775756146;110.871757119273
321.919372016877;110.870086547105
321.940986472295;110.86249610911
321.962600927712;110.845968484972
321.984215383129;110.811230398708
322.005829838547;110.746203646148
322.027444293964;110.646996604927
322.049058749382;110.52158504813
322.070673204799;110.372465382755
322.092287660217;110.191371711555
322.113902115634;109.962056738823
322.135516571052;109.681579424113
322.157131026469;109.37660799655
322.178745481886;109.058998225475
322.200359937304;108.725300744309
322.221974392721;108.379098604847
322.243588848139;108.034167650257
322.265203303556;107.693142576639
322.286817758974;107.358769923854
322.308432214391;107.043731395927
322.330046669809;106.760254383078
322.351661125226;106.513279280479
322.373275580644;106.29941642964
322.394890036061;106.113336502323
322.416504491478;105.947287551013
322.438118946896;105.786576960919
322.459733402313;105.62084641029
322.481347857731;105.442643862788
322.502962313148;105.246561605014
322.524576768566;105.028055002766
322.546191223983;104.783793862689
322.567805679401;104.510399426815
322.589420134818;104.208453426609
322.611034590235;103.886454814318
322.632649045653;103.547564753626
322.65426350107;103.1954699781
322.675877956488;102.850376419575
322.697492411905;102.525443128926
322.719106867323;102.222696360528
322.74072132274;101.94297885879
322.762335778158;101.688641449926
322.783950233575;101.467408430397
322.805564688992;101.282809542834
322.82717914441;101.137238079393
322.848793599827;101.036217080914
322.870408055245;100.981340667429
322.892022510662;100.960476720906
322.91363696608;100.96837805089
322.935251421497;101.003054428682
322.956865876915;101.069331715687
322.978480332332;101.173173709891
323.00009478775;101.302110870849
323.021709243167;101.440634262915
323.043323698584;101.592852226086
323.064938154002;101.778896558134
323.086552609419;102.004694333094
323.108167064837;102.258223887267
323.129781520254;102.537845335083
323.151395975672;102.841317298748
323.173010431089;103.161918202475
323.194624886507;103.499161424798
323.216239341924;103.864384778666
323.237853797341;104.260000104183
323.259468252759;104.662732889392
323.281082708176;105.041680916702
323.302697163594;105.38671656434
323.324311619011;105.717441836785
323.345926074429;106.037813136311
323.367540529846;106.333219258924
323.389154985264;106.579687018007
323.410769440681;106.755208102953
323.432383896099;106.849311226962
323.453998351516;106.862490875669
323.475612806933;106.797860158168
323.497227262351;106.647845604509
323.518841717768;106.390648565508
323.540456173186;106.015436242413
323.562070628603;105.55686868368
323.583685084021;105.033927947876
323.605299539438;104.448610465442
323.626913994856;103.814521640457
323.648528450273;103.157636228845
323.670142905691;102.482223597845
323.691757361108;101.766074098051
323.713371816525;101.00517138651
323.734986271943;100.246091363045
323.75660072736;99.5189810470509
323.778215182778;98.8157300625348
323.799829638195;98.1267025794522
323.821444093613;97.4479233087406
323.84305854903;96.7766257128561
323.864673004448;96.1158808087122
323.886287459865;95.4588705248069
323.907901915282;94.801851045691
323.9295163707;94.1483742542334
323.951130826117;93.4980296156535
323.972745281535;92.8449510480541
323.994359736952;92.1831765975065
324.01597419237;91.5120649398942
324.037588647787;90.8241621678529
324.059203103205;90.1127087085476
324.080817558622;89.3774681549646
324.102432014039;88.6243086854336
324.124046469457;87.8587000642235
324.145660924874;87.0763224940864
324.167275380292;86.2745157616196
324.188889835709;85.4692801698341
324.210504291127;84.6628047502208
324.232118746544;83.8548683273112
324.253733201962;83.0396921530132
324.275347657379;82.2008469307192
324.296962112797;81.3452362351154
324.318576568214;80.47293898175
324.340191023631;79.5723225084787
324.361805479049;78.6397955392198
324.383419934466;77.7003868890793
324.405034389884;76.776839617656
324.426648845301;75.8633509066501
324.448263300719;74.9510908601068
324.469877756136;74.0466303793834
324.491492211554;73.1707363976623
324.513106666971;72.3209192792746
324.534721122388;71.4699833220895
324.556335577806;70.5978030606858
324.577950033223;69.7009852374613
324.599564488641;68.7891565305078
324.621178944058;67.8808275519859
324.642793399476;66.9775288211571
324.664407854893;66.0585323732358
324.686022310311;65.1082357341522
324.707636765728;64.1395621511098
324.729251221146;63.1758672058595
324.750865676563;62.2421744448277
