Name;BF_ESR_01_14400s_y_gon_160dg_result

Recipe
Accumulations;5;Number of accumulations
RetryCount;0;Number of retries on error
AbortOnError;True;Abort on error
EnableQFactorMeasurement;False;Enable/Disable q-Factor measurement
Bfrom;313;B from
Bto;363;B to
SweepTime;60;Sweep time
Modulation;0.2;Modulation
ModulationFreq;100;Modulation
BHoldEnabled;False;B hold enabled
BHold;0;B hold
MicrowavePower;2;Microwave power
MarkerEnabled;False;
MarkerStartField;0;
MarkerEndField;0;
Mode;;
KineticGFact;0;
KineticTotalTransientTime;0;
KineticTimeResolution;0;
TempFrom;5;
TempUseSlope;False;
TempTo;5;
TempdT;1;
TempSetupTime;0;
GonFrom;0;
GonTo;180;
GonSteps;20;
XRayEnabled;False;
XRayTime;3;
XRayVoltage;40;
XRayCurrent;0.5;
UVEnabled;False;
UVIntensity;0;
UVTime;0;
UVLeadTime;0;
UVWavelength;0;
PowSweepFrom;1;
PowSweepTo;5;
PowSweepSteps;5;
AmpModSweepFrom;0;
AmpModSweepTo;1;
AmpModSweepSteps;10;
ExtTriggerEnabled;False;
ExtTrigLeadTime;0;
ExtTrigOnTime;5;

Meas
BField [mT];MW_Absorption []
313.016524658203;61.6493081621585
313.038139319073;61.4294797973208
313.059753979944;61.1260181780853
313.081368640814;60.7691487359179
313.102983301684;60.378356742241
313.124597962554;59.9609761278242
313.146212623425;59.5242896730877
313.167827284295;59.0668610227386
313.189441945165;58.5979312621894
313.211056606035;58.1282772353936
313.232671266906;57.6771704606278
313.254285927776;57.2624715071784
313.275900588646;56.898008508947
313.297515249516;56.5983102514902
313.319129910387;56.3702723274641
313.340744571257;56.2143322624246
313.362359232127;56.1333781710521
313.383973892997;56.1277840795964
313.405588553868;56.1930704791399
313.427203214738;56.3204184287715
313.448817875608;56.4930203892974
313.470432536478;56.6867206064098
313.492047197349;56.882502113881
313.513661858219;57.0645520518519
313.535276519089;57.2194590599564
313.556891179959;57.3313475285025
313.57850584083;57.3917215012874
313.6001205017;57.4003297573028
313.62173516257;57.3573467886514
313.64334982344;57.2713708843322
313.66496448431;57.1605957943444
313.686579145181;57.0381021242497
313.708193806051;56.91513850347
313.729808466921;56.801271868626
313.751423127792;56.7024747987332
313.773037788662;56.6234828556326
313.794652449532;56.5736639572185
313.816267110402;56.5579554174934
313.837881771272;56.5773440771895
313.859496432143;56.6259424764195
313.881111093013;56.7003831651509
313.902725753883;56.8027273655043
313.924340414753;56.936253016121
313.945955075624;57.0961264315446
313.967569736494;57.2739540269226
313.989184397364;57.4662583258935
314.010799058234;57.6678982764569
314.032413719105;57.8674748764774
314.054028379975;58.058546164938
314.075643040845;58.2429660192891
314.097257701715;58.4186030602948
314.118872362586;58.5761720893276
314.140487023456;58.7086674712032
314.162101684326;58.8130509924432
314.183716345196;58.8885317786358
314.205331006067;58.9358370613455
314.226945666937;58.957118263916
314.248560327807;58.9515083830523
314.270174988677;58.9185829416568
314.291789649548;58.8590788112078
314.313404310418;58.7725615345801
314.335018971288;58.6538765291965
314.356633632158;58.5066633610605
314.378248293029;58.355087343146
314.399862953899;58.2057550352734
314.421477614769;58.0510537757037
314.443092275639;57.8828036365018
314.46470693651;57.7040553974718
314.48632159738;57.5154538686763
314.50793625825;57.3248035057304
314.52955091912;57.1391823696501
314.551165579991;56.9596838345634
314.572780240861;56.7796258016488
314.594394901731;56.594251850733
314.616009562601;56.4022802346933
314.637624223472;56.2113682692708
314.659238884342;56.0350859372535
314.680853545212;55.8793305416622
314.702468206082;55.743279761904
314.724082866953;55.6199603737414
314.745697527823;55.5094498351483
314.767312188693;55.4191943283978
314.788926849563;55.3523447627047
314.810541510434;55.301022708479
314.832156171304;55.2524744688576
314.853770832174;55.1953833937347
314.875385493044;55.1255865516955
314.897000153914;55.0436001966473
314.918614814785;54.949191772706
314.940229475655;54.8435350586167
314.961844136525;54.7260619044097
314.983458797395;54.5950709812601
315.005073458266;54.4522757697574
315.026688119136;54.3075276764084
315.048302780006;54.1714853324053
315.069917440876;54.0450900445631
315.091532101747;53.927593598791
315.113146762617;53.8220323045486
315.134761423487;53.7298455552635
315.156376084357;53.6508718363764
315.177990745228;53.5853790372759
315.199605406098;53.5352053754973
315.221220066968;53.4935259686162
315.242834727838;53.4590371585362
315.264449388709;53.4307729302583
315.286064049579;53.4013473307707
315.307678710449;53.3606542187074
315.329293371319;53.3052156558068
315.35090803219;53.2309800314551
315.37252269306;53.1333590024066
315.39413735393;53.010333641007
315.4157520148;52.8602637061054
315.437366675671;52.6732613764847
315.458981336541;52.4260618620381
315.480595997411;52.1135570935848
315.502210658281;51.7701875250397
315.523825319152;51.4166299242494
315.545439980022;51.0351195604239
315.567054640892;50.6397177605449
315.588669301762;50.2539887169503
315.610283962633;49.8786339492167
315.631898623503;49.5165962155557
315.653513284373;49.1649091168
315.675127945243;48.8227770884288
315.696742606114;48.5015642261663
315.718357266984;48.2005444439776
315.739971927854;47.9182830249064
315.761586588724;47.6478463226514
315.783201249595;47.3985488490571
315.804815910465;47.1847099497307
315.826430571335;47.006728167632
315.848045232205;46.8678016182988
315.869659893075;46.7683841899099
315.891274553946;46.7018130625531
315.912889214816;46.6614976121742
315.934503875686;46.6464495976783
315.956118536556;46.6558296959007
315.977733197427;46.6758059686564
315.999347858297;46.6857115787371
316.020962519167;46.6886527608697
316.042577180037;46.6948866326305
316.064191840908;46.6959384284313
316.085806501778;46.6781108968256
316.107421162648;46.6373305110188
316.129035823518;46.5853948363371
316.150650484389;46.5339383912896
316.172265145259;46.4886539369988
316.193879806129;46.4555589629855
316.215494466999;46.4418688251169
316.23710912787;46.4484549151054
316.25872378874;46.4844246544201
316.28033844961;46.5653196376539
316.30195311048;46.6936181096859
316.323567771351;46.8637068034198
316.345182432221;47.0796105468511
316.366797093091;47.335805669999
316.388411753961;47.6028906244284
316.410026414832;47.8584531585623
316.431641075702;48.0983412048663
316.453255736572;48.3149818167086
316.474870397442;48.4966419273588
316.496485058313;48.6276624649591
316.518099719183;48.6878301722743
316.539714380053;48.662449418481
316.561329040923;48.5557210008303
316.582943701794;48.3799981921931
316.604558362664;48.1491376024118
316.626173023534;47.8710170233577
316.647787684404;47.5603519967756
316.669402345275;47.2345583038248
316.691017006145;46.907435430897
316.712631667015;46.5882337374934
316.734246327885;46.2941948000937
316.755860988756;46.0499404187529
316.777475649626;45.8651206588781
316.799090310496;45.7320123768161
316.820704971366;45.6389393496815
316.842319632237;45.5831904015804
316.863934293107;45.5686276341151
316.885548953977;45.577946226457
316.907163614847;45.593130269118
316.928778275717;45.5979032006256
316.950392936588;45.5810005282837
316.972007597458;45.5364913765051
316.993622258328;45.4641022414539
317.015236919199;45.3701551511501
317.036851580069;45.2651410471962
317.058466240939;45.1512263767405
317.080080901809;45.0244897518025
317.101695562679;44.8883388401067
317.12331022355;44.7580937979158
317.14492488442;44.6758490749337
317.16653954529;44.6582060953632
317.18815420616;44.6802813146213
317.209768867031;44.7250762940124
317.231383527901;44.7892872411105
317.252998188771;44.8790042500445
317.274612849641;45.0089133552172
317.296227510512;45.1703866833563
317.317842171382;45.348406343142
317.339456832252;45.5301368721038
317.361071493122;45.7098289797091
317.382686153993;45.8900913706385
317.404300814863;46.0700664737811
317.425915475733;46.2386674624607
317.447530136603;46.3750029981134
317.469144797474;46.4703093026718
317.490759458344;46.531293991617
317.512374119214;46.563137111194
317.533988780084;46.5525703679811
317.555603440955;46.4812072360098
317.577218101825;46.3368808377196
317.598832762695;46.1285426349578
317.620447423565;45.8768527325665
317.642062084436;45.5889327276719
317.663676745306;45.2705079039456
317.685291406176;44.9410567498161
317.706906067046;44.6131887846608
317.728520727917;44.2869989208427
317.750135388787;43.9596621323888
317.771750049657;43.6380754457212
317.793364710527;43.3536636666356
317.814979371398;43.1229853197862
317.836594032268;42.9415491447943
317.858208693138;42.8189268899886
317.879823354008;42.7649543409462
317.901438014879;42.7744303495788
317.923052675749;42.8387103226142
317.944667336619;42.9479282976664
317.966281997489;43.0876160860501
317.98789665836;43.2458828319253
318.00951131923;43.4168001161823
318.0311259801;43.5879532186843
318.05274064097;43.7397615302994
318.074355301841;43.8650298410086
318.095969962711;43.9649261647547
318.117584623581;44.0362156680732
318.139199284451;44.0754850140897
318.160813945321;44.0854412835827
318.182428606192;44.0736842673639
318.204043267062;44.0452730295412
318.225657927932;44.0058170906479
318.247272588802;43.9681839119103
318.268887249673;43.9432225870113
318.290501910543;43.9312438396944
318.312116571413;43.9331813270326
318.333731232283;43.955915349626
318.355345893154;44.0075365644908
318.376960554024;44.0943968978464
318.398575214894;44.2102172343379
318.420189875764;44.3424538661973
318.441804536635;44.488024500928
318.463419197505;44.6458675219678
318.485033858375;44.8106697668821
318.506648519245;44.9728593970725
318.528263180116;45.1274554070444
318.549877840986;45.2713501303197
318.571492501856;45.3982816688443
318.593107162726;45.5006769278451
318.614721823597;45.5642395825273
318.636336484467;45.5920234848831
318.657951145337;45.6059494482885
318.679565806207;45.6149841283832
318.701180467078;45.6062461901024
318.722795127948;45.579654237014
318.744409788818;45.5433950855324
318.766024449688;45.499821364972
318.787639110559;45.4488582978391
318.809253771429;45.3966198942817
318.830868432299;45.3496529230025
318.852483093169;45.3025055333362
318.87409775404;45.2476028257641
318.89571241491;45.1835137244956
318.91732707578;45.1198176902157
318.93894173665;45.0539726563293
318.960556397521;44.9814197027522
318.982171058391;44.9003178854214
319.003785719261;44.8148331508185
319.025400380131;44.7277790532916
319.047015041002;44.6370312719723
319.068629701872;44.5461168086295
319.090244362742;44.4592072958048
319.111859023612;44.3788280043264
319.133473684483;44.3051032295779
319.155088345353;44.2429040006899
319.176703006223;44.1943062114782
319.198317667093;44.1556770814926
319.219932327963;44.120841701883
319.241546988834;44.0870082026903
319.263161649704;44.0512815630991
319.284776310574;44.0071797536319
319.306390971445;43.9503351839286
319.328005632315;43.8801575349682
319.349620293185;43.7947558344095
319.371234954055;43.689912781884
319.392849614925;43.5615553054487
319.414464275796;43.4085916093745
319.436078936666;43.2389548080632
319.457693597536;43.0637796508712
319.479308258406;42.8856080247359
319.500922919277;42.7107326942736
319.522537580147;42.5561953734636
319.544152241017;42.4336499427328
319.565766901887;42.3440372856569
319.587381562758;42.2838634750204
319.608996223628;42.256511725077
319.630610884498;42.2592402203956
319.652225545368;42.2819122647159
319.673840206239;42.3313819773329
319.695454867109;42.4032995100304
319.717069527979;42.480837078949
319.738684188849;42.5495754094386
319.76029884972;42.6122124077846
319.78191351059;42.670982731975
319.80352817146;42.723168425547
319.82514283233;42.7656600947065
319.846757493201;42.8033821727237
319.868372154071;42.8516241294258
319.889986814941;42.9184972041607
319.911601475811;43.0019089621906
319.933216136682;43.1009340985513
319.954830797552;43.227280573128
319.976445458422;43.3919353133932
319.998060119292;43.5958833522
320.019674780163;43.8254703102189
320.041289441033;44.06745876259
320.062904101903;44.316900699958
320.084518762773;44.5627922662957
320.106133423644;44.7897877634771
320.127748084514;44.988552155567
320.149362745384;45.1574856634943
320.170977406254;45.2916535296767
320.192592067125;45.3775079428153
320.214206727995;45.3970072014434
320.235821388865;45.3443986264067
320.257436049735;45.2343713121998
320.279050710606;45.0794526576407
320.300665371476;44.8880900889483
320.322280032346;44.6752129785365
320.343894693216;44.4534744960345
320.365509354087;44.2268258150758
320.387124014957;43.9941372527661
320.408738675827;43.7616120886688
320.430353336697;43.560138457322
320.451967997567;43.4165176207402
320.473582658438;43.3185129278179
320.495197319308;43.2528740467266
320.516811980178;43.2056176498744
320.538426641048;43.1640922290862
320.560041301919;43.1337397408826
320.581655962789;43.1158026341792
320.603270623659;43.11227754077
320.624885284529;43.1125162246323
320.6464999454;43.0868071620083
320.66811460627;43.0242911655855
320.68972926714;42.935608407274
320.71134392801;42.8208550113052
320.732958588881;42.671905243506
320.754573249751;42.4889656979637
320.776187910621;42.2802375434461
320.797802571491;42.0603314446869
320.819417232362;41.8452611346817
320.841031893232;41.6359174453382
320.862646554102;41.4267794481081
320.884261214972;41.2196900835879
320.905875875843;41.0208278169911
320.927490536713;40.8379727197561
320.949105197583;40.6729966198658
320.970719858453;40.5175590331604
320.992334519324;40.3717662991598
321.013949180194;40.2401235414643
321.035563841064;40.1199851720692
321.057178501934;40.0019440397715
321.078793162805;39.8826037644967
321.100407823675;39.7734213314846
321.122022484545;39.6847186749441
321.143637145415;39.6161561621531
321.165251806286;39.5686715604699
321.186866467156;39.5489300017947
321.208481128026;39.5671131463532
321.230095788896;39.6291475374436
321.251710449767;39.7245904787344
321.273325110637;39.8403132606943
321.294939771507;39.9713421514719
321.316554432377;40.1129073666868
321.338169093248;40.2516689272299
321.359783754118;40.3741171214132
321.381398414988;40.4750806012681
321.403013075858;40.5496165044321
321.424627736729;40.5901462198343
321.446242397599;40.5962291251591
321.467857058469;40.5745578195475
321.489471719339;40.5302784095762
321.511086380209;40.4672983521793
321.53270104108;40.3905801780943
321.55431570195;40.3026529492868
321.57593036282;40.2030087922307
321.59754502369;40.1003025958371
321.619159684561;40.0118056168507
321.640774345431;39.9416197386946
321.662389006301;39.8752094978967
321.684003667171;39.8103200369038
321.705618328042;39.7532878403782
321.727232988912;39.706373643541
321.748847649782;39.6709536686776
321.770462310652;39.6502557798041
321.792076971523;39.636784461758
321.813691632393;39.6212528870388
321.835306293263;39.6024328054796
321.856920954133;39.5766173751281
321.878535615004;39.5377798018465
321.900150275874;39.4807126894328
321.921764936744;39.3994184802542
321.943379597614;39.2941548864967
321.964994258485;39.1723310271053
321.986608919355;39.024634386086
322.008223580225;38.8392379773548
322.029838241095;38.6148420059423
322.051452901966;38.3499869606839
322.073067562836;38.0425845597943
322.094682223706;37.6979168416021
322.116296884576;37.3266669499282
322.137911545447;36.9305544203259
322.159526206317;36.5123827969746
322.181140867187;36.0878418059932
322.202755528057;35.6920846428767
322.224370188928;35.3475641241564
322.245984849798;35.0579762344662
322.267599510668;34.8315675113359
322.289214171538;34.6706799801017
322.310828832409;34.5754734195409
322.332443493279;34.536799173934
322.354058154149;34.5398934339694
322.375672815019;34.5723151991536
322.39728747589;34.6236101225367
322.41890213676;34.6863924504088
322.44051679763;34.7461394277909
322.4621314585;34.7970662804587
322.48374611937;34.8368584641774
322.505360780241;34.8641262019681
322.526975441111;34.8763551613504
322.548590101981;34.8737518137656
322.570204762852;34.8621003977747
322.591819423722;34.8529415106046
322.613434084592;34.8420185169872
322.635048745462;34.8248960192937
322.656663406332;34.7992304838974
322.678278067203;34.7657153382365
322.699892728073;34.7303257207632
322.721507388943;34.7004563237694
322.743122049813;34.6751725825751
322.764736710684;34.6406204087931
322.786351371554;34.6007775298108
322.807966032424;34.5654256035364
322.829580693294;34.5397512998273
322.851195354165;34.5262977706608
322.872810015035;34.5303667454548
322.894424675905;34.5534253744095
322.916039336775;34.5982915060491
322.937653997646;34.6599903948598
322.959268658516;34.7337797587115
322.980883319386;34.8216916152046
323.002497980256;34.9238938092682
323.024112641127;35.0292776855072
323.045727301997;35.13038703588
323.067341962867;35.2430641904748
323.088956623737;35.3831032129275
323.110571284608;35.5458803724645
323.132185945478;35.7129986867034
323.153800606348;35.8826325184362
323.175415267218;36.055611604571
323.197029928089;36.2354628331789
323.218644588959;36.4206002080318
323.240259249829;36.6177819133419
323.261873910699;36.8259645460632
323.28348857157;37.0169798200027
323.30510323244;37.1736445085885
323.32671789331;37.2955836662412
323.34833255418;37.3770970710367
323.369947215051;37.4054732943839
323.391561875921;37.3702422645622
323.413176536791;37.276361691582
323.434791197661;37.1297528557155
323.456405858532;36.930558707774
323.478020519402;36.6954187986114
323.499635180272;36.4383715450324
323.521249841142;36.1558539949528
323.542864502013;35.8398182575507
323.564479162883;35.4892795251618
323.586093823753;35.1155228368451
323.607708484623;34.7447912167168
323.629323145494;34.3919564692758
323.650937806364;34.0368581145258
323.672552467234;33.6738118469904
323.694167128104;33.3218987682343
323.715781788974;32.9846930586323
323.737396449845;32.6627376561082
323.759011110715;32.3572498209638
323.780625771585;32.0647061087161
323.802240432455;31.7907258754621
323.823855093326;31.5290358356003
323.845469754196;31.2813271495579
323.867084415066;31.0795292338862
323.888699075936;30.9364675989372
323.910313736807;30.8561986323631
323.931928397677;30.8331675173873
323.953543058547;30.8666080877504
323.975157719417;30.9563961813175
323.996772380288;31.0939777355171
324.018387041158;31.2563319200029
324.040001702028;31.4406281393435
324.061616362898;31.6643016574561
324.083231023769;31.9224133349846
324.104845684639;32.1821230579713
324.126460345509;32.4318291958096
324.148075006379;32.6697097671223
324.16968966725;32.9042726466572
324.19130432812;33.1451511575743
324.21291898899;33.3711456411095
324.23453364986;33.5725665660723
324.256148310731;33.7446091358458
324.277762971601;33.88451517406
324.299377632471;33.9954482115061
324.320992293341;34.0762469653395
324.342606954212;34.1176253816985
324.364221615082;34.1154740104682
324.385836275952;34.0756840875908
324.407450936822;33.9983574443946
324.429065597693;33.8864420142403
324.450680258563;33.7484223635153
324.472294919433;33.5937645941749
324.493909580303;33.4358009766402
324.515524241174;33.2944264124207
324.537138902044;33.1882541819082
324.558753562914;33.117408435986
324.580368223784;33.0875451167486
324.601982884655;33.111491530325
324.623597545525;33.1907076471961
324.645212206395;33.3147553046349
324.666826867265;33.4756286041965
324.688441528136;33.6689707996248
324.710056189006;33.8918041631214
324.731670849876;34.1365457365738
324.753285510746;34.3886872499024
324.774900171616;34.6307193528508
