Name;BF_ESR_01_90s_Y_gon_120dg_result

Recipe
Accumulations;5;Number of accumulations
RetryCount;0;Number of retries on error
AbortOnError;True;Abort on error
EnableQFactorMeasurement;False;Enable/Disable q-Factor measurement
Bfrom;313;B from
Bto;363;B to
SweepTime;60;Sweep time
Modulation;0.2;Modulation
ModulationFreq;100;Modulation
BHoldEnabled;False;B hold enabled
BHold;0;B hold
MicrowavePower;2;Microwave power
MarkerEnabled;False;
MarkerStartField;0;
MarkerEndField;0;
Mode;;
KineticGFact;0;
KineticTotalTransientTime;0;
KineticTimeResolution;0;
TempFrom;5;
TempUseSlope;False;
TempTo;5;
TempdT;1;
TempSetupTime;0;
GonFrom;0;
GonTo;180;
GonSteps;20;
XRayEnabled;False;
XRayTime;3;
XRayVoltage;40;
XRayCurrent;0.5;
UVEnabled;False;
UVIntensity;0;
UVTime;0;
UVLeadTime;0;
UVWavelength;0;
PowSweepFrom;1;
PowSweepTo;5;
PowSweepSteps;5;
AmpModSweepFrom;0;
AmpModSweepTo;1;
AmpModSweepSteps;10;
ExtTriggerEnabled;False;
ExtTrigLeadTime;0;
ExtTrigOnTime;5;

Meas
BField [mT];MW_Absorption []
313.034617538452;62.6226712804037
313.056223040122;62.0132829809147
313.077828541792;61.2877748941451
313.099434043462;60.4781187759155
313.121039545132;59.6191230566913
313.142645046802;58.7460361062063
313.164250548472;57.8785694728007
313.185856050142;57.0293632842717
313.207461551811;56.2348646528841
313.229067053481;55.5126245089936
313.250672555151;54.855509701037
313.272278056821;54.2769773281458
313.293883558491;53.7839077706604
313.315489060161;53.361399601592
313.337094561831;53.0009156602477
313.358700063501;52.7057194373021
313.380305565171;52.4720863262392
313.401911066841;52.2820695668679
313.423516568511;52.1167082075391
313.445122070181;51.9659396732809
313.46672757185;51.827569192618
313.48833307352;51.6988159165906
313.50993857519;51.577485757287
313.53154407686;51.4583178045242
313.55314957853;51.3438108467681
313.5747550802;51.2407523518608
313.59636058187;51.1506138122609
313.61796608354;51.0822195978372
313.63957158521;51.0423393663657
313.66117708688;51.0262651895806
313.68278258855;51.0326113971519
313.704388090219;51.0691275735821
313.725993591889;51.1363288283212
313.747599093559;51.2361191241212
313.769204595229;51.3636825692521
313.790810096899;51.5105690282546
313.812415598569;51.6631109510083
313.834021100239;51.8238892378475
313.855626601909;51.9952332424217
313.877232103579;52.1596659930893
313.898837605249;52.3014083307728
313.920443106919;52.4212478099623
313.942048608588;52.5173808578943
313.963654110258;52.592320720343
313.985259611928;52.6456131970832
314.006865113598;52.6762206262729
314.028470615268;52.6873970715091
314.050076116938;52.682360227955
314.071681618608;52.6641605022942
314.093287120278;52.6360380301963
314.114892621948;52.602309186156
314.136498123618;52.5594364818556
314.158103625288;52.5120351639415
314.179709126958;52.4652306636764
314.201314628627;52.4149372550371
314.222920130297;52.3609360595185
314.244525631967;52.3057808323478
314.266131133637;52.2514894828461
314.287736635307;52.197147746491
314.309342136977;52.1416575368089
314.330947638647;52.08661862557
314.352553140317;52.0336194878857
314.374158641987;51.9830016848336
314.395764143657;51.9358348036047
314.417369645327;51.8918461539046
314.438975146997;51.85178849977
314.460580648666;51.8124285746427
314.482186150336;51.7722765699215
314.503791652006;51.7295308400848
314.525397153676;51.6785421044178
314.547002655346;51.6106319561875
314.568608157016;51.5243522805965
314.590213658686;51.4283696751094
314.611819160356;51.3303160557061
314.633424662026;51.2341890805745
314.655030163696;51.146761002302
314.676635665366;51.0732148258319
314.698241167035;51.0192428991046
314.719846668705;50.9899443944365
314.741452170375;50.9925866893354
314.763057672045;51.0361112772474
314.784663173715;51.1249483667294
314.806268675385;51.2572180207788
314.827874177055;51.4193333322377
314.849479678725;51.5975893257812
314.871085180395;51.7834581722238
314.892690682065;51.9688410556985
314.914296183735;52.1384759445731
314.935901685405;52.2769943877219
314.957507187074;52.3766150729819
314.979112688744;52.4272448406302
315.000718190414;52.4219770364109
315.022323692084;52.3571085481085
315.043929193754;52.2343431638374
315.065534695424;52.0598481643476
315.087140197094;51.8355985974281
315.108745698764;51.5664796670564
315.130351200434;51.2712625794406
315.151956702104;50.97045456464
315.173562203774;50.6711720889042
315.195167705444;50.3826869561696
315.216773207113;50.118223401632
315.238378708783;49.8830800837649
315.259984210453;49.6762942216934
315.281589712123;49.5028168586888
315.303195213793;49.3786468357126
315.324800715463;49.3229020037942
315.346406217133;49.3353828932665
315.368011718803;49.3958035002171
315.389617220473;49.4848343585566
315.411222722143;49.5988534737259
315.432828223813;49.7408531284183
315.454433725482;49.9012510772091
315.476039227152;50.0579655103116
315.497644728822;50.1827397276118
315.519250230492;50.2693800718856
315.540855732162;50.3168066463499
315.562461233832;50.3222371456897
315.584066735502;50.2797698532538
315.605672237172;50.1827551249244
315.627277738842;50.0254977159652
315.648883240512;49.8096831981934
315.670488742182;49.5602936532866
315.692094243852;49.3064851946091
315.713699745521;49.0629807414721
315.735305247191;48.8307070481433
315.756910748861;48.6045343563457
315.778516250531;48.3907160622256
315.800121752201;48.2095752141849
315.821727253871;48.0675321155
315.843332755541;47.9755193231454
315.864938257211;47.9483216536385
315.886543758881;47.9740446401774
315.908149260551;48.0228662301577
315.929754762221;48.0818745211231
315.95136026389;48.1535578060249
315.97296576556;48.2382946985147
315.99457126723;48.3334758506765
316.0161767689;48.4297150074225
316.03778227057;48.5242461623133
316.05938777224;48.6184605770091
316.08099327391;48.7106498890209
316.10259877558;48.8038686058831
316.12420427725;48.8915772141448
316.14580977892;48.9684589820547
316.16741528059;49.0316924615945
316.189020782259;49.080160252942
316.210626283929;49.1118125879454
316.232231785599;49.120330819916
316.253837287269;49.1052862405113
316.275442788939;49.0782704904707
316.297048290609;49.0514463256365
316.318653792279;49.0311127967779
316.340259293949;49.0190195558707
316.361864795619;49.0145592666446
316.383470297289;49.0171762077037
316.405075798959;49.0272379961656
316.426681300629;49.0414124173675
316.448286802298;49.0533023256183
316.469892303968;49.0560292109165
316.491497805638;49.0413105319229
316.513103307308;48.9960089331355
316.534708808978;48.9080274225558
316.556314310648;48.7681750244509
316.577919812318;48.5715302055371
316.599525313988;48.3186918172569
316.621130815658;48.0191509706091
316.642736317328;47.6845691877762
316.664341818998;47.3103970408761
316.685947320668;46.8941796557805
316.707552822337;46.4482760399595
316.729158324007;45.983255802971
316.750763825677;45.5013833540695
316.772369327347;45.0099919517652
316.793974829017;44.5328883677408
316.815580330687;44.1029505934791
316.837185832357;43.7374925835793
316.858791334027;43.4291094793592
316.880396835697;43.1721448272078
316.902002337367;42.9723839861091
316.923607839037;42.8398173766367
316.945213340706;42.7639656716939
316.966818842376;42.7345416150687
316.988424344046;42.7436484536727
317.010029845716;42.7828680766303
317.031635347386;42.8365963882263
317.053240849056;42.8954619214641
317.074846350726;42.9566034370554
317.096451852396;43.0169681037004
317.118057354066;43.0720227322873
317.139662855736;43.120979294391
317.161268357406;43.1622477546425
317.182873859076;43.2004622184189
317.204479360745;43.2435352118692
317.226084862415;43.2819689395405
317.247690364085;43.2976586335144
317.269295865755;43.2922659466411
317.290901367425;43.2676517846152
317.312506869095;43.2316831927415
317.334112370765;43.1953134564244
317.355717872435;43.1712399185133
317.377323374105;43.1650888322071
317.398928875775;43.1802090727746
317.420534377445;43.2212632821246
317.442139879115;43.2954756086408
317.463745380784;43.4094827060712
317.485350882454;43.5507075714548
317.506956384124;43.7190926406852
317.528561885794;43.9282498681998
317.550167387464;44.1880562093898
317.571772889134;44.4935698474532
317.593378390804;44.8278931038508
317.614983892474;45.1781417987457
317.636589394144;45.5424527815448
317.658194895814;45.9204622178246
317.679800397484;46.3177477145711
317.701405899153;46.7423866017053
317.723011400823;47.197308788644
317.744616902493;47.6720207932193
317.766222404163;48.1523867876089
317.787827905833;48.6259890112182
317.809433407503;49.0885565443927
317.831038909173;49.5427090579035
317.852644410843;49.9795161302108
317.874249912513;50.3555302324736
317.895855414183;50.6420147990612
317.917460915853;50.8292446573424
317.939066417523;50.9019743161534
317.960671919192;50.8714552740712
317.982277420862;50.7430983948795
318.003882922532;50.5167041080532
318.025488424202;50.1922683281702
318.047093925872;49.7804250135074
318.068699427542;49.306079335835
318.090304929212;48.7895000002303
318.111910430882;48.2354583392128
318.133515932552;47.6479777457273
318.155121434222;47.0417757369183
318.176726935892;46.4578799144422
318.198332437561;45.9349947408422
318.219937939231;45.4728790433934
318.241543440901;45.0556629156669
318.263148942571;44.6878572282609
318.284754444241;44.3850641225656
318.306359945911;44.15051981896
318.327965447581;43.9690432585341
318.349570949251;43.8184991989684
318.371176450921;43.6829348181901
318.392781952591;43.5532839031216
318.414387454261;43.4223259691201
318.43599295593;43.2868193644603
318.4575984576;43.1484233213173
318.47920395927;43.0120015662108
318.50080946094;42.8807710666846
318.52241496261;42.7559813014296
318.54402046428;42.6431734706879
318.56562596595;42.5547646262717
318.58723146762;42.5046870927224
318.60883696929;42.4955347852527
318.63044247096;42.5280891061928
318.65204797263;42.6015287907207
318.6736534743;42.7044711828073
318.695258975969;42.8295645660589
318.716864477639;42.9726985095872
318.738469979309;43.1219437751593
318.760075480979;43.2555545603245
318.781680982649;43.3672166352592
318.803286484319;43.4627132754733
318.824891985989;43.5373235165149
318.846497487659;43.5822775228109
318.868102989329;43.5921802740707
318.889708490999;43.5681054459119
318.911313992669;43.5148684896961
318.932919494339;43.4358532762105
318.954524996008;43.3293303098868
318.976130497678;43.1930552227317
318.997735999348;43.0276712762869
319.019341501018;42.8444229964269
319.040947002688;42.6476703663395
319.062552504358;42.4274246114711
319.084158006028;42.1701301756157
319.105763507698;41.8920156592127
319.127369009368;41.6025140535546
319.148974511038;41.3092152947375
319.170580012708;41.020560133349
319.192185514377;40.7419261050491
319.213791016047;40.4858107805531
319.235396517717;40.2574817909381
319.257002019387;40.0474265178807
319.278607521057;39.860314181772
319.300213022727;39.6969763034122
319.321818524397;39.5478833151681
319.343424026067;39.4105318656217
319.365029527737;39.2872210044166
319.386635029407;39.173713648916
319.408240531077;39.0543989018491
319.429846032747;38.9277588162959
319.451451534416;38.8051694838197
319.473057036086;38.6740994918115
319.494662537756;38.5270618055715
319.516268039426;38.3756307182555
319.537873541096;38.2280632690066
319.559479042766;38.088259115785
319.581084544436;37.9593683585924
319.602690046106;37.8345787282329
319.624295547776;37.7105527449548
319.645901049446;37.5969626204441
319.667506551116;37.5070897309359
319.689112052786;37.4444269546322
319.710717554455;37.406606668646
319.732323056125;37.3894289638118
319.753928557795;37.3818288578666
319.775534059465;37.3776507098563
319.797139561135;37.3855932478274
319.818745062805;37.4075459606317
319.840350564475;37.4369120208622
319.861956066145;37.4697910655682
319.883561567815;37.5008019211105
319.905167069485;37.5330559302005
319.926772571155;37.576476743116
319.948378072824;37.6293307774449
319.969983574494;37.6797515053742
319.991589076164;37.7343459374452
320.013194577834;37.801705843822
320.034800079504;37.8735895388057
320.056405581174;37.9308364857233
320.078011082844;37.9505339699246
320.099616584514;37.9292369297668
320.121222086184;37.8788248169325
320.142827587854;37.8010323833451
320.164433089524;37.6910783141506
320.186038591193;37.5470154231732
320.207644092863;37.3686997579877
320.229249594533;37.1584431817557
320.250855096203;36.9176670487083
320.272460597873;36.6576065410755
320.294066099543;36.3864625689205
320.315671601213;36.1044242792012
320.337277102883;35.8150405526797
320.358882604553;35.5186036508798
320.380488106223;35.209902617302
320.402093607893;34.8876903597009
320.423699109563;34.5627060826781
320.445304611232;34.2458291662838
320.466910112902;33.9418423693042
320.488515614572;33.6548928033425
320.510121116242;33.3856721902493
320.531726617912;33.1357081460715
320.553332119582;32.910156385313
320.574937621252;32.7188630057231
320.596543122922;32.5679344120607
320.618148624592;32.4570690634811
320.639754126262;32.3901726996806
320.661359627932;32.3734402443805
320.682965129601;32.4074266425589
320.704570631271;32.4864159802885
320.726176132941;32.610751677428
320.747781634611;32.78675665063
320.769387136281;33.0174648779935
320.790992637951;33.3082300324295
320.812598139621;33.6667845208261
320.834203641291;34.0936335650312
320.855809142961;34.5859294964256
320.877414644631;35.1297764719382
320.899020146301;35.7233786745786
320.920625647971;36.3740577097081
320.94223114964;37.0672155318107
320.96383665131;37.7597290270291
320.98544215298;38.4370870119393
321.00704765465;39.0986111510561
321.02865315632;39.7224520024158
321.05025865799;40.2917077501752
321.07186415966;40.800533339848
321.09346966133;41.2303059958699
321.115075163;41.5672029009946
321.13668066467;41.8146205730976
321.15828616634;41.9786108630988
321.17989166801;42.060784016094
321.201497169679;42.0467756560267
321.223102671349;41.9217184874918
321.244708173019;41.6882665823644
321.266313674689;41.3816370596922
321.287919176359;41.0338986416336
321.309524678029;40.6519142565725
321.331130179699;40.2348860793655
321.352735681369;39.78817255483
321.374341183039;39.3248817656323
321.395946684709;38.8608289588348
321.417552186379;38.4079274763868
321.439157688048;37.969644279026
321.460763189718;37.5555923007435
321.482368691388;37.186699182312
321.503974193058;36.8686297086469
321.525579694728;36.592696853905
321.547185196398;36.362357125659
321.568790698068;36.1899816902568
321.590396199738;36.0852017846358
321.612001701408;36.0495322642567
321.633607203078;36.0806979938595
321.655212704748;36.1736424777448
321.676818206418;36.3200331493427
321.698423708087;36.5114786356503
321.720029209757;36.7502370054723
321.741634711427;37.0396133076758
321.763240213097;37.3671402684615
321.784845714767;37.7029532688073
321.806451216437;38.0298142357099
321.828056718107;38.3404287677201
321.849662219777;38.6355428001355
321.871267721447;38.9131985117524
321.892873223117;39.1402794581508
321.914478724787;39.271873313795
321.936084226457;39.3307751078444
321.957689728126;39.321742757367
321.979295229796;39.2461400672591
322.000900731466;39.0884540612877
322.022506233136;38.8304501346411
322.044111734806;38.4604269940796
322.065717236476;37.9785969358562
322.087322738146;37.3980544921025
322.108928239816;36.773392972784
322.130533741486;36.1279082452249
322.152139243156;35.4539272950398
322.173744744826;34.7493874734405
322.195350246495;34.0378181785125
322.216955748165;33.3288556318798
322.238561249835;32.6419589893074
322.260166751505;32.0124407490607
322.281772253175;31.4645670878475
322.303377754845;30.9926108907486
322.324983256515;30.5915353294162
322.346588758185;30.2588251570156
322.368194259855;30.0172890843372
322.389799761525;29.8790795085918
322.411405263195;29.8313993948329
322.433010764864;29.8539279284346
322.454616266534;29.9349208570911
322.476221768204;30.0784581453396
322.497827269874;30.2802965172686
322.519432771544;30.5324137070809
322.541038273214;30.8341234500151
322.562643774884;31.1888555430265
322.584249276554;31.5910511286785
322.605854778224;32.0031640188008
322.627460279894;32.4038106641075
322.649065781564;32.7940868397405
322.670671283234;33.1753455597944
322.692276784903;33.5391120201809
322.713882286573;33.869603025303
322.735487788243;34.1633925920121
322.757093289913;34.4269821122229
322.778698791583;34.6634451989627
322.800304293253;34.8716893807382
322.821909794923;35.0558791158472
322.843515296593;35.2257186066807
322.865120798263;35.3930730157419
322.886726299933;35.5615556201383
322.908331801603;35.7291916929467
322.929937303272;35.8947967902891
322.951542804942;36.0612598505937
322.973148306612;36.2313858642469
322.994753808282;36.4037953602838
323.016359309952;36.568355942144
323.037964811622;36.7125460418447
323.059570313292;36.8330280730668
323.081175814962;36.9385477822506
323.102781316632;37.0274799602933
323.124386818302;37.0922597510768
323.145992319972;37.1221175608278
323.167597821642;37.1089545703925
323.189203323311;37.061463351813
323.210808824981;36.9821983943151
323.232414326651;36.8748646080124
323.254019828321;36.7347087413917
323.275625329991;36.5603864613837
323.297230831661;36.3533991618897
323.318836333331;36.106147340957
323.340441835001;35.8083393834191
323.362047336671;35.4562630939055
323.383652838341;35.0639720259116
323.405258340011;34.6539804095604
323.426863841681;34.228713134677
323.44846934335;33.7749457927747
323.47007484502;33.2867800153586
323.49168034669;32.7745174135585
323.51328584836;32.2383023195414
323.53489135003;31.7031203979944
323.5564968517;31.2284510195803
323.57810235337;30.8198555784836
323.59970785504;30.463292531281
323.62131335671;30.1546014184666
323.64291885838;29.8967796944389
323.66452436005;29.6872659537396
323.686129861719;29.5267563950592
323.707735363389;29.4111905810171
323.729340865059;29.3392681464871
323.750946366729;29.2971246331812
323.772551868399;29.2732895506133
323.794157370069;29.2633256067698
323.815762871739;29.262987181021
323.837368373409;29.2710741610732
323.858973875079;29.2832384952244
323.880579376749;29.2954210052302
323.902184878419;29.3054283367252
323.923790380089;29.3041144617892
323.945395881758;29.2972066667247
323.967001383428;29.2950885645985
323.988606885098;29.2852946917617
324.010212386768;29.2606162694014
324.031817888438;29.234386113784
324.053423390108;29.2235502879476
324.075028891778;29.2362249667538
324.096634393448;29.2661843726111
324.118239895118;29.3126112367946
324.139845396788;29.3824284998939
324.161450898458;29.4818778535284
324.183056400128;29.6103274139139
324.204661901797;29.7657608110341
324.226267403467;29.9483857759345
324.247872905137;30.1623719824361
324.269478406807;30.4118688156
324.291083908477;30.6844291959305
324.312689410147;30.9675654931208
324.334294911817;31.2555504912809
324.355900413487;31.5438088507932
324.377505915157;31.8240657897987
324.399111416827;32.0951323392543
324.420716918497;32.3657735291005
324.442322420166;32.6301656756586
324.463927921836;32.8824058967267
324.485533423506;33.1177444601216
324.507138925176;33.3281208354818
324.528744426846;33.5140779053973
324.550349928516;33.678606314343
324.571955430186;33.8202801196188
324.593560931856;33.9486129943965
324.615166433526;34.0658868472691
324.636771935196;34.1607458603411
324.658377436866;34.2244959440696
324.679982938535;34.2619768218743
324.701588440205;34.2776657015347
324.723193941875;34.2729993897878
324.744799443545;34.2445143534866
324.766404945215;34.1811504401326
324.788010446885;34.0809079111492
