Name;BF_ESR_01_90s_Z_gon_180dg_result

Recipe
Accumulations;5;Number of accumulations
RetryCount;0;Number of retries on error
AbortOnError;True;Abort on error
EnableQFactorMeasurement;False;Enable/Disable q-Factor measurement
Bfrom;313;B from
Bto;363;B to
SweepTime;60;Sweep time
Modulation;0.2;Modulation
ModulationFreq;100;Modulation
BHoldEnabled;False;B hold enabled
BHold;0;B hold
MicrowavePower;2;Microwave power
MarkerEnabled;False;
MarkerStartField;0;
MarkerEndField;0;
Mode;;
KineticGFact;0;
KineticTotalTransientTime;0;
KineticTimeResolution;0;
TempFrom;5;
TempUseSlope;False;
TempTo;5;
TempdT;1;
TempSetupTime;0;
GonFrom;0;
GonTo;180;
GonSteps;20;
XRayEnabled;False;
XRayTime;3;
XRayVoltage;40;
XRayCurrent;0.5;
UVEnabled;False;
UVIntensity;0;
UVTime;0;
UVLeadTime;0;
UVWavelength;0;
PowSweepFrom;1;
PowSweepTo;5;
PowSweepSteps;5;
AmpModSweepFrom;0;
AmpModSweepTo;1;
AmpModSweepSteps;10;
ExtTriggerEnabled;False;
ExtTrigLeadTime;0;
ExtTrigOnTime;5;

Meas
BField [mT];MW_Absorption []
313.014865112305;41.802285514244
313.036481813623;41.6488225901937
313.058098514941;41.5501545293125
313.07971521626;41.5093642840957
313.101331917578;41.5285983885392
313.122948618897;41.6003351179767
313.144565320215;41.7183948479534
313.166182021533;41.8822033079848
313.187798722852;42.0842461484292
313.20941542417;42.3109046237777
313.231032125489;42.5466301019019
313.252648826807;42.7777422349199
313.274265528126;42.9963235162511
313.295882229444;43.2015867664489
313.317498930762;43.3913927378329
313.339115632081;43.5521118449765
313.360732333399;43.6762098144412
313.382349034717;43.7717944702119
313.403965736036;43.8529327648706
313.425582437354;43.9212749574816
313.447199138673;43.9681035790396
313.468815839991;44.0104776128492
313.49043254131;44.0696234439053
313.512049242628;44.1522074273684
313.533665943946;44.2474596437403
313.555282645265;44.3464151314926
313.576899346583;44.4593452768561
313.598516047902;44.5862116834624
313.62013274922;44.7264141830056
313.641749450538;44.8832811035125
313.663366151857;45.0472719852239
313.684982853175;45.1920630579781
313.706599554494;45.3008810405499
313.728216255812;45.3793811391424
313.74983295713;45.4290008957956
313.771449658449;45.4471992214524
313.793066359767;45.4354082894849
313.814683061086;45.398535700542
313.836299762404;45.3411250165051
313.857916463722;45.2692686990137
313.879533165041;45.185576202489
313.901149866359;45.0889527914368
313.922766567678;44.9815508906952
313.944383268996;44.8775479079311
313.965999970314;44.7855608512831
313.987616671633;44.7086238431852
314.009233372951;44.6439881181339
314.03085007427;44.5740497926916
314.052466775588;44.4917039171354
314.074083476906;44.404568530485
314.095700178225;44.317052377478
314.117316879543;44.2261949374343
314.138933580862;44.1376449982432
314.16055028218;44.0495091660653
314.182166983498;43.9669394118788
314.203783684817;43.8897551740805
314.225400386135;43.8210502638523
314.247017087454;43.7718298631847
314.268633788772;43.7414422655225
314.29025049009;43.7340116091213
314.311867191409;43.7730095312142
314.333483892727;43.8670316108263
314.355100594046;43.9935429340972
314.376717295364;44.1465908718092
314.398333996682;44.3354466082307
314.419950698001;44.5645448645577
314.441567399319;44.8140078877378
314.463184100638;45.0693547588512
314.484800801956;45.3486331563646
314.506417503274;45.670788658304
314.528034204593;46.0094484751109
314.549650905911;46.3481297545914
314.57126760723;46.6886593837325
314.592884308548;47.0214164552296
314.614501009866;47.3374838261484
314.636117711185;47.6333376012045
314.657734412503;47.9023036361954
314.679351113822;48.1406207633232
314.70096781514;48.345254654559
314.722584516458;48.5113097631963
314.744201217777;48.6308722004835
314.765817919095;48.7045957095778
314.787434620414;48.7369931775884
314.809051321732;48.7274034743115
314.83066802305;48.6793342832844
314.852284724369;48.6069952710564
314.873901425687;48.5274192423773
314.895518127006;48.4463634877844
314.917134828324;48.366455994913
314.938751529642;48.2913269289896
314.960368230961;48.2260177474527
314.981984932279;48.1777512131061
315.003601633598;48.1504536136036
315.025218334916;48.1443173609887
315.046835036234;48.1546994919566
315.068451737553;48.1705206083498
315.090068438871;48.1781800482034
315.11168514019;48.1710397806235
315.133301841508;48.1442789170813
315.154918542826;48.0941333845828
315.176535244145;48.0257541655787
315.198151945463;47.9510385387127
315.219768646782;47.8677943814324
315.2413853481;47.7703533050301
315.263002049418;47.6683047089716
315.284618750737;47.5692748363822
315.306235452055;47.4811756251496
315.327852153374;47.4132281013537
315.349468854692;47.3593830345227
315.37108555601;47.3178515829458
315.392702257329;47.2990475131146
315.414318958647;47.3059221441579
315.435935659966;47.3149492058736
315.457552361284;47.3062499282452
315.479169062602;47.292225751518
315.500785763921;47.2911781304277
315.522402465239;47.2932600584793
315.544019166558;47.2881933861852
315.565635867876;47.2698419338748
315.587252569194;47.2370464352627
315.608869270513;47.1981164271841
315.630485971831;47.167189630645
315.65210267315;47.1444114210804
315.673719374468;47.1264321634632
315.695336075786;47.109604028661
315.716952777105;47.0863758448103
315.738569478423;47.0514813990486
315.760186179742;47.0034862944286
315.78180288106;46.9389154150148
315.803419582378;46.8423068977045
315.825036283697;46.7016552989662
315.846652985015;46.5225077992666
315.868269686334;46.3138367938154
315.889886387652;46.078114332429
315.911503088971;45.8054113544139
315.933119790289;45.4942603646867
315.954736491607;45.1715909467091
315.976353192926;44.867062168108
315.997969894244;44.5902031510557
316.019586595562;44.3438782722462
316.041203296881;44.135349821959
316.062819998199;43.971581391382
316.084436699518;43.8526939917765
316.106053400836;43.7754068867649
316.127670102155;43.7365561034804
316.149286803473;43.7300941451187
316.170903504791;43.7462050825009
316.19252020611;43.7753080574373
316.214136907428;43.8096540290555
316.235753608747;43.8339603771013
316.257370310065;43.8342267383963
316.278987011383;43.811753864315
316.300603712702;43.7647213990369
316.32222041402;43.6807526728237
316.343837115339;43.5611418138835
316.365453816657;43.4169538958978
316.387070517975;43.2560409272897
316.408687219294;43.079420356382
316.430303920612;42.8951135454623
316.451920621931;42.7352350021089
316.473537323249;42.6299359307463
316.495154024567;42.584279040493
316.516770725886;42.6008924696865
316.538387427204;42.6923468759903
316.560004128523;42.8593449587245
316.581620829841;43.0893319170198
316.603237531159;43.3718813641725
316.624854232478;43.6995030631322
316.646470933796;44.0536610865622
316.668087635115;44.4264708223663
316.689704336433;44.7918293701576
316.711321037751;45.1222553353932
316.73293773907;45.4184711246306
316.754554440388;45.6816646726414
316.776171141707;45.9105274929694
316.797787843025;46.1040135637898
316.819404544343;46.2670073427331
316.841021245662;46.4003461008704
316.86263794698;46.5021327089589
316.884254648299;46.5792887982518
316.905871349617;46.6363402156676
316.927488050935;46.6789418354194
316.949104752254;46.7132314815287
316.970721453572;46.7493165360166
316.992338154891;46.7888994670795
317.013954856209;46.8240664569026
317.035571557527;46.8556534856166
317.057188258846;46.8970635938009
317.078804960164;46.9605497906427
317.100421661483;47.0533083277391
317.122038362801;47.1739371849702
317.143655064119;47.3194088970918
317.165271765438;47.4763725032253
317.186888466756;47.6385357239203
317.208505168075;47.7889047721635
317.230121869393;47.9109719965476
317.251738570711;48.0023628231283
317.27335527203;48.0629269345672
317.294971973348;48.0879646416661
317.316588674667;48.0699695911612
317.338205375985;48.0073522959807
317.359822077303;47.9004142460618
317.381438778622;47.7507443469178
317.40305547994;47.5700651067192
317.424672181259;47.374727467138
317.446288882577;47.1829498003702
317.467905583895;47.0119263200404
317.489522285214;46.8717413540677
317.511138986532;46.7639992201397
317.532755687851;46.6899482810263
317.554372389169;46.6640716445937
317.575989090487;46.7042215741249
317.597605791806;46.8097742157681
317.619222493124;46.9631226616382
317.640839194443;47.13875222627
317.662455895761;47.3319316275018
317.684072597079;47.5423503231344
317.705689298398;47.745808851395
317.727305999716;47.9096381129287
317.748922701035;48.0226214505413
317.770539402353;48.0846193659756
317.792156103671;48.0987001313446
317.81377280499;48.0568221720771
317.835389506308;47.9405675001516
317.857006207627;47.7542956085215
317.878622908945;47.5218373366357
317.900239610263;47.2448591028158
317.921856311582;46.9150889412648
317.9434730129;46.5347398515181
317.965089714219;46.1132646558519
317.986706415537;45.6584962630042
318.008323116855;45.1997747539242
318.029939818174;44.7624830136773
318.051556519492;44.3518581665136
318.073173220811;43.9688675084128
318.094789922129;43.6194631982576
318.116406623447;43.3170787179538
318.138023324766;43.0722850244531
318.159640026084;42.8913796249186
318.181256727403;42.7731448485529
318.202873428721;42.703839381603
318.22449013004;42.6780221572673
318.246106831358;42.7087292216678
318.267723532676;42.7930268030337
318.289340233995;42.9040292134717
318.310956935313;43.0441233011219
318.332573636631;43.2149957403248
318.35419033795;43.4085855168878
318.375807039268;43.5990716521119
318.397423740587;43.7793321830464
318.419040441905;43.958578099069
318.440657143223;44.1396101708461
318.462273844542;44.3196926714222
318.48389054586;44.4913799352152
318.505507247179;44.6483828007537
318.527123948497;44.793046780887
318.548740649816;44.9240978457154
318.570357351134;45.0414480198658
318.591974052452;45.1427710418224
318.613590753771;45.2257227546365
318.635207455089;45.2919026560904
318.656824156407;45.3310671241948
318.678440857726;45.3270402213437
318.700057559044;45.2860577791315
318.721674260363;45.21271004138
318.743290961681;45.1083482784017
318.764907663;44.9753979595173
318.786524364318;44.8121219603865
318.808141065636;44.6098121945937
318.829757766955;44.3771261347149
318.851374468273;44.1283408647225
318.872991169592;43.8660215331721
318.89460787091;43.5846631295574
318.916224572228;43.2920765041038
318.937841273547;43.0010126229179
318.959457974865;42.7106236014634
318.981074676184;42.4152944975442
319.002691377502;42.120759754378
319.02430807882;41.8484510750304
319.045924780139;41.6088387985519
319.067541481457;41.3998080590185
319.089158182776;41.2249434951246
319.110774884094;41.0845082079323
319.132391585412;40.9729934528406
319.154008286731;40.8903834898512
319.175624988049;40.8357391779786
319.197241689368;40.8017798597299
319.218858390686;40.7799340607402
319.240475092004;40.7579322990507
319.262091793323;40.730824425484
319.283708494641;40.6997490652215
319.30532519596;40.6692080026312
319.326941897278;40.6378423270253
319.348558598596;40.6016076179409
319.370175299915;40.5610071205098
319.391792001233;40.5188443679897
319.413408702552;40.4748940803968
319.43502540387;40.4318503484305
319.456642105188;40.3947311793443
319.478258806507;40.3718218378679
319.499875507825;40.3711095193535
319.521492209144;40.3974263579986
319.543108910462;40.4499460791132
319.56472561178;40.5342994375134
319.586342313099;40.6532767298425
319.607959014417;40.8080640918825
319.629575715736;40.9958156669596
319.651192417054;41.211883627316
319.672809118372;41.4572588216251
319.694425819691;41.7360346330017
319.716042521009;42.0369590825008
319.737659222328;42.3282354528716
319.759275923646;42.5958337091304
319.780892624964;42.8451879487099
319.802509326283;43.0784193483691
319.824126027601;43.2824858863087
319.84574272892;43.4368705451909
319.867359430238;43.5343676765577
319.888976131556;43.5782973470505
319.910592832875;43.5764437034847
319.932209534193;43.5364282585649
319.953826235512;43.4673394295726
319.97544293683;43.385646621224
319.997059638148;43.3103590319056
320.018676339467;43.2572388293465
320.040293040785;43.2364002375099
320.061909742104;43.2555789803068
320.083526443422;43.3208789755392
320.10514314474;43.4320329521239
320.126759846059;43.5817119447412
320.148376547377;43.7587903443197
320.169993248696;43.9504324747407
320.191609950014;44.1464748249197
320.213226651332;44.3407368980744
320.234843352651;44.5291690840827
320.256460053969;44.711309099908
320.278076755288;44.8862295342492
320.299693456606;45.0530564523463
320.321310157924;45.2125779022576
320.342926859243;45.3705567596725
320.364543560561;45.538035973229
320.38616026188;45.7169971849863
320.407776963198;45.8957842324465
320.429393664516;46.0625485516236
320.451010365835;46.2065531070529
320.472627067153;46.3292722714044
320.494243768472;46.437615121597
320.51586046979;46.5281389641743
320.537477171108;46.5938009096316
320.559093872427;46.6275684161934
320.580710573745;46.6249276315352
320.602327275064;46.5898939041604
320.623943976382;46.5256149168
320.6455606777;46.4349028678269
320.667177379019;46.3267549234596
320.688794080337;46.1899635381659
320.710410781656;46.0076505182791
320.732027482974;45.7819725029037
320.753644184292;45.5299189406491
320.775260885611;45.2528346247749
320.796877586929;44.9461277413032
320.818494288248;44.6264590181678
320.840110989566;44.3049713244605
320.861727690884;43.9869749438379
320.883344392203;43.6788662135988
320.904961093521;43.3870098803853
320.92657779484;43.11651613267
320.948194496158;42.8677178151343
320.969811197476;42.6366349944547
320.991427898795;42.4242180579227
321.013044600113;42.2291417287924
321.034661301432;42.0360506758569
321.05627800275;41.8370118405644
321.077894704069;41.626841310565
321.099511405387;41.390750833644
321.121128106705;41.1112644473281
321.142744808024;40.7888603778314
321.164361509342;40.439977903106
321.18597821066;40.0708514627587
321.207594911979;39.6746747375071
321.229211613297;39.240298378973
321.250828314616;38.771195379092
321.272445015934;38.2934410076084
321.294061717253;37.822310009321
321.315678418571;37.3643270799283
321.337295119889;36.9338272902079
321.358911821208;36.5488268164944
321.380528522526;36.2054270373676
321.402145223845;35.8954876924931
321.423761925163;35.6253642101766
321.445378626481;35.4075961989896
321.4669953278;35.2451555606404
321.488612029118;35.1357524883236
321.510228730437;35.0751517783891
321.531845431755;35.0519037856001
321.553462133073;35.0501280068204
321.575078834392;35.0569846118215
321.59669553571;35.0693701038447
321.618312237029;35.0896647855935
321.639928938347;35.1147191583325
321.661545639665;35.132931445406
321.683162340984;35.1408283702073
321.704779042302;35.1445939352036
321.726395743621;35.1486442041049
321.748012444939;35.1569609459415
321.769629146257;35.1798077003335
321.791245847576;35.2283190804585
321.812862548894;35.3154826301427
321.834479250213;35.4429026722594
321.856095951531;35.5965166810202
321.877712652849;35.7677723173296
321.899329354168;35.9646908182663
321.920946055486;36.1954892114283
321.942562756805;36.4543136697207
321.964179458123;36.7308667559136
321.985796159441;37.0074508445002
322.00741286076;37.2680096851068
322.029029562078;37.5145371266696
322.050646263397;37.7469049562097
322.072262964715;37.9624636586588
322.093879666033;38.1688256526344
322.115496367352;38.3583064515689
322.13711306867;38.5243403387504
322.158729769989;38.6623456824071
322.180346471307;38.7781190916797
322.201963172625;38.878327017007
322.223579873944;38.9619406888401
322.245196575262;39.0260684913375
322.266813276581;39.0773694156858
322.288429977899;39.1271769002301
322.310046679217;39.1751049877513
322.331663380536;39.2077725989639
322.353280081854;39.2104314121248
322.374896783173;39.1873809808066
322.396513484491;39.1396566173213
322.418130185809;39.0637462304851
322.439746887128;38.9621450527624
322.461363588446;38.8513140811398
322.482980289765;38.7368995998967
322.504596991083;38.6088772831329
322.526213692401;38.4529265165592
322.54783039372;38.2620191495015
322.569447095038;38.0452749029485
322.591063796357;37.8176202012606
322.612680497675;37.5804680653951
322.634297198993;37.3300626404835
322.655913900312;37.0982480484822
322.67753060163;36.9070618065446
322.699147302949;36.7370477068477
322.720764004267;36.5686318281531
322.742380705585;36.4109843439219
322.763997406904;36.271741475594
322.785614108222;36.1485116866493
322.807230809541;36.0340823214802
322.828847510859;35.9194014027192
322.850464212177;35.7995340877781
322.872080913496;35.6732733839122
322.893697614814;35.5387588259404
322.915314316133;35.3969764664369
322.936931017451;35.2520004735317
322.958547718769;35.1141282819765
322.980164420088;34.9842578503926
323.001781121406;34.8508727512611
323.023397822725;34.7288766977754
323.045014524043;34.6385017709373
323.066631225361;34.5706421886931
323.08824792668;34.5096521476945
323.109864627998;34.4504526500111
323.131481329317;34.3973213576453
323.153098030635;34.3557735501047
323.174714731953;34.3270427023623
323.196331433272;34.305131958974
323.21794813459;34.2898084854694
323.239564835909;34.2916233468802
323.261181537227;34.3169320728544
323.282798238545;34.3670008669228
323.304414939864;34.4415380831275
323.326031641182;34.5457096811047
323.347648342501;34.683277225279
323.369265043819;34.8507818303175
323.390881745137;35.039612709496
323.412498446456;35.2449954886972
323.434115147774;35.4685539293154
323.455731849093;35.7118443488815
323.477348550411;35.9681641740226
323.498965251729;36.2233943945559
323.520581953048;36.4686865624914
323.542198654366;36.6930785201474
323.563815355685;36.8874017628382
323.585432057003;37.0532214865986
323.607048758321;37.2006765062524
323.62866545964;37.3374934453152
323.650282160958;37.4589538034478
323.671898862277;37.5619225107806
323.693515563595;37.657485904419
323.715132264914;37.7652595946954
323.736748966232;37.9001047563724
323.75836566755;38.0581417669334
323.779982368869;38.2510816543788
323.801599070187;38.4864374556485
323.823215771505;38.7491029640533
323.844832472824;39.0322250271521
323.866449174142;39.3383632671737
323.888065875461;39.6568049294022
323.909682576779;39.9666506391175
323.931299278098;40.2508844436343
323.952915979416;40.4962163681401
323.974532680734;40.6825651380323
323.996149382053;40.8019147041555
324.017766083371;40.8568370931059
324.03938278469;40.8434906670856
324.060999486008;40.7531985549616
324.082616187326;40.5890995498836
324.104232888645;40.3577761638703
324.125849589963;40.0603672431352
324.147466291282;39.7076015369605
324.1690829926;39.3117435465067
324.190699693918;38.8896647815804
324.212316395237;38.4747258515091
324.233933096555;38.0775097312731
324.255549797874;37.6806620042127
324.277166499192;37.2597018837496
324.29878320051;36.8252909597426
324.320399901829;36.4255171004044
324.342016603147;36.0720207590107
324.363633304466;35.7363639301711
324.385250005784;35.4012958576324
324.406866707102;35.0756411121576
324.428483408421;34.7886354149325
324.450100109739;34.5349287817026
324.471716811058;34.2965079194532
324.493333512376;34.0629749195648
324.514950213694;33.8379516794419
324.536566915013;33.6298005223008
324.558183616331;33.4471345341938
324.57980031765;33.2851767788856
324.601417018968;33.1309163043019
324.623033720286;32.9733888789609
324.644650421605;32.8046511864692
324.666267122923;32.6216738911856
324.687883824242;32.4288623421819
324.70950052556;32.2340346119155
324.731117226878;32.0413512167867
324.752733928197;31.8496826065203
