Name;BF_ESR_01_3602s_Y_gon_120dg_result

Recipe
Accumulations;5;Number of accumulations
RetryCount;0;Number of retries on error
AbortOnError;True;Abort on error
EnableQFactorMeasurement;False;Enable/Disable q-Factor measurement
Bfrom;313;B from
Bto;363;B to
SweepTime;60;Sweep time
Modulation;0.2;Modulation
ModulationFreq;100;Modulation
BHoldEnabled;False;B hold enabled
BHold;0;B hold
MicrowavePower;2;Microwave power
MarkerEnabled;False;
MarkerStartField;0;
MarkerEndField;0;
Mode;;
KineticGFact;0;
KineticTotalTransientTime;0;
KineticTimeResolution;0;
TempFrom;5;
TempUseSlope;False;
TempTo;5;
TempdT;1;
TempSetupTime;0;
GonFrom;0;
GonTo;180;
GonSteps;20;
XRayEnabled;False;
XRayTime;3;
XRayVoltage;40;
XRayCurrent;0.5;
UVEnabled;False;
UVIntensity;0;
UVTime;0;
UVLeadTime;0;
UVWavelength;0;
PowSweepFrom;1;
PowSweepTo;5;
PowSweepSteps;5;
AmpModSweepFrom;0;
AmpModSweepTo;1;
AmpModSweepSteps;10;
ExtTriggerEnabled;False;
ExtTrigLeadTime;0;
ExtTrigOnTime;5;

Meas
BField [mT];MW_Absorption []
313.014928817749;77.0285014824754
313.036536424227;76.2481980216741
313.058144030705;75.372822399901
313.079751637183;74.445571584
313.101359243661;73.4621406296353
313.122966850139;72.4088349436982
313.144574456617;71.3158219892871
313.166182063095;70.2397583710308
313.187789669573;69.2075471743092
313.209397276051;68.2340203929177
313.231004882529;67.3415869289036
313.252612489007;66.5477901409629
313.274220095485;65.8554082511459
313.295827701963;65.2630345090621
313.317435308441;64.7710314779815
313.339042914919;64.3842115729279
313.360650521397;64.1161694557786
313.382258127875;63.9734559736191
313.403865734353;63.9358979912803
313.425473340831;63.9768583762484
313.447080947309;64.0792649245282
313.468688553787;64.2305120533338
313.490296160265;64.4203481391466
313.511903766743;64.6356204655958
313.533511373221;64.8611160679165
313.555118979699;65.0724230754137
313.576726586177;65.2536875613809
313.598334192655;65.3877049439868
313.619941799133;65.4709241658336
313.641549405611;65.5024317829592
313.663157012089;65.4858285178561
313.684764618566;65.4289894711656
313.706372225044;65.3370095313966
313.727979831522;65.215750442838
313.749587438;65.0868207163637
313.771195044478;64.970277308952
313.792802650956;64.8773046533764
313.814410257434;64.8138567402591
313.836017863912;64.78969791131
313.85762547039;64.8198982863854
313.879233076868;64.9075993357052
313.900840683346;65.0415728086319
313.922448289824;65.201310673396
313.944055896302;65.3743376526646
313.96566350278;65.5505261069276
313.987271109258;65.7193382819337
314.008878715736;65.8760803338657
314.030486322214;66.0189387050088
314.052093928692;66.1413146646211
314.07370153517;66.2372559718263
314.095309141648;66.3045412151649
314.116916748126;66.3473563214951
314.138524354604;66.3734947345281
314.160131961082;66.3888490886434
314.18173956756;66.4000401836014
314.203347174038;66.413272979647
314.224954780516;66.4304664592931
314.246562386994;66.4501065590313
314.268169993472;66.4774260667749
314.28977759995;66.520928217651
314.311385206428;66.5826999715245
314.332992812906;66.6540599109486
314.354600419384;66.7285831650926
314.376208025862;66.8091218483743
314.39781563234;66.8988031501898
314.419423238818;66.9947503980567
314.441030845296;67.0860909032559
314.462638451774;67.1653777533853
314.484246058252;67.2388124615127
314.50585366473;67.3014746769446
314.527461271208;67.3433282249605
314.549068877686;67.3608098427443
314.570676484164;67.3469373534754
314.592284090642;67.2947729024951
314.61389169712;67.2097652573264
314.635499303598;67.0792681393828
314.657106910076;66.8924598838598
314.678714516554;66.6570263244062
314.700322123032;66.3734031764131
314.72192972951;66.0490308585217
314.743537335988;65.6962171445006
314.765144942466;65.3329372484608
314.786752548943;64.9816327831585
314.808360155422;64.6536502070789
314.829967761899;64.352951316254
314.851575368377;64.0927538910646
314.873182974855;63.8896810259763
314.894790581333;63.7495240646535
314.916398187811;63.673788366118
314.938005794289;63.6637167340897
314.959613400767;63.7257232589386
314.981221007245;63.85245442113
315.002828613723;64.011671300605
315.024436220201;64.1842332941655
315.046043826679;64.358466569452
315.067651433157;64.5139479649989
315.089259039635;64.6316296700652
315.110866646113;64.7103372852329
315.132474252591;64.7662932511377
315.154081859069;64.7904516106841
315.175689465547;64.7617034276106
315.197297072025;64.6769375773716
315.218904678503;64.5498136660072
315.240512284981;64.3882788687172
315.262119891459;64.1875279636697
315.283727497937;63.9412639143883
315.305335104415;63.6538100728932
315.326942710893;63.3406064879371
315.348550317371;63.0054677618244
315.370157923849;62.630778689589
315.391765530327;62.2158875559204
315.413373136805;61.7599032700059
315.434980743283;61.2721743069999
315.456588349761;60.7853076549146
315.478195956239;60.2991264412486
315.499803562717;59.8023681598192
315.521411169195;59.3100591542349
315.543018775673;58.8396164519029
315.564626382151;58.4223358936111
315.586233988629;58.0649342298265
315.607841595107;57.7467948881896
315.629449201585;57.4666449246709
315.651056808063;57.2394964451251
315.672664414541;57.0641809338264
315.694272021019;56.9302493421848
315.715879627497;56.8423425377941
315.737487233975;56.7991422621582
315.759094840453;56.7849932089475
315.780702446931;56.7998642157796
315.802310053409;56.861011253123
315.823917659887;56.9667146782635
315.845525266365;57.1054925917302
315.867132872843;57.2787362430249
315.888740479321;57.4860545693268
315.910348085798;57.7162596253417
315.931955692276;57.9553047604455
315.953563298754;58.1969903027025
315.975170905232;58.4421167863888
315.99677851171;58.6916310100743
316.018386118188;58.9314305664731
316.039993724666;59.1419073071989
316.061601331144;59.3137071898688
316.083208937622;59.4393948940132
316.1048165441;59.5161113111989
316.126424150578;59.5417280761544
316.148031757056;59.5168822317636
316.169639363534;59.4425527827055
316.191246970012;59.3159124846079
316.21285457649;59.1306141473317
316.234462182968;58.8820623025894
316.256069789446;58.5823626233487
316.277677395924;58.2474419659823
316.299285002402;57.8733700623773
316.32089260888;57.4577660791671
316.342500215358;57.0000333447923
316.364107821836;56.5033835545697
316.385715428314;55.9768809702847
316.407323034792;55.4300479828291
316.42893064127;54.8678718632505
316.450538247748;54.2983405590912
316.472145854226;53.7428690123394
316.493753460704;53.2204607352009
316.515361067182;52.7247491061589
316.53696867366;52.2457950756948
316.558576280138;51.8237981170842
316.580183886616;51.4886667308194
316.601791493094;51.2263716165186
316.623399099572;51.0345720556052
316.64500670605;50.9172832453413
316.666614312528;50.8551833392887
316.688221919006;50.8276763509285
316.709829525484;50.8242322955346
316.731437131962;50.8371367502766
316.75304473844;50.8513675878572
316.774652344918;50.8551699080084
316.796259951396;50.8410528523528
316.817867557874;50.8027646813471
316.839475164352;50.7337318239345
316.86108277083;50.6223965691853
316.882690377308;50.4687409640823
316.904297983786;50.2833267799178
316.925905590264;50.0876245099276
316.947513196742;49.8849600530291
316.96912080322;49.6754387554347
316.990728409698;49.4588387448847
317.012336016175;49.2349508349253
317.033943622654;49.0285079905923
317.055551229131;48.8735192588181
317.077158835609;48.7743214580268
317.098766442087;48.7147072336765
317.120374048565;48.68971698471
317.141981655043;48.711576227775
317.163589261521;48.7750287660688
317.185196867999;48.8777148805927
317.206804474477;49.0109445583827
317.228412080955;49.1680324234926
317.250019687433;49.3449542147752
317.271627293911;49.5305881573141
317.293234900389;49.7152204949674
317.314842506867;49.8904612437054
317.336450113345;50.0481627631883
317.358057719823;50.1848490781422
317.379665326301;50.2889616600408
317.401272932779;50.3519270508842
317.422880539257;50.3768721658926
317.444488145735;50.3699074645232
317.466095752213;50.3322192777765
317.487703358691;50.2692330857518
317.509310965169;50.1882677858308
317.530918571647;50.0880209307295
317.552526178125;49.9806127816765
317.574133784603;49.877154889568
317.595741391081;49.7758273401018
317.617348997559;49.6673709118653
317.638956604037;49.5480456780283
317.660564210515;49.4289603180534
317.682171816993;49.3172707800581
317.703779423471;49.207790005248
317.725387029949;49.0832286477713
317.746994636427;48.9386681064522
317.768602242905;48.7877909467991
317.790209849383;48.6414316151506
317.811817455861;48.4925435674252
317.833425062339;48.3303100452313
317.855032668817;48.1522412859969
317.876640275295;47.9617860141243
317.898247881773;47.7629445403271
317.919855488251;47.5691993103415
317.941463094729;47.3811894485972
317.963070701207;47.1900741854583
317.984678307685;47.0106809390575
318.006285914163;46.8585700190753
318.027893520641;46.7193552956868
318.049501127119;46.5851553007364
318.071108733597;46.4801635825434
318.092716340075;46.4084319111488
318.114323946553;46.3722957138918
318.135931553031;46.3818282375198
318.157539159508;46.4393147445941
318.179146765986;46.5379032342845
318.200754372464;46.6729501943862
318.222361978942;46.8447469956351
318.24396958542;47.0501478380476
318.265577191898;47.2873414241166
318.287184798376;47.5589366525472
318.308792404854;47.8506825356634
318.330400011332;48.1271053145195
318.35200761781;48.3760763882695
318.373615224288;48.5962713223205
318.395222830766;48.7848406752249
318.416830437244;48.9308520254477
318.438438043722;49.0254714274672
318.4600456502;49.0708989389793
318.481653256678;49.0638516255224
318.503260863156;48.9926517400548
318.524868469634;48.8752260784165
318.546476076112;48.7410303764806
318.56808368259;48.5845006700494
318.589691289068;48.405355563124
318.611298895546;48.2185562272551
318.632906502024;48.0357240331849
318.654514108502;47.8621114984028
318.67612171498;47.7037551727287
318.697729321458;47.5744584527943
318.719336927936;47.4798259834292
318.740944534414;47.4169864047405
318.762552140892;47.3819274038862
318.78415974737;47.3740587178222
318.805767353848;47.3971734534269
318.827374960326;47.4503144359387
318.848982566804;47.524728260454
318.870590173282;47.6146562550434
318.89219777976;47.7155412555031
318.913805386238;47.8208724972796
318.935412992716;47.9251180316901
318.957020599194;48.0253997745864
318.978628205672;48.1127672127658
319.00023581215;48.1764192054389
319.021843418628;48.2135033073803
319.043451025106;48.2213735156448
319.065058631584;48.1982191281387
319.086666238062;48.141723181891
319.10827384454;48.0454654583116
319.129881451018;47.9015839374784
319.151489057496;47.713880783349
319.173096663974;47.5123735719769
319.194704270452;47.3056531452803
319.21631187693;47.0791870608403
319.237919483408;46.8395789949522
319.259527089885;46.6117929701041
319.281134696363;46.3956450181453
319.302742302841;46.1737171212575
319.324349909319;45.9408148814698
319.345957515797;45.6861863459222
319.367565122275;45.4053835390377
319.389172728753;45.1086321034767
319.410780335231;44.7996005944244
319.432387941709;44.4701243874851
319.453995548187;44.1211325307678
319.475603154665;43.7610913022684
319.497210761143;43.3872172710101
319.518818367621;42.9955745860104
319.540425974099;42.5895827715601
319.562033580577;42.1790597492454
319.583641187055;41.7590154420161
319.605248793533;41.3384135701661
319.626856400011;40.9518002903663
319.648464006489;40.6167251146515
319.670071612967;40.3473257890216
319.691679219445;40.1644155672492
319.713286825923;40.0705627205314
319.734894432401;40.0593785604246
319.756502038879;40.1256250548313
319.778109645357;40.2684890004111
319.799717251835;40.4950414495285
319.821324858313;40.794775421567
319.842932464791;41.1373492422381
319.864540071269;41.5016648908149
319.886147677747;41.8717924497785
319.907755284225;42.2281246448031
319.929362890703;42.5634286177218
319.950970497181;42.8560830509838
319.972578103659;43.0887098003155
319.994185710137;43.2607718920609
320.015793316615;43.3748785231121
320.037400923093;43.4307207496079
320.059008529571;43.4262590516967
320.080616136049;43.3650304291213
320.102223742527;43.251496223447
320.123831349005;43.0864344771815
320.145438955483;42.8726127250677
320.167046561961;42.6421249441843
320.188654168439;42.4206517672363
320.210261774917;42.2113718745743
320.231869381395;42.0064976110295
320.253476987873;41.8045604782312
320.275084594351;41.6156770774997
320.296692200829;41.4566739718799
320.318299807307;41.3369105899115
320.339907413785;41.2644216866711
320.361515020263;41.2502035188384
320.38312262674;41.2873420909071
320.404730233218;41.3694623458088
320.426337839696;41.5084094370061
320.447945446174;41.7172620973382
320.469553052652;41.9977305132401
320.49116065913;42.3501511500518
320.512768265608;42.7704375579392
320.534375872086;43.226337374926
320.555983478564;43.675227881065
320.577591085042;44.1136215870444
320.59919869152;44.5406424067298
320.620806297998;44.9428886669569
320.642413904476;45.3069471094269
320.664021510954;45.6264040498495
320.685629117432;45.8921157777281
320.70723672391;46.086083195341
320.728844330388;46.198091894398
320.750451936866;46.2365375938442
320.772059543344;46.216313686851
320.793667149822;46.1490264752062
320.8152747563;46.0483438969921
320.836882362778;45.9334105733145
320.858489969256;45.8185121596904
320.880097575734;45.7124897778998
320.901705182212;45.6290979332039
320.92331278869;45.5872465810457
320.944920395168;45.5983047559322
320.966528001646;45.6538952987609
320.988135608124;45.7467246553366
321.009743214602;45.8780295882767
321.03135082108;46.0584675681685
321.052958427558;46.2946082725046
321.074566034036;46.5655187277211
321.096173640514;46.8447875002632
321.117781246992;47.1308259344862
321.13938885347;47.4287217814875
321.160996459948;47.7297882601483
321.182604066426;48.0125996830755
321.204211672904;48.2633782256941
321.225819279382;48.4830457462205
321.24742688586;48.669147024204
321.269034492338;48.8161434079315
321.290642098816;48.9171455843421
321.312249705294;48.955389734796
321.333857311772;48.9214024540344
321.35546491825;48.8198260896842
321.377072524728;48.6487374506225
321.398680131206;48.395370733589
321.420287737684;48.0490808587257
321.441895344162;47.6135620164107
321.46350295064;47.1027834222149
321.485110557117;46.5313964090405
321.506718163596;45.9042587203203
321.528325770073;45.2308327789378
321.549933376551;44.5454858421841
321.571540983029;43.8821174757317
321.593148589507;43.2373645532632
321.614756195985;42.6076649860292
321.636363802463;42.0142459471573
321.657971408941;41.4951592915815
321.679579015419;41.0454731969838
321.701186621897;40.6497222863153
321.722794228375;40.2967599931488
321.744401834853;39.9897484469129
321.766009441331;39.7263290086502
321.787617047809;39.4942340216537
321.809224654287;39.2872494906252
321.830832260765;39.0927338392671
321.852439867243;38.9075458058557
321.874047473721;38.7211654833104
321.895655080199;38.5225715353232
321.917262686677;38.3081300608305
321.938870293155;38.0846892200665
321.960477899633;37.8585229613658
321.982085506111;37.6239924392149
322.003693112589;37.3692406020684
322.025300719067;37.083282042165
322.046908325545;36.7635412069545
322.068515932023;36.4139267894503
322.090123538501;36.0488972761748
322.111731144979;35.6901964036268
322.133338751457;35.3425666315531
322.154946357935;34.9967956788575
322.176553964413;34.6442436260892
322.198161570891;34.2952538529689
322.219769177369;33.9749258789155
322.241376783847;33.7063252856458
322.262984390325;33.5046651197958
322.284591996803;33.3671901977817
322.306199603281;33.2945294649904
322.327807209759;33.2924280219268
322.349414816237;33.3625472083432
322.371022422715;33.4964592231557
322.392630029193;33.6889155928294
322.414237635671;33.9424076176841
322.435845242149;34.2496455980809
322.457452848627;34.5941024722311
322.479060455105;34.9657550207179
322.500668061583;35.3563693152646
322.522275668061;35.7475387793254
322.543883274539;36.1233862072119
322.565490881017;36.4801259957713
322.587098487495;36.8043604526106
322.608706093973;37.0905439647144
322.63031370045;37.3383862749398
322.651921306928;37.5469191609702
322.673528913406;37.720985064297
322.695136519884;37.8707206024206
322.716744126362;37.9994904952724
322.73835173284;38.1046194063899
322.759959339318;38.1965885903169
322.781566945796;38.2891089942506
322.803174552274;38.3842413637649
322.824782158752;38.4669472193397
322.84638976523;38.5360996180539
322.867997371708;38.5984117769977
322.889604978186;38.6558169376877
322.911212584664;38.7026171439368
322.932820191142;38.7317145581087
322.95442779762;38.7443952740866
322.976035404098;38.7322732327894
322.997643010576;38.6908572284194
323.019250617054;38.6152639169764
323.040858223532;38.5089701224258
323.06246583001;38.3710484459077
323.084073436488;38.1987568822291
323.105681042966;37.996656696136
323.127288649444;37.7710277570466
323.148896255922;37.5157282733263
323.1705038624;37.2305477434818
323.192111468878;36.939611327372
323.213719075356;36.6609611823323
323.235326681834;36.3893067757633
323.256934288312;36.1254329166042
323.27854189479;35.8732568615339
323.300149501268;35.6493279514756
323.321757107746;35.4524891669002
323.343364714224;35.2751511291702
323.364972320702;35.1162310829986
323.38657992718;34.9754501027156
323.408187533658;34.8478215139934
323.429795140136;34.730556218539
323.451402746614;34.6208327410671
323.473010353092;34.5106434966495
323.49461795957;34.3902532591229
323.516225566048;34.2550714744713
323.537833172526;34.1022476458901
323.559440779004;33.9354568038143
323.581048385482;33.7563303842501
323.60265599196;33.5559653154381
323.624263598438;33.3336173588441
323.645871204916;33.0954653001935
323.667478811394;32.8523276658356
323.689086417872;32.5966056914863
323.710694024349;32.3100269299835
323.732301630827;32.0060730993925
323.753909237305;31.7034505444968
323.775516843783;31.413037290885
323.797124450261;31.1521957367327
323.818732056739;30.9255872507644
323.840339663217;30.7405660068706
323.861947269695;30.5974972093745
323.883554876173;30.5031753698647
323.905162482651;30.479349642546
323.926770089129;30.5195793328502
323.948377695607;30.6112501774621
323.969985302085;30.7547849867947
323.991592908563;30.9417597194713
324.013200515041;31.1513083896934
324.034808121519;31.3722788972786
324.056415727997;31.5929934968319
324.078023334475;31.7995746884301
324.099630940953;31.9845793535553
324.121238547431;32.1432603437479
324.142846153909;32.2647527602052
324.164453760387;32.3231743549936
324.186061366865;32.3151887658833
324.207668973343;32.2544684975881
324.229276579821;32.1444533397994
324.250884186299;31.9834363677842
324.272491792777;31.7709784922333
324.294099399255;31.5106260821025
324.315707005733;31.2150729637335
324.337314612211;30.8952324470361
324.358922218689;30.5642838679604
324.380529825167;30.2454416146745
324.402137431645;29.939977519041
324.423745038123;29.6476589674761
324.445352644601;29.3772476794348
324.466960251079;29.1360921750527
324.488567857557;28.929823237604
324.510175464035;28.757387144215
324.531783070513;28.6127944066947
324.553390676991;28.4998739462488
324.574998283469;28.4341723876391
324.596605889947;28.4217657530801
324.618213496425;28.4527176653988
324.639821102903;28.513366855676
324.661428709381;28.597624771807
324.683036315859;28.7004022892357
324.704643922337;28.8159325700946
324.726251528815;28.9413010265884
324.747859135293;29.0667105217441
