Name;BF_ESR_01_7202s_X_gon_100dg_result

Recipe
Accumulations;5;Number of accumulations
RetryCount;0;Number of retries on error
AbortOnError;True;Abort on error
EnableQFactorMeasurement;False;Enable/Disable q-Factor measurement
Bfrom;313;B from
Bto;363;B to
SweepTime;60;Sweep time
Modulation;0.2;Modulation
ModulationFreq;100;Modulation
BHoldEnabled;False;B hold enabled
BHold;0;B hold
MicrowavePower;2;Microwave power
MarkerEnabled;False;
MarkerStartField;0;
MarkerEndField;0;
Mode;;
KineticGFact;0;
KineticTotalTransientTime;0;
KineticTimeResolution;0;
TempFrom;5;
TempUseSlope;False;
TempTo;5;
TempdT;1;
TempSetupTime;0;
GonFrom;0;
GonTo;180;
GonSteps;20;
XRayEnabled;False;
XRayTime;3;
XRayVoltage;40;
XRayCurrent;0.5;
UVEnabled;False;
UVIntensity;0;
UVTime;0;
UVLeadTime;0;
UVWavelength;0;
PowSweepFrom;1;
PowSweepTo;5;
PowSweepSteps;5;
AmpModSweepFrom;0;
AmpModSweepTo;1;
AmpModSweepSteps;10;
ExtTriggerEnabled;False;
ExtTrigLeadTime;0;
ExtTrigOnTime;5;

Meas
BField [mT];MW_Absorption []
313.016755599976;97.5488504187605
313.038362367583;97.5251196194982
313.05996913519;97.4800888223296
313.081575902798;97.4292703408732
313.103182670405;97.3879088267907
313.124789438013;97.3606532890804
313.14639620562;97.3401878001491
313.168002973228;97.3080889952331
313.189609740835;97.2605625890607
313.211216508442;97.2143217219483
313.23282327605;97.1823191870115
313.254430043657;97.1680927118345
313.276036811265;97.1651029725185
313.297643578872;97.1746438624454
313.319250346479;97.2029379804898
313.340857114087;97.244668183559
313.362463881694;97.2905725835739
313.384070649302;97.3386503693952
313.405677416909;97.381555789967
313.427284184517;97.4030672716719
313.448890952124;97.3834489047675
313.470497719731;97.3096600325323
313.492104487339;97.1740737414757
313.513711254946;96.9653862548472
313.535318022554;96.6796223037889
313.556924790161;96.319092322014
313.578531557768;95.8630338981224
313.600138325376;95.2976905073572
313.621745092983;94.6817459679387
313.643351860591;94.0528259535793
313.664958628198;93.3929379673377
313.686565395806;92.6928253289189
313.708172163413;91.9627757259171
313.72977893102;91.2171090168763
313.751385698628;90.4660573946508
313.772992466235;89.7047601659201
313.794599233843;88.9125117229166
313.81620600145;88.0818600328887
313.837812769057;87.2275057855889
313.859419536665;86.404773517788
313.881026304272;85.6329379353635
313.90263307188;84.8864252159473
313.924239839487;84.1287902713182
313.945846607095;83.3576190071385
313.967453374702;82.5949500315633
313.989060142309;81.8533729149751
314.010666909917;81.1524428117668
314.032273677524;80.4888339521018
314.053880445132;79.8310113669426
314.075487212739;79.1558744389938
314.097093980346;78.4847474582592
314.118700747954;77.8627338173153
314.140307515561;77.2665244250483
314.161914283169;76.6763001778076
314.183521050776;76.0782571142619
314.205127818383;75.4472519952875
314.226734585991;74.7731978090703
314.248341353598;74.0565052442437
314.269948121206;73.3046709680019
314.291554888813;72.5249018855502
314.313161656421;71.695520395351
314.334768424028;70.7767505665379
314.356375191635;69.7460272513025
314.377981959243;68.6286014381669
314.39958872685;67.4989692188182
314.421195494458;66.4043529017742
314.442802262065;65.3328313666359
314.464409029672;64.2510871586766
314.48601579728;63.1372540655141
314.507622564887;62.0360367396013
314.529229332495;61.0423583525995
314.550836100102;60.1448186729906
314.57244286771;59.3066893869403
314.594049635317;58.5591726296709
314.615656402924;57.9429506941843
314.637263170532;57.4325857942794
314.658869938139;57.0161599059244
314.680476705747;56.6956305307461
314.702083473354;56.4599397948815
314.723690240961;56.2956166154383
314.745297008569;56.1923765849538
314.766903776176;56.1395331796577
314.788510543784;56.1246560558241
314.810117311391;56.1355681621343
314.831724078999;56.1689738816531
314.853330846606;56.2323235177265
314.874937614213;56.3324158548717
314.896544381821;56.4668967679063
314.918151149428;56.6308973521722
314.939757917036;56.8260066272021
314.961364684643;57.0438855249306
314.98297145225;57.2823717655883
315.004578219858;57.5506821615564
315.026184987465;57.8671467914265
315.047791755073;58.2301266964444
315.06939852268;58.6222331777367
315.091005290288;59.032000664244
315.112612057895;59.450791056472
315.134218825502;59.8659885735838
315.15582559311;60.2751660882431
315.177432360717;60.681012449865
315.199039128325;61.0830607834676
315.220645895932;61.4805079855777
315.242252663539;61.8693669615206
315.263859431147;62.2429768402903
315.285466198754;62.5990616032677
315.307072966362;62.936758496864
315.328679733969;63.245451048419
315.350286501576;63.5097122322788
315.371893269184;63.7218714900541
315.393500036791;63.8803585963204
315.415106804399;63.9801314077481
315.436713572006;64.0232399199986
315.458320339614;64.0135831603569
315.479927107221;63.9566775624863
315.501533874828;63.8668271541555
315.523140642436;63.7535241099913
315.544747410043;63.6211611527351
315.566354177651;63.4804696964354
315.587960945258;63.3481944241939
315.609567712866;63.2387569675809
315.631174480473;63.1708089837586
315.65278124808;63.1699582202981
315.674388015688;63.2412006118862
315.695994783295;63.3837555249884
315.717601550903;63.5911253502682
315.73920831851;63.8870379341799
315.760815086117;64.2867137660023
315.782421853725;64.7609813878622
315.804028621332;65.2850067319216
315.82563538894;65.8520535810999
315.847242156547;66.454405999633
315.868848924154;67.0841294785298
315.890455691762;67.7346523586641
315.912062459369;68.379715956168
315.933669226977;68.9925461476534
315.955275994584;69.5596113679059
315.976882762192;70.0851727218179
315.998489529799;70.5805207889878
316.020096297406;71.0584868256357
316.041703065014;71.5093216235711
316.063309832621;71.9288101006597
316.084916600229;72.3225669841386
316.106523367836;72.7101365778162
316.128130135443;73.1256639441636
316.149736903051;73.5897528449647
316.171343670658;74.1092696825358
316.192950438266;74.690650570059
316.214557205873;75.3251533416346
316.236163973481;76.0175828221567
316.257770741088;76.7865706442583
316.279377508695;77.6298351629308
316.300984276303;78.5353695478156
316.32259104391;79.5146670825497
316.344197811518;80.5696774863004
316.365804579125;81.6634512696743
316.387411346732;82.7914684670196
316.40901811434;83.9697627026514
316.430624881947;85.1765941267188
316.452231649555;86.3605028169896
316.473838417162;87.496794586071
316.49544518477;88.6017731982554
316.517051952377;89.6898846668968
316.538658719984;90.7644906513851
316.560265487592;91.7872604897316
316.581872255199;92.6998460513919
316.603479022807;93.4934166623322
316.625085790414;94.1763718674151
316.646692558021;94.767177057567
316.668299325629;95.2783482007274
316.689906093236;95.6879253553887
316.711512860844;95.9702096631651
316.733119628451;96.1396347259752
316.754726396059;96.2140517766252
316.776333163666;96.2052479541784
316.797939931273;96.1243598354359
316.819546698881;95.9809330724257
316.841153466488;95.7775885946392
316.862760234096;95.5231063343497
316.884367001703;95.2480504319178
316.90597376931;94.9637773712726
316.927580536918;94.6563496301438
316.949187304525;94.3108411870791
316.970794072133;93.9282608309013
316.99240083974;93.5180712483378
317.014007607347;93.0649765471732
317.035614374955;92.5459341161203
317.057221142562;91.9594760286425
317.07882791017;91.2856366394081
317.100434677777;90.4931462526658
317.122041445385;89.6025766402678
317.143648212992;88.6724727144732
317.165254980599;87.7324706285911
317.186861748207;86.7477371627713
317.208468515814;85.6701358282587
317.230075283422;84.5403505198903
317.251682051029;83.4258788499007
317.273288818637;82.3645280126997
317.294895586244;81.3395226863157
317.316502353851;80.3483554434327
317.338109121459;79.4133838982482
317.359715889066;78.5419987893678
317.381322656674;77.7390215228902
317.402929424281;77.0121332668085
317.424536191888;76.3393293951332
317.446142959496;75.7045372166284
317.467749727103;75.1282112443178
317.489356494711;74.6167180916328
317.510963262318;74.1649059325814
317.532570029925;73.7649737604413
317.554176797533;73.4069877878513
317.57578356514;73.0908340806891
317.597390332748;72.7989372089108
317.618997100355;72.5064485266034
317.640603867963;72.2041478791309
317.66221063557;71.8988414174308
317.683817403177;71.5908517050122
317.705424170785;71.2826857793345
317.727030938392;70.9836950025583
317.748637706;70.7015459400758
317.770244473607;70.4365755816724
317.791851241214;70.1982415877955
317.813458008822;69.9982712563664
317.835064776429;69.8444497885991
317.856671544037;69.7490315247222
317.878278311644;69.7328580298045
317.899885079252;69.8100546290297
317.921491846859;69.9832030360842
317.943098614466;70.25031224195
317.964705382074;70.6043945899329
317.986312149681;71.0503007337575
318.007918917289;71.6026696764759
318.029525684896;72.2452633587763
318.051132452503;72.937734289373
318.072739220111;73.6531360565931
318.094345987718;74.3835161728958
318.115952755326;75.1261003063463
318.137559522933;75.8735771144609
318.159166290541;76.6195319438729
318.180773058148;77.3652127479784
318.202379825755;78.109996922339
318.223986593363;78.854928595759
318.24559336097;79.6118057167393
318.267200128578;80.3762159132037
318.288806896185;81.1258873004511
318.310413663792;81.850668169278
318.3320204314;82.5710117314742
318.353627199007;83.3114590792078
318.375233966615;84.0820698603622
318.396840734222;84.8803166185458
318.41844750183;85.6942577688855
318.440054269437;86.4889122558904
318.461661037044;87.2338874155249
318.483267804652;87.9470899977751
318.504874572259;88.6471079919142
318.526481339867;89.3105897582884
318.548088107474;89.895787675347
318.569694875081;90.4093246734649
318.591301642689;90.8697997768292
318.612908410296;91.2803199210943
318.634515177904;91.6328769552721
318.656121945511;91.9463517631337
318.677728713118;92.2406243491466
318.699335480726;92.5285585366736
318.720942248333;92.8163939112546
318.742549015941;93.1041249074783
318.764155783548;93.3887376372577
318.785762551156;93.6719691261409
318.807369318763;93.9606464220104
318.82897608637;94.2535225357015
318.850582853978;94.5293683531766
318.872189621585;94.7820286718231
318.893796389193;95.0212246684746
318.9154031568;95.2329799030354
318.937009924407;95.4042178782071
318.958616692015;95.5413904516287
318.980223459622;95.638446123109
319.00183022723;95.6758704241036
319.023436994837;95.632056240431
319.045043762445;95.5079769629667
319.066650530052;95.3016030085018
319.088257297659;95.0097845043782
319.109864065267;94.6323238842615
319.131470832874;94.1640716565248
319.153077600482;93.5920797200593
319.174684368089;92.9111702163237
319.196291135696;92.149978381336
319.217897903304;91.3360629047149
319.239504670911;90.4885334737406
319.261111438519;89.5993269745345
319.282718206126;88.6679702406813
319.304324973734;87.6978252575443
319.325931741341;86.6681049371732
319.347538508948;85.6034226060398
319.369145276556;84.5763113426114
319.390752044163;83.5854169225227
319.412358811771;82.5902084952824
319.433965579378;81.5744611807646
319.455572346985;80.5620228134002
319.477179114593;79.5549203284615
319.4987858822;78.5549704587007
319.520392649808;77.5693407169477
319.541999417415;76.5857448853393
319.563606185023;75.6047362418394
319.58521295263;74.6636442827311
319.606819720237;73.7983572439535
319.628426487845;73.0089816505977
319.650033255452;72.2659551011411
319.67164002306;71.5654024550463
319.693246790667;70.9315082052146
319.714853558274;70.3583266546128
319.736460325882;69.8347774530112
319.758067093489;69.3711193274359
319.779673861097;68.9854472457904
319.801280628704;68.672113198882
319.822887396312;68.4184960358257
319.844494163919;68.2164445745996
319.866100931526;68.060253675808
319.887707699134;67.9467964565846
319.909314466741;67.880048808577
319.930921234349;67.8714530740425
319.952528001956;67.9271415442397
319.974134769563;68.0507590092504
319.995741537171;68.2521572512043
320.017348304778;68.5347281765018
320.038955072386;68.9038302537364
320.060561839993;69.3710857224427
320.082168607601;69.9350296412891
320.103775375208;70.5708793162157
320.125382142815;71.2503195152744
320.146988910423;71.9634628974503
320.16859567803;72.7172926531449
320.190202445638;73.5193754170805
320.211809213245;74.3409554523125
320.233415980852;75.1596622321316
320.25502274846;76.0015604338551
320.276629516067;76.8792217344954
320.298236283675;77.730320177698
320.319843051282;78.5343327494113
320.341449818889;79.2836675717422
320.363056586497;79.9475518565222
320.384663354104;80.5196452488278
320.406270121712;81.0245668356334
320.427876889319;81.4747684068371
320.449483656927;81.8781653237031
320.471090424534;82.2216227218458
320.492697192141;82.4857190307078
320.514303959749;82.6822801585915
320.535910727356;82.8335107552158
320.557517494964;82.9575775045188
320.579124262571;83.0717551605143
320.600731030178;83.1976678332236
320.622337797786;83.3523837436722
320.643944565393;83.533153817563
320.665551333001;83.7483905353354
320.687158100608;84.0094078020697
320.708764868216;84.3280817642717
320.730371635823;84.7285079345362
320.75197840343;85.2289757275828
320.773585171038;85.804437937422
320.795191938645;86.4270901364092
320.816798706253;87.1080593619064
320.83840547386;87.8602586061518
320.860012241467;88.6651933750827
320.881619009075;89.4781863946313
320.903225776682;90.2843416896301
320.92483254429;91.1080898903515
320.946439311897;91.9548955201196
320.968046079505;92.7852687076467
320.989652847112;93.5639437961797
321.011259614719;94.2998635658816
321.032866382327;95.0136982777224
321.054473149934;95.7063160275872
321.076079917542;96.3591501469217
321.097686685149;96.9698258137659
321.119293452756;97.5608704122567
321.140900220364;98.1604914378273
321.162506987971;98.7865479323155
321.184113755579;99.4251504072743
321.205720523186;100.061569415343
321.227327290794;100.699179404313
321.248934058401;101.350336030457
321.270540826008;102.029032631354
321.292147593616;102.739823432451
321.313754361223;103.484194438964
321.335361128831;104.259762344846
321.356967896438;105.066398625694
321.378574664045;105.924229343468
321.400181431653;106.842773708864
321.42178819926;107.789400307355
321.443394966868;108.717739312775
321.465001734475;109.61558774602
321.486608502083;110.511283451018
321.50821526969;111.437730391554
321.529822037297;112.406287602373
321.551428804905;113.40359033338
321.573035572512;114.415300469053
321.59464234012;115.435507635631
321.616249107727;116.454099277051
321.637855875334;117.466001863917
321.659462642942;118.457618964307
321.681069410549;119.434839073658
321.702676178157;120.432322175594
321.724282945764;121.456273704823
321.745889713371;122.442644711563
321.767496480979;123.36911582566
321.789103248586;124.273863658535
321.810710016194;125.131868407395
321.832316783801;125.902139345783
321.853923551409;126.586311876846
321.875530319016;127.209842286814
321.897137086623;127.787622796501
321.918743854231;128.324803926076
321.940350621838;128.830439847358
321.961957389446;129.322736582396
321.983564157053;129.813632475071
322.00517092466;130.297882063108
322.026777692268;130.778463650108
322.048384459875;131.267040613357
322.069991227483;131.768687281462
322.09159799509;132.279023877831
322.113204762698;132.808560276157
322.134811530305;133.361127767591
322.156418297912;133.89709158086
322.17802506552;134.381537463005
322.199631833127;134.820852631221
322.221238600735;135.22487541829
322.242845368342;135.586908965814
322.264452135949;135.892540360236
322.286058903557;136.136872121219
322.307665671164;136.310668042892
322.329272438772;136.407010316578
322.350879206379;136.427334907636
322.372485973987;136.383596446498
322.394092741594;136.292593739449
322.415699509201;136.172013555364
322.437306276809;136.038686369153
322.458913044416;135.904061848642
322.480519812024;135.787687105935
322.502126579631;135.70926903966
322.523733347238;135.67541360713
322.545340114846;135.689762307486
322.566946882453;135.757969341425
322.588553650061;135.885887802181
322.610160417668;136.075499774884
322.631767185276;136.327415207519
322.653373952883;136.646620650832
322.67498072049;137.029312208503
322.696587488098;137.432778237859
322.718194255705;137.817343053333
322.739801023313;138.187028204679
322.76140779092;138.545285273734
322.783014558527;138.861656335237
322.804621326135;139.113636306882
322.826228093742;139.305330671545
322.84783486135;139.442882705438
322.869441628957;139.520758315199
322.891048396565;139.520384971834
322.912655164172;139.430712138964
322.934261931779;139.252976045414
322.955868699387;138.994119635488
322.977475466994;138.660788180475
322.999082234602;138.264757298086
323.020689002209;137.800354127116
323.042295769816;137.265890553105
323.063902537424;136.687748418614
323.085509305031;136.092667590816
323.107116072639;135.472786264315
323.128722840246;134.84436982819
323.150329607854;134.221075242362
323.171936375461;133.60076769966
323.193543143068;132.981083098721
323.215149910676;132.377690733856
323.236756678283;131.809961768556
323.258363445891;131.270385663363
323.279970213498;130.733773640309
323.301576981105;130.178360655301
323.323183748713;129.599630151758
323.34479051632;129.013387335211
323.366397283928;128.429320916229
323.388004051535;127.852693062992
323.409610819142;127.282609851574
323.43121758675;126.707833148007
323.452824354357;126.125756345237
323.474431121965;125.561465818715
323.496037889572;125.006110290646
323.51764465718;124.434976942232
323.539251424787;123.828490119155
323.560858192394;123.192278705485
323.582464960002;122.552774372366
323.604071727609;121.925335900067
323.625678495217;121.305719805139
323.647285262824;120.706420930274
323.668892030431;120.130448856974
323.690498798039;119.563048017425
323.712105565646;118.980418185862
323.733712333254;118.37767813968
323.755319100861;117.781200257947
323.776925868469;117.199692983271
323.798532636076;116.619248816193
323.820139403683;116.007345015321
323.841746171291;115.347647781314
323.863352938898;114.665399432903
323.884959706506;113.960957669097
323.906566474113;113.22566176576
323.92817324172;112.473906660378
323.949780009328;111.697889932116
323.971386776935;110.859724569673
323.992993544543;109.956317792153
324.01460031215;109.021788056811
324.036207079758;108.101297863052
324.057813847365;107.201723730236
324.079420614972;106.307594145036
324.10102738258;105.387718719038
324.122634150187;104.446259005356
324.144240917795;103.538196254769
324.165847685402;102.662737501504
324.187454453009;101.785137175091
324.209061220617;100.868361093285
324.230667988224;99.9120473886729
324.252274755832;98.9734261250556
324.273881523439;98.0263337256517
324.295488291047;97.0509071715874
324.317095058654;96.0701658107429
324.338701826261;95.099874044687
324.360308593869;94.1313648729656
324.381915361476;93.1545834692277
324.403522129084;92.1717752566022
324.425128896691;91.179203035549
324.446735664298;90.1581641945022
324.468342431906;89.0960677363154
324.489949199513;88.0314152581194
324.511555967121;87.0344156348769
324.533162734728;86.1139888464459
324.554769502335;85.2368258759125
324.576376269943;84.3714401481576
324.59798303755;83.5098719756961
324.619589805158;82.6509128904276
324.641196572765;81.7775198457016
324.662803340373;80.8744802929383
324.68441010798;79.9593531012667
324.706016875587;79.1025371165181
324.727623643195;78.3346494673251
324.749230410802;77.6347155915961
