Name;BF_ESR_01_7202s_y_gon_60dg_result

Recipe
Accumulations;5;Number of accumulations
RetryCount;0;Number of retries on error
AbortOnError;True;Abort on error
EnableQFactorMeasurement;False;Enable/Disable q-Factor measurement
Bfrom;313;B from
Bto;363;B to
SweepTime;60;Sweep time
Modulation;0.2;Modulation
ModulationFreq;100;Modulation
BHoldEnabled;False;B hold enabled
BHold;0;B hold
MicrowavePower;2;Microwave power
MarkerEnabled;False;
MarkerStartField;0;
MarkerEndField;0;
Mode;;
KineticGFact;0;
KineticTotalTransientTime;0;
KineticTimeResolution;0;
TempFrom;5;
TempUseSlope;False;
TempTo;5;
TempdT;1;
TempSetupTime;0;
GonFrom;0;
GonTo;180;
GonSteps;20;
XRayEnabled;False;
XRayTime;3;
XRayVoltage;40;
XRayCurrent;0.5;
UVEnabled;False;
UVIntensity;0;
UVTime;0;
UVLeadTime;0;
UVWavelength;0;
PowSweepFrom;1;
PowSweepTo;5;
PowSweepSteps;5;
AmpModSweepFrom;0;
AmpModSweepTo;1;
AmpModSweepSteps;10;
ExtTriggerEnabled;False;
ExtTrigLeadTime;0;
ExtTrigOnTime;5;

Meas
BField [mT];MW_Absorption []
313.016357727051;67.2030526026804
313.037955324738;67.0883490135565
313.059552922426;66.9096294047251
313.081150520114;66.6695236080701
313.102748117801;66.330200624983
313.124345715489;65.8749613679845
313.145943313177;65.3377303312917
313.167540910864;64.7561934535617
313.189138508552;64.1289239686277
313.210736106239;63.4354873791787
313.232333703927;62.6978413434457
313.253931301615;61.9625529359563
313.275528899302;61.2639178489034
313.29712649699;60.6001338612784
313.318724094678;59.9654756716308
313.340321692365;59.3876024505432
313.361919290053;58.8896503846824
313.383516887741;58.4841228157612
313.405114485428;58.1764321831736
313.426712083116;57.9561485846348
313.448309680804;57.8053947083775
313.469907278491;57.7198964892934
313.491504876179;57.6977362156711
313.513102473866;57.718580335977
313.534700071554;57.7616384518455
313.556297669242;57.8152586078836
313.577895266929;57.8701712050749
313.599492864617;57.9174972486924
313.621090462305;57.9473673393126
313.642688059992;57.9588590006949
313.66428565768;57.9529248775693
313.685883255368;57.9321954709596
313.707480853055;57.8807345430346
313.729078450743;57.7812926150261
313.75067604843;57.644579409004
313.772273646118;57.523700548114
313.793871243806;57.4429486858896
313.815468841493;57.393909791081
313.837066439181;57.3691457440736
313.858664036869;57.3765157271993
313.880261634556;57.4182434494411
313.901859232244;57.487384782335
313.923456829932;57.5801084705044
313.945054427619;57.6951889456056
313.966652025307;57.8282808565419
313.988249622994;57.9700995337509
314.009847220682;58.1000502814591
314.03144481837;58.219935593555
314.053042416057;58.3323344949033
314.074640013745;58.4268655596994
314.096237611433;58.4930732998121
314.11783520912;58.5358530707465
314.139432806808;58.5654292177289
314.161030404496;58.5819176900006
314.182628002183;58.5873668234951
314.204225599871;58.6015618960369
314.225823197559;58.6312533635778
314.247420795246;58.6737694974101
314.269018392934;58.7193310908612
314.290615990621;58.7641531332958
314.312213588309;58.8113375519875
314.333811185997;58.8627567712815
314.355408783684;58.9152292603163
314.377006381372;58.9573852087103
314.39860397906;58.9827199737878
314.420201576747;58.9846204619766
314.441799174435;58.9585666975865
314.463396772123;58.901661595232
314.48499436981;58.8175943960491
314.506591967498;58.7088067924436
314.528189565185;58.5661647495131
314.549787162873;58.3781729431333
314.571384760561;58.1488891248469
314.592982358248;57.9025679587819
314.614579955936;57.6573692358304
314.636177553624;57.4252164821924
314.657775151311;57.2061385012753
314.679372748999;56.9976524554847
314.700970346687;56.8151969993718
314.722567944374;56.6717854298415
314.744165542062;56.5715804841793
314.765763139749;56.5310282587061
314.787360737437;56.5559042243769
314.808958335125;56.6385931335463
314.830555932812;56.7666319075472
314.8521535305;56.9353407020136
314.873751128188;57.1440842090015
314.895348725875;57.3798427528459
314.916946323563;57.6254603373992
314.938543921251;57.8740115353511
314.960141518938;58.1162469532327
314.981739116626;58.337716435713
315.003336714313;58.5332626302651
315.024934312001;58.7080662516769
315.046531909689;58.8738520443744
315.068129507376;59.0385802404786
315.089727105064;59.1946278448641
315.111324702752;59.3334224964868
315.132922300439;59.4609903392747
315.154519898127;59.5922859927468
315.176117495815;59.7330294113422
315.197715093502;59.8755142713399
315.21931269119;60.0185731853001
315.240910288878;60.1561120957962
315.262507886565;60.2620772138984
315.284105484253;60.3335520881679
315.30570308194;60.3772845716374
315.327300679628;60.3854999556059
315.348898277316;60.3415954860248
315.370495875003;60.239574965571
315.392093472691;60.0839883055591
315.413691070379;59.8838510554372
315.435288668066;59.6501957338296
315.456886265754;59.3895702253164
315.478483863442;59.1005245863505
315.500081461129;58.7865825570393
315.521679058817;58.463105594011
315.543276656504;58.1532547214798
315.564874254192;57.863751423045
315.58647185188;57.5797754403075
315.608069449567;57.2941823346687
315.629667047255;57.0225004089867
315.651264644943;56.7658901908883
315.67286224263;56.5175785907923
315.694459840318;56.2678299613135
315.716057438006;56.0135889259239
315.737655035693;55.75175262776
315.759252633381;55.4862022030543
315.780850231068;55.218119207277
315.802447828756;54.9496189896668
315.824045426444;54.6744957163449
315.845643024131;54.3833676262971
315.867240621819;54.088421105032
315.888838219507;53.8160091877233
315.910435817194;53.575114238081
315.932033414882;53.3524184022256
315.95363101257;53.1270146260581
315.975228610257;52.8902811565516
315.996826207945;52.6523173302356
316.018423805632;52.4292333091635
316.04002140332;52.2323353050354
316.061619001008;52.0615149581992
316.083216598695;51.9183670075904
316.104814196383;51.8088849237611
316.126411794071;51.733817183771
316.148009391758;51.7099743406711
316.169606989446;51.7444667457744
316.191204587134;51.8186650592562
316.212802184821;51.9279288800279
316.234399782509;52.085885428827
316.255997380197;52.299127955902
316.277594977884;52.5501007933983
316.299192575572;52.8201704230834
316.320790173259;53.1035377247234
316.342387770947;53.4049945093888
316.363985368635;53.7189822686077
316.385582966322;54.0133792852691
316.40718056401;54.2569148227437
316.428778161698;54.4415430960517
316.450375759385;54.5733225700721
316.471973357073;54.673899023974
316.493570954761;54.7482847268372
316.515168552448;54.7903506428176
316.536766150136;54.7992613905056
316.558363747823;54.7922548040117
316.579961345511;54.7865322917145
316.601558943199;54.7855738066004
316.623156540886;54.7955843532942
316.644754138574;54.831430215148
316.666351736262;54.8987095905825
316.687949333949;54.9887783848519
316.709546931637;55.0884006615153
316.731144529325;55.194026953257
316.752742127012;55.3003636226723
316.7743397247;55.4013531203791
316.795937322387;55.4956390753596
316.817534920075;55.5740522052773
316.839132517763;55.6136579368454
316.86073011545;55.6066257703866
316.882327713138;55.568283739622
316.903925310826;55.5118970748554
316.925522908513;55.4356678739064
316.947120506201;55.3397493087848
316.968718103889;55.2359746817431
316.990315701576;55.1269049653358
317.011913299264;55.005601309763
317.033510896951;54.870119513448
317.055108494639;54.7203109868454
317.076706092327;54.5580099374211
317.098303690014;54.3844246111329
317.119901287702;54.20286158174
317.14149888539;54.0121954384261
317.163096483077;53.8128558570984
317.184694080765;53.6145661368405
317.206291678453;53.4177906194684
317.22788927614;53.217432173285
317.249486873828;53.0184270849302
317.271084471515;52.8316360983353
317.292682069203;52.6632715830694
317.314279666891;52.5078047871469
317.335877264578;52.3597984667523
317.357474862266;52.223326042023
317.379072459954;52.1043993425771
317.400670057641;52.0050177993008
317.422267655329;51.9185760942446
317.443865253017;51.8342064310823
317.465462850704;51.7596239767935
317.487060448392;51.7117233111984
317.508658046079;51.6974131009264
317.530255643767;51.7155088694667
317.551853241455;51.7665660118314
317.573450839142;51.8476797477151
317.59504843683;51.9529876022664
317.616646034518;52.0794925129696
317.638243632205;52.2247295095919
317.659841229893;52.3850240284507
317.681438827581;52.5542164415864
317.703036425268;52.7226285671444
317.724634022956;52.8812400335924
317.746231620644;53.0274799850188
317.767829218331;53.1650400185682
317.789426816019;53.2913340686439
317.811024413706;53.4023833962053
317.832622011394;53.4934549495925
317.854219609082;53.5655501956987
317.875817206769;53.623654452195
317.897414804457;53.6698829864464
317.919012402145;53.7014131665311
317.940609999832;53.7151332585178
317.96220759752;53.7132886748932
317.983805195208;53.7013273980486
318.005402792895;53.6861210433234
318.027000390583;53.6725799630639
318.04859798827;53.6579617827875
318.070195585958;53.6323448764123
318.091793183646;53.5857723479998
318.113390781333;53.5233153960528
318.134988379021;53.4464714569695
318.156585976709;53.3607761341673
318.178183574396;53.2674425501308
318.199781172084;53.1620426542953
318.221378769772;53.0425893112218
318.242976367459;52.9101688569394
318.264573965147;52.7614404548501
318.286171562834;52.5990289216253
318.307769160522;52.4338590666446
318.32936675821;52.2669817852818
318.350964355897;52.0971885879747
318.372561953585;51.923832951213
318.394159551273;51.7515183553661
318.41575714896;51.5834261184382
318.437354746648;51.4171428161326
318.458952344336;51.2551655016438
318.480549942023;51.1106607141131
318.502147539711;50.9835613899131
318.523745137398;50.8630044949133
318.545342735086;50.7417622745806
318.566940332774;50.622984710005
318.588537930461;50.5146690244771
318.610135528149;50.4151217427639
318.631733125837;50.3187611086916
318.653330723524;50.2277760661391
318.674928321212;50.1478408929785
318.6965259189;50.0727109754601
318.718123516587;49.9849949717823
318.739721114275;49.8792038669481
318.761318711962;49.7587257092485
318.78291630965;49.645355082691
318.804513907338;49.5424729666201
318.826111505025;49.4478454314179
318.847709102713;49.3587470129871
318.869306700401;49.2732236915394
318.890904298088;49.1891161795542
318.912501895776;49.1059756987119
318.934099493464;49.0253544998442
318.955697091151;48.9533893500735
318.977294688839;48.8839901773421
318.998892286526;48.813432855884
319.020489884214;48.7375565865685
319.042087481902;48.6494953062747
319.063685079589;48.5532383166705
319.085282677277;48.4555821508383
319.106880274965;48.364053982835
319.128477872652;48.286981809936
319.15007547034;48.2300195813094
319.171673068028;48.1846052063071
319.193270665715;48.1395478725788
319.214868263403;48.1057962097264
319.236465861091;48.0953153279748
319.258063458778;48.1029128310376
319.279661056466;48.1252515361859
319.301258654153;48.1563680254939
319.322856251841;48.1868160599567
319.344453849529;48.2095649686813
319.366051447216;48.227600943738
319.387649044904;48.2472762256802
319.409246642592;48.2572262712215
319.430844240279;48.2549900716202
319.452441837967;48.2469769222379
319.474039435655;48.2436227634846
319.495637033342;48.2441749169391
319.51723463103;48.2481450475441
319.538832228717;48.2556592271435
319.560429826405;48.2659933047083
319.582027424093;48.2865712389147
319.60362502178;48.3326596222972
319.625222619468;48.4044808234852
319.646820217156;48.4930976331633
319.668417814843;48.5931418404501
319.690015412531;48.7065183783063
319.711613010219;48.8266358619516
319.733210607906;48.9515369590623
319.754808205594;49.0792761479641
319.776405803281;49.195332250687
319.798003400969;49.2906228992205
319.819600998657;49.3694927194978
319.841198596344;49.4305210149275
319.862796194032;49.473115365995
319.88439379172;49.5008789633938
319.905991389407;49.5292800671805
319.927588987095;49.5691204181299
319.949186584783;49.6193129837096
319.97078418247;49.6845209635417
319.992381780158;49.7725095994289
320.013979377845;49.8780776574474
320.035576975533;49.9960766418526
320.057174573221;50.1307029954188
320.078772170908;50.2736994097715
320.100369768596;50.4200893629225
320.121967366284;50.5629356027594
320.143564963971;50.6920917565093
320.165162561659;50.795838856759
320.186760159347;50.8643841246932
320.208357757034;50.8908055218448
320.229955354722;50.8692110200704
320.25155295241;50.8031068311354
320.273150550097;50.6993945945082
320.294748147785;50.5570392477712
320.316345745472;50.3740549256942
320.33794334316;50.1560119832708
320.359540940848;49.9126696910592
320.381138538535;49.6522606368263
320.402736136223;49.3885726730246
320.424333733911;49.1317225458882
320.445931331598;48.8774875045847
320.467528929286;48.6142726593032
320.489126526974;48.3381677398981
320.510724124661;48.0652959204351
320.532321722349;47.8111865519651
320.553919320036;47.5769649218534
320.575516917724;47.3650564724283
320.597114515412;47.1817272259741
320.618712113099;47.0343034278669
320.640309710787;46.9261721676709
320.661907308475;46.8581334010257
320.683504906162;46.8354288565593
320.70510250385;46.8621394379211
320.726700101538;46.9342704226375
320.748297699225;47.0534078334132
320.769895296913;47.2195271372601
320.7914928946;47.4259417155412
320.813090492288;47.6710163564501
320.834688089976;47.9511004353544
320.856285687663;48.2577377907625
320.877883285351;48.5855818259068
320.899480883039;48.9148509984436
320.921078480726;49.2088076232051
320.942676078414;49.4670131696906
320.964273676102;49.6945327304941
320.985871273789;49.8817144166753
321.007468871477;50.0253901712279
321.029066469164;50.1357247917981
321.050664066852;50.2167582842715
321.07226166454;50.2654543512739
321.093859262227;50.2888151362735
321.115456859915;50.3055173834342
321.137054457603;50.3340307624512
321.15865205529;50.3869534945285
321.180249652978;50.4639106430236
321.201847250666;50.5595222575063
321.223444848353;50.672225837649
321.245042446041;50.7978048773526
321.266640043729;50.918645456609
321.288237641416;51.0100845635208
321.309835239104;51.060671255158
321.331432836791;51.0673993535702
321.353030434479;51.0275382559093
321.374628032167;50.9333018543775
321.396225629854;50.7749508450927
321.417823227542;50.5551804966582
321.43942082523;50.2850441342358
321.461018422917;49.9689608613184
321.482616020605;49.6123981732162
321.504213618293;49.2424682075786
321.52581121598;48.8908787367619
321.547408813668;48.5648983660109
321.569006411355;48.2581326792597
321.590604009043;47.9647646083115
321.612201606731;47.6950043493112
321.633799204418;47.4699070493338
321.655396802106;47.2992950149075
321.676994399794;47.1718833048005
321.698591997481;47.0686156943178
321.720189595169;46.9760184168648
321.741787192857;46.8897887232527
321.763384790544;46.8067744902699
321.784982388232;46.7168248090292
321.806579985919;46.6021257609208
321.828177583607;46.4569128378815
321.849775181295;46.3009182665938
321.871372778982;46.1497564559303
321.89297037667;45.9986620508412
321.914567974358;45.8359061288797
321.936165572045;45.6660148176703
321.957763169733;45.4939097129836
321.979360767421;45.3235285853614
322.000958365108;45.1513836015133
322.022555962796;44.9752428735587
322.044153560483;44.7889285821426
322.065751158171;44.5793059984644
322.087348755859;44.3450638613036
322.108946353546;44.1237836671874
322.130543951234;43.9169756043922
322.152141548922;43.7106262401114
322.173739146609;43.4996603592596
322.195336744297;43.2931928911647
322.216934341985;43.0984144905088
322.238531939672;42.9212203952184
322.26012953736;42.7726029730958
322.281727135048;42.655345454903
322.303324732735;42.5525230037462
322.324922330423;42.4506990667518
322.34651992811;42.3461689564224
322.368117525798;42.2520337961148
322.389715123486;42.1721599677144
322.411312721173;42.1079191351466
322.432910318861;42.0588469608695
322.454507916549;42.0261286526252
322.476105514236;42.0159559298863
322.497703111924;42.0388619357734
322.519300709612;42.0879557201281
322.540898307299;42.1507201316867
322.562495904987;42.218764541699
322.584093502674;42.2931866218417
322.605691100362;42.3795156890182
322.62728869805;42.4621813447561
322.648886295737;42.5305309056653
322.670483893425;42.5859213090208
322.692081491113;42.6168015319128
322.7136790888;42.6187127157231
322.735276686488;42.5987170584465
322.756874284176;42.5528806855384
322.778471881863;42.4657823463943
322.800069479551;42.3291955344347
322.821667077238;42.1389997132273
322.843264674926;41.897965591105
322.864862272614;41.6159877101794
322.886459870301;41.3067985724239
322.908057467989;40.9843856364493
322.929655065677;40.6560453777689
322.951252663364;40.3242161733984
322.972850261052;39.997568855452
322.99444785874;39.691398716433
323.016045456427;39.4268764364828
323.037643054115;39.2170341998969
323.059240651802;39.0728187317054
323.08083824949;39.0098230101527
323.102435847178;39.022429220536
323.124033444865;39.1085916611933
323.145631042553;39.2702358638102
323.167228640241;39.5052364291601
323.188826237928;39.8014398303816
323.210423835616;40.1530196668445
323.232021433304;40.5440984651278
323.253619030991;40.9492252033824
323.275216628679;41.328573967136
323.296814226366;41.6698688947435
323.318411824054;41.9736431274135
323.340009421742;42.2338160996654
323.361607019429;42.4492559584327
323.383204617117;42.617509462803
323.404802214805;42.7247664648747
323.426399812492;42.7545342216134
323.44799741018;42.7170403150756
323.469595007868;42.6237405969154
323.491192605555;42.4812144492737
323.512790203243;42.2991130953045
323.534387800931;42.0758430436381
323.555985398618;41.8085998392847
323.577582996306;41.5024215249418
323.599180593993;41.1778950366817
323.620778191681;40.8504052986216
323.642375789369;40.5377540339118
323.663973387056;40.2436725677692
323.685570984744;39.9654126325029
323.707168582432;39.6983752900461
323.728766180119;39.44552697645
323.750363777807;39.216350425766
323.771961375495;39.0146086209689
323.793558973182;38.8396876991095
323.81515657087;38.6928629733325
323.836754168557;38.5812261692533
323.858351766245;38.5041393555905
323.879949363933;38.455809346216
323.90154696162;38.4342629828964
323.923144559308;38.434462256616
323.944742156996;38.4595661990297
323.966339754683;38.5163644832653
323.987937352371;38.5920687479239
324.009534950059;38.6746337450881
324.031132547746;38.7680459198772
324.052730145434;38.8681085157438
324.074327743121;38.9709240082974
324.095925340809;39.0705692336702
324.117522938497;39.160199589185
324.139120536184;39.233502757511
324.160718133872;39.283353929976
324.18231573156;39.3050093167792
324.203913329247;39.2980460881248
324.225510926935;39.2588496110164
324.247108524623;39.1841470471961
324.26870612231;39.0704269908505
324.290303719998;38.9109866766344
324.311901317685;38.7351433744036
324.333498915373;38.5309463661158
324.355096513061;38.2854606558546
324.376694110748;38.0148325720333
324.398291708436;37.7358644802015
324.419889306124;37.4490613117757
324.441486903811;37.1526165441608
324.463084501499;36.8401118270324
324.484682099187;36.5191280299046
324.506279696874;36.2160830356652
324.527877294562;35.9419586564861
324.549474892249;35.6908395184484
324.571072489937;35.4776641331887
324.592670087625;35.3094859608815
324.614267685312;35.1889126877719
324.635865283;35.1280105241798
324.657462880688;35.1377356922936
324.679060478375;35.198767937633
324.700658076063;35.31534655566
324.722255673751;35.4841531699676
324.743853271438;35.6937490094862
324.765450869126;35.92820063737
