Name;BF_ESR_01_14400s_X_gon_80dg_result

Recipe
Accumulations;5;Number of accumulations
RetryCount;0;Number of retries on error
AbortOnError;True;Abort on error
EnableQFactorMeasurement;False;Enable/Disable q-Factor measurement
Bfrom;313;B from
Bto;363;B to
SweepTime;60;Sweep time
Modulation;0.2;Modulation
ModulationFreq;100;Modulation
BHoldEnabled;False;B hold enabled
BHold;0;B hold
MicrowavePower;2;Microwave power
MarkerEnabled;False;
MarkerStartField;0;
MarkerEndField;0;
Mode;;
KineticGFact;0;
KineticTotalTransientTime;0;
KineticTimeResolution;0;
TempFrom;5;
TempUseSlope;False;
TempTo;5;
TempdT;1;
TempSetupTime;0;
GonFrom;0;
GonTo;180;
GonSteps;20;
XRayEnabled;False;
XRayTime;3;
XRayVoltage;40;
XRayCurrent;0.5;
UVEnabled;False;
UVIntensity;0;
UVTime;0;
UVLeadTime;0;
UVWavelength;0;
PowSweepFrom;1;
PowSweepTo;5;
PowSweepSteps;5;
AmpModSweepFrom;0;
AmpModSweepTo;1;
AmpModSweepSteps;10;
ExtTriggerEnabled;False;
ExtTrigLeadTime;0;
ExtTrigOnTime;5;

Meas
BField [mT];MW_Absorption []
313.011769714355;141.521715048497
313.033374598561;141.373397807512
313.054979482767;141.240774419578
313.076584366973;141.182857669087
313.098189251179;141.204291089574
313.119794135384;141.305126138626
313.14139901959;141.474883819192
313.163003903796;141.701441873264
313.184608788002;141.977754810069
313.206213672207;142.288728836391
313.227818556413;142.600720597133
313.249423440619;142.882905099846
313.271028324825;143.126766555418
313.292633209031;143.331765844654
313.314238093236;143.501414364679
313.335842977442;143.63144514463
313.357447861648;143.710469452673
313.379052745854;143.726484879308
313.40065763006;143.684721997987
313.422262514265;143.596052641986
313.443867398471;143.459576315512
313.465472282677;143.278711260461
313.487077166883;143.060094524159
313.508682051088;142.811820757646
313.530286935294;142.540928705628
313.5518918195;142.249287501279
313.573496703706;141.930106572537
313.595101587912;141.57173392344
313.616706472117;141.187218082145
313.638311356323;140.806492513588
313.659916240529;140.442984260425
313.681521124735;140.096082040175
313.70312600894;139.761336305135
313.724730893146;139.434661368097
313.746335777352;139.147638597
313.767940661558;138.919218941409
313.789545545764;138.730385694331
313.811150429969;138.561635652332
313.832755314175;138.422963493978
313.854360198381;138.328371670926
313.875965082587;138.265509290806
313.897569966792;138.213052923223
313.919174850998;138.149986895535
313.940779735204;138.068814853397
313.96238461941;137.973298763813
313.983989503616;137.858628030681
314.005594387821;137.712490795691
314.027199272027;137.514496631628
314.048804156233;137.250504763115
314.070409040439;136.95055192421
314.092013924644;136.637095222669
314.11361880885;136.310654700049
314.135223693056;135.966326265003
314.156828577262;135.606873693597
314.178433461468;135.251434232107
314.200038345673;134.914853813163
314.221643229879;134.606094708294
314.243248114085;134.326183668345
314.264852998291;134.077055512209
314.286457882496;133.860359515664
314.308062766702;133.671932489241
314.329667650908;133.511274486325
314.351272535114;133.379079180142
314.37287741932;133.276267693398
314.394482303525;133.195593540701
314.416087187731;133.125582516854
314.437692071937;133.061976547416
314.459296956143;133.011795945201
314.480901840349;132.988885970898
314.502506724554;132.999930012809
314.52411160876;133.026068812047
314.545716492966;133.039772264278
314.567321377172;133.028873509991
314.588926261377;133.000318082849
314.610531145583;132.948131156782
314.632136029789;132.864592322966
314.653740913995;132.734380593535
314.675345798201;132.549640435747
314.696950682406;132.309134856958
314.718555566612;132.027823366344
314.740160450818;131.721047674901
314.761765335024;131.392053807653
314.783370219229;131.040170588974
314.804975103435;130.671171376611
314.826579987641;130.298905993639
314.848184871847;129.930719981659
314.869789756053;129.571094382657
314.891394640258;129.241703030401
314.912999524464;128.959582394626
314.93460440867;128.719207107468
314.956209292876;128.511923399098
314.977814177081;128.33992436598
314.999419061287;128.203536521731
315.021023945493;128.094592324028
315.042628829699;128.003262759881
315.064233713905;127.919280706384
315.08583859811;127.838571124107
315.107443482316;127.756948564125
315.129048366522;127.664961513925
315.150653250728;127.556120321668
315.172258134933;127.434158948355
315.193863019139;127.30101274033
315.215467903345;127.148312228862
315.237072787551;126.97228285997
315.258677671757;126.782583846326
315.280282555962;126.599449379357
315.301887440168;126.419027579581
315.323492324374;126.224738033742
315.34509720858;126.049965557603
315.366702092785;125.911494317995
315.388306976991;125.813912140105
315.409911861197;125.758935216681
315.431516745403;125.742845859075
315.453121629609;125.757192295178
315.474726513814;125.796325838248
315.49633139802;125.84862409395
315.517936282226;125.894325860718
315.539541166432;125.919226223668
315.561146050637;125.916397877884
315.582750934843;125.876439023978
315.604355819049;125.788996624414
315.625960703255;125.638494821328
315.647565587461;125.416276595612
315.669170471666;125.131446749798
315.690775355872;124.791084265782
315.712380240078;124.3896652786
315.733985124284;123.935250594171
315.755590008489;123.456344838522
315.777194892695;122.964093382085
315.798799776901;122.435400449226
315.820404661107;121.879137806937
315.842009545313;121.343096401927
315.863614429518;120.820557016993
315.885219313724;120.310357085702
315.90682419793;119.864023478897
315.928429082136;119.491853401456
315.950033966342;119.164274754913
315.971638850547;118.871630385302
315.993243734753;118.615606206738
316.014848618959;118.374612572504
316.036453503165;118.149167137961
316.05805838737;117.936045929681
316.079663271576;117.714078063803
316.101268155782;117.476412231888
316.122873039988;117.227205673939
316.144477924194;116.970680414275
316.166082808399;116.714709910896
316.187687692605;116.464989914213
316.209292576811;116.210334806532
316.230897461017;115.916680303583
316.252502345222;115.603488917085
316.274107229428;115.315589555071
316.295712113634;115.058507994593
316.31731699784;114.821062154909
316.338921882046;114.596692450458
316.360526766251;114.384031352875
316.382131650457;114.186416514553
316.403736534663;114.009023070756
316.425341418869;113.853469776298
316.446946303074;113.722344586067
316.46855118728;113.616496083102
316.490156071486;113.532198264898
316.511760955692;113.460180700165
316.533365839898;113.389213311783
316.554970724103;113.327400850533
316.576575608309;113.290216134125
316.598180492515;113.264574687234
316.619785376721;113.223258444406
316.641390260926;113.159622386882
316.662995145132;113.071498760385
316.684600029338;112.946794895534
316.706204913544;112.775685708353
316.72780979775;112.582637077368
316.749414681955;112.381414548737
316.771019566161;112.163639364816
316.792624450367;111.903454472033
316.814229334573;111.583275457277
316.835834218778;111.234026783012
316.857439102984;110.890129925931
316.87904398719;110.531393866248
316.900648871396;110.131742454172
316.922253755602;109.674594417656
316.943858639807;109.151107778254
316.965463524013;108.557213773636
316.987068408219;107.899407756703
317.008673292425;107.182219212093
317.030278176631;106.424025718537
317.051883060836;105.628910324577
317.073487945042;104.788660398994
317.095092829248;103.901991161018
317.116697713454;102.977668034937
317.138302597659;102.048450075133
317.159907481865;101.15362815333
317.181512366071;100.321126407095
317.203117250277;99.5489491436116
317.224722134483;98.8222202928412
317.246327018688;98.1530823534008
317.267931902894;97.5352756745665
317.2895367871;96.9539938642518
317.311141671306;96.4148334298414
317.332746555511;95.9112633288366
317.354351439717;95.4230099471718
317.375956323923;94.9182097348925
317.397561208129;94.382004122076
317.419166092335;93.8284257884101
317.44077097654;93.2620544678011
317.462375860746;92.6801853962755
317.483980744952;92.088552426642
317.505585629158;91.4985147580454
317.527190513363;90.9297871235937
317.548795397569;90.4019952320485
317.570400281775;89.9223315055764
317.592005165981;89.5027260625746
317.613610050187;89.1479327729885
317.635214934392;88.8503124089944
317.656819818598;88.6048309819513
317.678424702804;88.4141974791142
317.70002958701;88.2718966798599
317.721634471215;88.1629559361988
317.743239355421;88.0843345133789
317.764844239627;88.0262163517784
317.786449123833;87.9858259928341
317.808054008039;87.9620621842033
317.829658892244;87.9533582024866
317.85126377645;87.9613836298407
317.872868660656;87.9915664054022
317.894473544862;88.0494837303761
317.916078429068;88.1397988812771
317.937683313273;88.2666192274999
317.959288197479;88.4346498202363
317.980893081685;88.6440460047775
318.002497965891;88.8935842406546
318.024102850096;89.1761074133999
318.045707734302;89.4779976506937
318.067312618508;89.7939822075159
318.088917502714;90.1232657570113
318.11052238692;90.4515387352188
318.132127271125;90.7586395269734
318.153732155331;91.0334913935347
318.175337039537;91.2744090417213
318.196941923743;91.4927225923495
318.218546807948;91.6836106945021
318.240151692154;91.8217522259352
318.26175657636;91.9044047423848
318.283361460566;91.9508834932232
318.304966344772;91.9739798464229
318.326571228977;91.9776755192501
318.348176113183;91.9673942940119
318.369780997389;91.9560409039912
318.391385881595;91.9542387894321
318.4129907658;91.9630256793271
318.434595650006;91.9915798305897
318.456200534212;92.0484857590082
318.477805418418;92.1453538824081
318.499410302624;92.2886124485657
318.521015186829;92.4689921475903
318.542620071035;92.6807122886337
318.564224955241;92.9237802175398
318.585829839447;93.1885015786415
318.607434723652;93.4434187328438
318.629039607858;93.6826627685981
318.650644492064;93.9192997256949
318.67224937627;94.1582970611341
318.693854260476;94.3658532394383
318.715459144681;94.5198009302676
318.737064028887;94.6316631034189
318.758668913093;94.7166698964971
318.780273797299;94.7842535446407
318.801878681504;94.836233156295
318.82348356571;94.8760953648046
318.845088449916;94.9163398419789
318.866693334122;94.9673144454973
318.888298218328;95.0406351232116
318.909903102533;95.1403389511449
318.931507986739;95.2597109993192
318.953112870945;95.3986528074207
318.974717755151;95.5581651384261
318.996322639356;95.7354564716654
319.017927523562;95.9315051386401
319.039532407768;96.1493095202869
319.061137291974;96.3838643096858
319.08274217618;96.6181982816952
319.104347060385;96.8457535378812
319.125951944591;97.0652879809405
319.147556828797;97.2640542615443
319.169161713003;97.4395205299686
319.190766597208;97.5996379635522
319.212371481414;97.7521482359904
319.23397636562;97.8973544872594
319.255581249826;98.0204192418308
319.277186134032;98.1217572665452
319.298791018237;98.2110357590785
319.320395902443;98.2875651767874
319.342000786649;98.3483459618241
319.363605670855;98.3987019838507
319.385210555061;98.4577739246176
319.406815439266;98.5367111535696
319.428420323472;98.616976524532
319.450025207678;98.6779912556933
319.471630091884;98.7224233153413
319.493234976089;98.7602974107648
319.514839860295;98.7996180720327
319.536444744501;98.843071867063
319.558049628707;98.8898038025845
319.579654512913;98.9379365456661
319.601259397118;98.9880696046014
319.622864281324;99.0376921535384
319.64446916553;99.0810657763223
319.666074049736;99.1272491557587
319.687678933941;99.184299678151
319.709283818147;99.2516777508653
319.730888702353;99.3244072816375
319.752493586559;99.4082064154146
319.774098470765;99.5010072123993
319.79570335497;99.5882979294671
319.817308239176;99.6608217989202
319.838913123382;99.715063680426
319.860518007588;99.7390530137852
319.882122891793;99.7224633505568
319.903727775999;99.6777571575137
319.925332660205;99.6172868648374
319.946937544411;99.5375278306608
319.968542428617;99.4267416961988
319.990147312822;99.2850534155157
320.011752197028;99.1266381259395
320.033357081234;98.9617025979051
320.05496196544;98.7960462295346
320.076566849645;98.6403779890611
320.098171733851;98.5088701507981
320.119776618057;98.4144103489554
320.141381502263;98.366481741462
320.162986386469;98.3711105696266
320.184591270674;98.4273665539312
320.20619615488;98.5327271351981
320.227801039086;98.6855010494952
320.249405923292;98.8587393869758
320.271010807497;99.0319750126884
320.292615691703;99.2017352682921
320.314220575909;99.365914576689
320.335825460115;99.4997109278909
320.357430344321;99.569092467886
320.379035228526;99.5646220003746
320.400640112732;99.4802411437187
320.422244996938;99.3003741395169
320.443849881144;99.0241263495845
320.46545476535;98.666192083027
320.487059649555;98.23323953219
320.508664533761;97.7407245279262
320.530269417967;97.2140536444543
320.551874302173;96.675164591056
320.573479186378;96.1302820517845
320.595084070584;95.57987561383
320.61668895479;95.036003084653
320.638293838996;94.5230221351495
320.659898723202;94.0517104152515
320.681503607407;93.6227069878553
320.703108491613;93.2506340760618
320.724713375819;92.9270001507389
320.746318260025;92.6379661815531
320.76792314423;92.3822533987831
320.789528028436;92.1504611115505
320.811132912642;91.9186834640013
320.832737796848;91.6711908991604
320.854342681054;91.3959503895163
320.875947565259;91.0822050054781
320.897552449465;90.7331466038993
320.919157333671;90.3654806822936
320.940762217877;89.9882016544578
320.962367102082;89.5913710599141
320.983971986288;89.170455554209
321.005576870494;88.7499460808486
321.0271817547;88.3533408634774
321.048786638906;87.980099419918
321.070391523111;87.6228592440524
321.091996407317;87.2812020975842
321.113601291523;86.9576694937805
321.135206175729;86.6495653394053
321.156811059934;86.3561609092115
321.17841594414;86.0822062761057
321.200020828346;85.8290477892032
321.221625712552;85.5922207592216
321.243230596758;85.3675017064311
321.264835480963;85.1547687883482
321.286440365169;84.9553885191765
321.308045249375;84.7796010183413
321.329650133581;84.6310684780274
321.351255017786;84.5065733249419
321.372859901992;84.4049363734709
321.394464786198;84.3198666058484
321.416069670404;84.2480470117932
321.43767455461;84.191731172363
321.459279438815;84.1546661713269
321.480884323021;84.1327991871861
321.502489207227;84.1161958731852
321.524094091433;84.0956822335697
321.545698975639;84.0622688496199
321.567303859844;84.0098963029727
321.58890874405;83.9306866138511
321.610513628256;83.8115057770591
321.632118512462;83.6525125660426
321.653723396667;83.463652642405
321.675328280873;83.2505491195813
321.696933165079;83.0166840319799
321.718538049285;82.770963726982
321.740142933491;82.5162796806422
321.761747817696;82.2498249127893
321.783352701902;81.971602525425
321.804957586108;81.6976907159791
321.826562470314;81.4509319779796
321.848167354519;81.2411489106869
321.869772238725;81.0645761352213
321.891377122931;80.9145594459432
321.912982007137;80.7902104755889
321.934586891343;80.6983891374217
321.956191775548;80.6444300894525
321.977796659754;80.6227199033331
321.99940154396;80.6176643453661
322.021006428166;80.6161616934031
322.042611312371;80.6197148542559
322.064216196577;80.6343624670187
322.085821080783;80.6585984969764
322.107425964989;80.6897564201385
322.129030849195;80.7212598269401
322.1506357334;80.7442457941875
322.172240617606;80.7546293029063
322.193845501812;80.7600840166731
322.215450386018;80.7682102123971
322.237055270223;80.7878407272166
322.258660154429;80.8229812808417
322.280265038635;80.8758487202187
322.301869922841;80.952846467722
322.323474807047;81.0673405110419
322.345079691252;81.229091930124
322.366684575458;81.4316537864991
322.388289459664;81.6750604601685
322.40989434387;81.9567010601648
322.431499228076;82.2596600384493
322.453104112281;82.5685157702104
322.474708996487;82.8813027366895
322.496313880693;83.2011283991337
322.517918764899;83.5106212350971
322.539523649104;83.7862335313623
322.56112853331;84.0254253245118
322.582733417516;84.2202184179035
322.604338301722;84.3581993277606
322.625943185928;84.4435616416533
322.647548070133;84.4853696900298
322.669152954339;84.4900830635781
322.690757838545;84.4635497220793
322.712362722751;84.4064936509332
322.733967606956;84.3156771600035
322.755572491162;84.1916113755248
322.777177375368;84.0459908326085
322.798782259574;83.8858246974012
322.82038714378;83.7095948364079
322.841992027985;83.5131089818835
322.863596912191;83.2971516081962
322.885201796397;83.068551773211
322.906806680603;82.832566497943
322.928411564808;82.589578893419
322.950016449014;82.3453585108887
322.97162133322;82.0995198227008
322.993226217426;81.8529812192916
323.014831101632;81.6085355464172
323.036435985837;81.3682237042305
323.058040870043;81.1364826622849
323.079645754249;80.9072710356574
323.101250638455;80.6729467059483
323.12285552266;80.431140946605
323.144460406866;80.1829981883496
323.166065291072;79.9390766790198
323.187670175278;79.7023909287491
323.209275059484;79.4716171569333
323.230879943689;79.2472993198445
323.252484827895;79.0293263641149
323.274089712101;78.8138465118687
323.295694596307;78.6134665486222
323.317299480512;78.4354167119887
323.338904364718;78.2761059220654
323.360509248924;78.1264287677189
323.38211413313;77.9839103573247
323.403719017336;77.8557683762512
323.425323901541;77.7389833068959
323.446928785747;77.615052228999
323.468533669953;77.4679207193748
323.490138554159;77.2929544908444
323.511743438364;77.0938218654702
323.53334832257;76.8758920808945
323.554953206776;76.6340677150166
323.576558090982;76.3538381553672
323.598162975188;76.0247302855039
323.619767859393;75.6567774455993
323.641372743599;75.260409744967
323.662977627805;74.846027308308
323.684582512011;74.4162208365386
323.706187396216;73.9841656800955
323.727792280422;73.5640656503671
323.749397164628;73.1656662774479
323.771002048834;72.7886821307846
323.79260693304;72.4283419697636
323.814211817245;72.0741485620906
323.835816701451;71.7310462746248
323.857421585657;71.4222263612286
323.879026469863;71.1686918375592
323.900631354068;70.9685336811311
323.922236238274;70.8092150379291
323.94384112248;70.6761019894344
323.965446006686;70.567362355192
323.987050890892;70.4847591981858
324.008655775097;70.4340940877348
324.030260659303;70.4102281215889
324.051865543509;70.4042185454421
324.073470427715;70.4047601349022
324.095075311921;70.4004771302705
324.116680196126;70.3823551050538
324.138285080332;70.3458456188712
324.159889964538;70.2890987865764
324.181494848744;70.2110270804523
324.203099732949;70.1093907093437
324.224704617155;69.977311941567
324.246309501361;69.8175676668613
324.267914385567;69.6392701166462
324.289519269773;69.4419279807199
324.311124153978;69.2080607584429
324.332729038184;68.949797493067
324.35433392239;68.683606387486
324.375938806596;68.4049837927852
324.397543690801;68.1150457595785
324.419148575007;67.8064250109501
324.440753459213;67.465027732984
324.462358343419;67.1065281376006
324.483963227625;66.7494482777176
324.50556811183;66.3811169153072
324.527172996036;65.9841006338354
324.548777880242;65.5621074287928
324.570382764448;65.1418807637493
324.591987648653;64.7352274851083
324.613592532859;64.3449019356495
324.635197417065;63.9710208439564
324.656802301271;63.6156911210197
324.678407185477;63.2790110552402
324.700012069682;62.9783565545536
324.721616953888;62.7329814419975
324.743221838094;62.5413653220939
