Name;BF_ESR_01_90s_Z_gon_100dg_result

Recipe
Accumulations;5;Number of accumulations
RetryCount;0;Number of retries on error
AbortOnError;True;Abort on error
EnableQFactorMeasurement;False;Enable/Disable q-Factor measurement
Bfrom;313;B from
Bto;363;B to
SweepTime;60;Sweep time
Modulation;0.2;Modulation
ModulationFreq;100;Modulation
BHoldEnabled;False;B hold enabled
BHold;0;B hold
MicrowavePower;2;Microwave power
MarkerEnabled;False;
MarkerStartField;0;
MarkerEndField;0;
Mode;;
KineticGFact;0;
KineticTotalTransientTime;0;
KineticTimeResolution;0;
TempFrom;5;
TempUseSlope;False;
TempTo;5;
TempdT;1;
TempSetupTime;0;
GonFrom;0;
GonTo;180;
GonSteps;20;
XRayEnabled;False;
XRayTime;3;
XRayVoltage;40;
XRayCurrent;0.5;
UVEnabled;False;
UVIntensity;0;
UVTime;0;
UVLeadTime;0;
UVWavelength;0;
PowSweepFrom;1;
PowSweepTo;5;
PowSweepSteps;5;
AmpModSweepFrom;0;
AmpModSweepTo;1;
AmpModSweepSteps;10;
ExtTriggerEnabled;False;
ExtTrigLeadTime;0;
ExtTrigOnTime;5;

Meas
BField [mT];MW_Absorption []
313.026174240112;59.8350182887879
313.04779057145;59.6776053481669
313.069406902787;59.556522079291
313.091023234124;59.4642319993911
313.112639565462;59.3814014516535
313.134255896799;59.2878866926863
313.155872228136;59.1945755733476
313.177488559474;59.1343641383519
313.199104890811;59.1049583903971
313.220721222148;59.0827799240651
313.242337553486;59.0532957055833
313.263953884823;59.0211933401252
313.28557021616;59.001865801575
313.307186547498;58.9924481937287
313.328802878835;58.9782233572572
313.350419210172;58.9527807314533
313.37203554151;58.9166522567486
313.393651872847;58.8672076558173
313.415268204184;58.7962964713539
313.436884535522;58.7022157363505
313.458500866859;58.5975086237617
313.480117198196;58.4929797341831
313.501733529534;58.3855610034053
313.523349860871;58.2730283836456
313.544966192208;58.1707999943681
313.566582523546;58.0948360119017
313.588198854883;58.0493136421036
313.60981518622;58.0311386934004
313.631431517558;58.0364083413816
313.653047848895;58.0590953223991
313.674664180232;58.0951747119887
313.69628051157;58.1418865209245
313.717896842907;58.1917780958808
313.739513174244;58.2401446917592
313.761129505582;58.2852317104169
313.782745836919;58.322500783489
313.804362168256;58.3476389857955
313.825978499594;58.3579150638209
313.847594830931;58.3525877708579
313.869211162268;58.3317796924688
313.890827493606;58.2908337227013
313.912443824943;58.2262961225151
313.93406015628;58.1438469985816
313.955676487618;58.0509971685239
313.977292818955;57.9510590387776
313.998909150292;57.8346439965149
314.02052548163;57.6934644305511
314.042141812967;57.5272540421439
314.063758144304;57.3492059904383
314.085374475642;57.1816094191816
314.106990806979;57.0409000965251
314.128607138316;56.931885198703
314.150223469654;56.8500946292532
314.171839800991;56.7963570795488
314.193456132328;56.780299246357
314.215072463666;56.8026133813235
314.236688795003;56.8475312418511
314.25830512634;56.9099297176032
314.279921457678;56.9891856656763
314.301537789015;57.0791570200806
314.323154120352;57.1625477032114
314.34477045169;57.2335170489838
314.366386783027;57.2909257332959
314.388003114364;57.3239426841139
314.409619445702;57.3229018257239
314.431235777039;57.2793419536765
314.452852108376;57.1776906575259
314.474468439714;57.017432951478
314.496084771051;56.8121033045389
314.517701102388;56.5711790045004
314.539317433726;56.2988204129993
314.560933765063;55.9971514704993
314.5825500964;55.6805667784856
314.604166427738;55.3669797544504
314.625782759075;55.0634227710097
314.647399090412;54.7824585498665
314.66901542175;54.5407488300106
314.690631753087;54.3377895593854
314.712248084424;54.1644176594768
314.733864415762;54.0205951727497
314.755480747099;53.9147553355086
314.777097078436;53.8444601502247
314.798713409774;53.7965836079198
314.820329741111;53.7618534190645
314.841946072448;53.7393515692737
314.863562403786;53.735048726833
314.885178735123;53.7525344924421
314.90679506646;53.7807080479744
314.928411397798;53.8029063149115
314.950027729135;53.81752216895
314.971644060472;53.8363618276595
314.99326039181;53.8627709369156
315.014876723147;53.8969576774259
315.036493054484;53.9377190880776
315.058109385822;53.9829906182029
315.079725717159;54.0331664445151
315.101342048496;54.0837619502192
315.122958379834;54.1225340860887
315.144574711171;54.1418193240607
315.166191042508;54.140144287677
315.187807373846;54.1225105214084
315.209423705183;54.0940476784873
315.23104003652;54.0496047969081
315.252656367858;53.9920055230493
315.274272699195;53.9233514057717
315.295889030532;53.8414015365814
315.31750536187;53.7583396682031
315.339121693207;53.6833142306496
315.360738024545;53.61251517006
315.382354355882;53.5436137139226
315.403970687219;53.4797304071215
315.425587018556;53.428513444898
315.447203349894;53.4001860226871
315.468819681231;53.3896666997159
315.490436012568;53.3945091578323
315.512052343906;53.4194015377899
315.533668675243;53.4708052542916
315.555285006581;53.5522888891411
315.576901337918;53.6710689666788
315.598517669255;53.8264225509443
315.620134000592;54.0159734992319
315.64175033193;54.2373841493887
315.663366663267;54.4751972785177
315.684982994605;54.7110481327512
315.706599325942;54.9401159986027
315.728215657279;55.1595996717792
315.749831988617;55.3561256181594
315.771448319954;55.5091288352762
315.793064651291;55.6084309420569
315.814680982629;55.6482382329606
315.836297313966;55.6243396196789
315.857913645303;55.5333069173321
315.879529976641;55.3691318846807
315.901146307978;55.1304694777062
315.922762639315;54.829506181969
315.944378970653;54.4838302011715
315.96599530199;54.1025372360936
315.987611633327;53.6903095976669
316.009227964665;53.2377441337008
316.030844296002;52.7373507478055
316.052460627339;52.214266249464
316.074076958677;51.6950856776079
316.095693290014;51.1888467051159
316.117309621351;50.7137963688111
316.138925952689;50.2942172746067
316.160542284026;49.938798925775
316.182158615363;49.6373240564044
316.203774946701;49.3755943570699
316.225391278038;49.1450762602238
316.247007609375;48.9531245968246
316.268623940713;48.8169239509331
316.29024027205;48.7386429772094
316.311856603387;48.7008706980052
316.333472934725;48.6917212888494
316.355089266062;48.7151115507281
316.376705597399;48.7847434686786
316.398321928737;48.8980137775516
316.419938260074;49.0414990083257
316.441554591411;49.2023679111024
316.463170922749;49.3760602327638
316.484787254086;49.5652191405475
316.506403585423;49.7758484830223
316.528019916761;50.0107468223915
316.549636248098;50.2499627111773
316.571252579435;50.4765679950446
316.592868910773;50.6901697602963
316.61448524211;50.8978226662194
316.636101573447;51.0906898309314
316.657717904785;51.2455571419068
316.679334236122;51.3565626838987
316.700950567459;51.4255442286841
316.722566898797;51.4597800891952
316.744183230134;51.4677831891457
316.765799561471;51.4475873870824
316.787415892809;51.399301023548
316.809032224146;51.325666341501
316.830648555483;51.2293102285515
316.852264886821;51.1204964662787
316.873881218158;50.9980971942953
316.895497549495;50.8597187062993
316.917113880833;50.710798033041
316.93873021217;50.5564522262684
316.960346543507;50.4002800453862
316.981962874845;50.2601244521671
317.003579206182;50.142030228582
317.025195537519;50.037274017863
317.046811868857;49.9423019751182
317.068428200194;49.8667733847396
317.090044531531;49.8179839097422
317.111660862869;49.7918980726162
317.133277194206;49.7824434601991
317.154893525543;49.7882248813145
317.176509856881;49.8139772363283
317.198126188218;49.855166094087
317.219742519555;49.9028398673278
317.241358850893;49.954600020038
317.26297518223;50.0036440053485
317.284591513567;50.0406533976143
317.306207844905;50.0620093943536
317.327824176242;50.0671443402037
317.349440507579;50.0552531924011
317.371056838917;50.0222285518628
317.392673170254;49.9697235534981
317.414289501591;49.9089391441277
317.435905832929;49.8471439976205
317.457522164266;49.7870031302524
317.479138495603;49.7362256069725
317.500754826941;49.702855144014
317.522371158278;49.687059677828
317.543987489615;49.678196986781
317.565603820953;49.6778232260981
317.58722015229;49.6881869118688
317.608836483627;49.7136911050556
317.630452814965;49.748749239212
317.652069146302;49.7786587172968
317.673685477639;49.7936012983945
317.695301808977;49.7934933568589
317.716918140314;49.7802155324081
317.738534471651;49.7509448716563
317.760150802989;49.6982730848461
317.781767134326;49.6118991467729
317.803383465663;49.5078590643004
317.824999797001;49.4150522464518
317.846616128338;49.3344215681967
317.868232459675;49.2570924788706
317.889848791013;49.17805866959
317.91146512235;49.0950158502554
317.933081453687;49.0088351887073
317.954697785025;48.9197759281421
317.976314116362;48.8212546756464
317.997930447699;48.7089987072399
318.019546779037;48.5990398030481
318.041163110374;48.4878686271453
318.062779441711;48.358954881804
318.084395773049;48.2065626371352
318.106012104386;48.0333391331506
318.127628435723;47.8473562567883
318.149244767061;47.6553432772343
318.170861098398;47.4695046697713
318.192477429735;47.3033171186851
318.214093761073;47.1631145954396
318.23571009241;47.0450806945575
318.257326423747;46.9434785552643
318.278942755085;46.8648030160498
318.300559086422;46.8246876733934
318.322175417759;46.8310014953178
318.343791749097;46.8760783969913
318.365408080434;46.9454288449889
318.387024411771;47.0295514858709
318.408640743109;47.113461245949
318.430257074446;47.1780956480309
318.451873405783;47.2251400111472
318.473489737121;47.253092820951
318.495106068458;47.2522064164462
318.516722399795;47.2256645067976
318.538338731133;47.1724094696811
318.55995506247;47.1056784262403
318.581571393807;47.0226580239522
318.603187725145;46.922013328624
318.624804056482;46.8121664737078
318.646420387819;46.7087833370221
318.668036719157;46.6107449769378
318.689653050494;46.5188455426182
318.711269381831;46.437501480964
318.732885713169;46.3623389933096
318.754502044506;46.2934926898267
318.776118375843;46.2287896298951
318.797734707181;46.1617843526885
318.819351038518;46.0920384366278
318.840967369855;46.0299134854985
318.862583701193;45.9738373287592
318.88420003253;45.9259447417111
318.905816363867;45.8888132473726
318.927432695205;45.8758303488619
318.949049026542;45.8894532259082
318.970665357879;45.9226715718089
318.992281689217;45.9728414041072
319.013898020554;46.044491383624
319.035514351891;46.1393056309852
319.057130683229;46.250644324254
319.078747014566;46.3710417344688
319.100363345903;46.4959493336398
319.121979677241;46.6160318806405
319.143596008578;46.7239092111749
319.165212339915;46.8185023492383
319.186828671253;46.8917749109532
319.20844500259;46.9334493802083
319.230061333927;46.9289523111117
319.251677665265;46.8855776800936
319.273293996602;46.809697770752
319.294910327939;46.7057559380736
319.316526659277;46.5748124817405
319.338142990614;46.4226002152409
319.359759321951;46.2622485950073
319.381375653289;46.1058061752763
319.402991984626;45.9610662759195
319.424608315963;45.8400940249143
319.446224647301;45.7491275467402
319.467840978638;45.6819842251638
319.489457309975;45.6285984263537
319.511073641313;45.583642821168
319.53268997265;45.5438373483255
319.554306303987;45.5070853054264
319.575922635325;45.4659812079513
319.597538966662;45.4127147535756
319.619155297999;45.3437366873848
319.640771629337;45.2575686147734
319.662387960674;45.1547134374997
319.684004292011;45.0389953544832
319.705620623349;44.9148140661489
319.727236954686;44.789316563331
319.748853286023;44.6730698206058
319.770469617361;44.5760841262885
319.792085948698;44.5058141915865
319.813702280036;44.4640037072295
319.835318611373;44.4545417499559
319.85693494271;44.4757533837944
319.878551274047;44.5220740730908
319.900167605385;44.5883841454363
319.921783936722;44.6715523674
319.943400268059;44.7688559341515
319.965016599397;44.8784009869841
319.986632930734;44.9916525909564
320.008249262072;45.0979377763589
320.029865593409;45.1926412491651
320.051481924746;45.2714751604084
320.073098256083;45.3324963292443
320.094714587421;45.3770940563392
320.116330918758;45.4029561195939
320.137947250096;45.4066185815286
320.159563581433;45.3919003235264
320.18117991277;45.3670541739774
320.202796244108;45.3353969837801
320.224412575445;45.2995378890536
320.246028906782;45.2645367890954
320.26764523812;45.2316439650109
320.289261569457;45.2002018295762
320.310877900794;45.176023147754
320.332494232132;45.1715341027381
320.354110563469;45.2001724296686
320.375726894806;45.2682507632445
320.397343226144;45.3722618881319
320.418959557481;45.5111822638336
320.440575888818;45.6870554563256
320.462192220156;45.9028274631587
320.483808551493;46.1499593526825
320.50542488283;46.4094769519078
320.527041214168;46.6660892512032
320.548657545505;46.9039839954486
320.570273876842;47.1153952953054
320.59189020818;47.3029353056123
320.613506539517;47.458746986309
320.635122870854;47.5677116818607
320.656739202192;47.6195619283818
320.678355533529;47.6235972304536
320.699971864866;47.5910911857814
320.721588196204;47.5241133994908
320.743204527541;47.4145206482125
320.764820858878;47.2714636403964
320.786437190216;47.1042003504258
320.808053521553;46.9127091571279
320.82966985289;46.6836817093232
320.851286184228;46.4094928970143
320.872902515565;46.1177593143696
320.894518846902;45.8279402616556
320.91613517824;45.5446911421108
320.937751509577;45.2639716896008
320.959367840914;44.982617231643
320.980984172252;44.7067434442783
321.002600503589;44.4496682759296
321.024216834926;44.2215694648332
321.045833166264;44.0224434808817
321.067449497601;43.8498766006202
321.089065828938;43.7058048082912
321.110682160276;43.5898763153481
321.132298491613;43.4935224227016
321.15391482295;43.4023181135391
321.175531154288;43.3014442780369
321.197147485625;43.1829552304453
321.218763816962;43.043167486538
321.2403801483;42.8784893650138
321.261996479637;42.6829123674301
321.283612810974;42.4488842968898
321.305229142312;42.1871284131113
321.326845473649;41.9310579596543
321.348461804986;41.6782973380641
321.370078136324;41.421360472794
321.391694467661;41.1790288971322
321.413310798998;40.9658844858566
321.434927130336;40.7812258585644
321.456543461673;40.6292780338168
321.47815979301;40.5147524970086
321.499776124348;40.432035044967
321.521392455685;40.3750290068425
321.543008787022;40.347185210855
321.56462511836;40.3465160845579
321.586241449697;40.3656647833649
321.607857781034;40.4032247501229
321.629474112372;40.4552313771616
321.651090443709;40.5238478534249
321.672706775046;40.6185893795042
321.694323106384;40.7507982142812
321.715939437721;40.9237769490433
321.737555769058;41.1217614795289
321.759172100396;41.3233826574671
321.780788431733;41.5274234087546
321.80240476307;41.7365061925752
321.824021094408;41.9498955308326
321.845637425745;42.1549407447303
321.867253757082;42.3347090256705
321.88887008842;42.4835117281247
321.910486419757;42.5996387381915
321.932102751094;42.6804770182857
321.953719082432;42.7189498567344
321.975335413769;42.7166021086821
321.996951745106;42.6750001763808
322.018568076444;42.5924232230234
322.040184407781;42.4708980864394
322.061800739118;42.3237096699528
322.083417070456;42.1579390875935
322.105033401793;41.9718631374512
322.12664973313;41.7720383060421
322.148266064468;41.5629991645622
322.169882395805;41.3452937535618
322.191498727142;41.1250872571341
322.21311505848;40.9095302340908
322.234731389817;40.6991177625301
322.256347721154;40.4892300255012
322.277964052492;40.2699030929341
322.299580383829;40.0336034106992
322.321196715166;39.7932378590829
322.342813046504;39.5613558223681
322.364429377841;39.3384857877783
322.386045709178;39.1322048493509
322.407662040516;38.942615658453
322.429278371853;38.7622800179945
322.45089470319;38.5842566491983
322.472511034528;38.411264135172
322.494127365865;38.2484910325487
322.515743697202;38.0964654518282
322.53736002854;37.945149290158
322.558976359877;37.786979119609
322.580592691214;37.611948549495
322.602209022552;37.4109897858042
322.623825353889;37.1808836201097
322.645441685226;36.9312967038205
322.667058016564;36.6665439850357
322.688674347901;36.3959299678089
322.710290679238;36.1273765885469
322.731907010576;35.8635947522075
322.753523341913;35.6107649509914
322.77513967325;35.3629859120281
322.796756004588;35.1128586575031
322.818372335925;34.852226843473
322.839988667262;34.5720699146319
322.8616049986;34.2672152831914
322.883221329937;33.9474006656374
322.904837661274;33.6246732032619
322.926453992612;33.2947674304206
322.948070323949;32.9546037649452
322.969686655286;32.6084210290824
322.991302986624;32.2636787603136
323.012919317961;31.9281746067771
323.034535649298;31.6219532516664
323.056151980636;31.3539303824569
323.077768311973;31.1242741276923
323.09938464331;30.9316580628838
323.121000974648;30.7690608481334
323.142617305985;30.6295003111872
323.164233637322;30.516550628953
323.18584996866;30.4487894804366
323.207466299997;30.4184003058069
323.229082631334;30.4088017841384
323.250698962672;30.419420114816
323.272315294009;30.4566361938307
323.293931625346;30.5218807023823
323.315547956684;30.6210401454446
323.337164288021;30.749960333266
323.358780619358;30.8944628664054
323.380396950696;31.0530767087105
323.402013282033;31.2337167613961
323.42362961337;31.4386312192491
323.445245944708;31.659562090277
323.466862276045;31.8906334155343
323.488478607382;32.133779606313
323.51009493872;32.3889285396955
323.531711270057;32.6366324594423
323.553327601394;32.8585982089856
323.574943932732;33.060936169307
323.596560264069;33.2487583739519
323.618176595406;33.4139881671276
323.639792926744;33.5463434205255
323.661409258081;33.6423564338974
323.683025589418;33.7081534235122
323.704641920756;33.7512108957741
323.726258252093;33.7716294907426
323.74787458343;33.7607732530339
323.769490914768;33.726116926084
323.791107246105;33.6789490361902
323.812723577442;33.6288432314084
323.83433990878;33.5817940641579
323.855956240117;33.5371497714236
323.877572571454;33.4939029547171
323.899188902792;33.4534168552814
323.920805234129;33.4161157114763
323.942421565466;33.3854148310469
323.964037896804;33.3580081295156
323.985654228141;33.327976533693
324.007270559478;33.2901035362656
324.028886890816;33.2485467077404
324.050503222153;33.2085270975023
324.07211955349;33.1662542917035
324.093735884828;33.1169019061895
324.115352216165;33.0588620143521
324.136968547502;32.9983609368873
324.15858487884;32.9490556846036
324.180201210177;32.9133529312217
324.201817541514;32.8880882342583
324.223433872852;32.8731021162731
324.245050204189;32.8668642516001
324.266666535527;32.8680072659821
324.288282866864;32.8760113050528
324.309899198201;32.8903489112144
324.331515529538;32.9048318276849
324.353131860876;32.9119974269246
324.374748192213;32.9085105185894
324.39636452355;32.8929697156435
324.417980854888;32.8680332178076
324.439597186225;32.8350999173016
324.461213517563;32.7965296799716
324.4828298489;32.7551243096511
324.504446180237;32.7133432133904
324.526062511574;32.6717755144633
324.547678842912;32.6323293818106
324.569295174249;32.6023684936911
324.590911505587;32.5861705114701
324.612527836924;32.5815970231653
324.634144168261;32.5846585924492
324.655760499599;32.5893945692803
324.677376830936;32.5921676153522
324.698993162273;32.5897319317004
324.72060949361;32.5793477379108
324.742225824948;32.5624878385803
324.763842156285;32.5365655056408
324.785458487623;32.4965741697165
