Name;BF_ESR_01_1800s_Y_gon_20dg_result

Recipe
Accumulations;5;Number of accumulations
RetryCount;0;Number of retries on error
AbortOnError;True;Abort on error
EnableQFactorMeasurement;False;Enable/Disable q-Factor measurement
Bfrom;313;B from
Bto;363;B to
SweepTime;60;Sweep time
Modulation;0.2;Modulation
ModulationFreq;100;Modulation
BHoldEnabled;False;B hold enabled
BHold;0;B hold
MicrowavePower;2;Microwave power
MarkerEnabled;False;
MarkerStartField;0;
MarkerEndField;0;
Mode;;
KineticGFact;0;
KineticTotalTransientTime;0;
KineticTimeResolution;0;
TempFrom;5;
TempUseSlope;False;
TempTo;5;
TempdT;1;
TempSetupTime;0;
GonFrom;0;
GonTo;180;
GonSteps;20;
XRayEnabled;False;
XRayTime;3;
XRayVoltage;40;
XRayCurrent;0.5;
UVEnabled;False;
UVIntensity;0;
UVTime;0;
UVLeadTime;0;
UVWavelength;0;
PowSweepFrom;1;
PowSweepTo;5;
PowSweepSteps;5;
AmpModSweepFrom;0;
AmpModSweepTo;1;
AmpModSweepSteps;10;
ExtTriggerEnabled;False;
ExtTrigLeadTime;0;
ExtTrigOnTime;5;

Meas
BField [mT];MW_Absorption []
313.018335571289;53.6886260216542
313.039940482938;53.479180782089
313.061545394587;53.1483744636566
313.083150306237;52.7053675776611
313.104755217886;52.1554678622309
313.126360129535;51.491209714525
313.147965041184;50.7242192537122
313.169569952833;49.8838801032838
313.191174864482;48.9956027005326
313.212779776132;48.1030635354221
313.234384687781;47.2365438141655
313.25598959943;46.3876926538675
313.277594511079;45.5756123525709
313.299199422728;44.8626008333849
313.320804334377;44.2794211622233
313.342409246027;43.8410950283645
313.364014157676;43.5497515197838
313.385619069325;43.3908586684899
313.407223980974;43.3493590697354
313.428828892623;43.4235510333865
313.450433804272;43.6252486141516
313.472038715922;43.9464888138274
313.493643627571;44.3062819734586
313.51524853922;44.6731540322455
313.536853450869;45.049159842287
313.558458362518;45.4245618871187
313.580063274167;45.7635304458753
313.601668185817;46.0408000786451
313.623273097466;46.2504501999418
313.644878009115;46.3990312821318
313.666482920764;46.4940706613424
313.688087832413;46.5310900110745
313.709692744062;46.498951098954
313.731297655712;46.398597656474
313.752902567361;46.2377114738392
313.77450747901;46.0305798064052
313.796112390659;45.7978346912947
313.817717302308;45.5539487596478
313.839322213957;45.3055452678623
313.860927125607;45.0682048194979
313.882532037256;44.8695897502433
313.904136948905;44.7303874792111
313.925741860554;44.6558280940309
313.947346772203;44.6375952782558
313.968951683853;44.6730729177981
313.990556595502;44.7712378162289
314.012161507151;44.939385586672
314.0337664188;45.1558902042718
314.055371330449;45.3926733793664
314.076976242098;45.644484749105
314.098581153748;45.9001661714316
314.120186065397;46.1252033435241
314.141790977046;46.3028044721529
314.163395888695;46.4368259388207
314.185000800344;46.514629088152
314.206605711993;46.5184718650025
314.228210623643;46.4448354542605
314.249815535292;46.3042121859958
314.271420446941;46.1242175739126
314.29302535859;45.9062188589028
314.314630270239;45.6352675512519
314.336235181888;45.3055714768306
314.357840093538;44.9222932965772
314.379445005187;44.5261633647919
314.401049916836;44.1426855023318
314.422654828485;43.7769117843073
314.444259740134;43.4207688878229
314.465864651783;43.0737876682655
314.487469563433;42.75987589288
314.509074475082;42.4964041042862
314.530679386731;42.2776214780741
314.55228429838;42.0932069745144
314.573889210029;41.9453976941458
314.595494121678;41.8308135853492
314.617099033328;41.7380872247631
314.638703944977;41.6491942627326
314.660308856626;41.5616042768178
314.681913768275;41.489089864834
314.703518679924;41.4324823646425
314.725123591573;41.381737033648
314.746728503223;41.3302024754922
314.768333414872;41.2801888659027
314.789938326521;41.2550131424545
314.81154323817;41.2711934687153
314.833148149819;41.3184871391656
314.854753061469;41.3909752225671
314.876357973118;41.4926764333925
314.897962884767;41.6214010490608
314.919567796416;41.7714046708318
314.941172708065;41.9359879399989
314.962777619714;42.0966247674181
314.984382531364;42.2347873850533
315.005987443013;42.3363573445256
315.027592354662;42.3861145862753
315.049197266311;42.37345026026
315.07080217796;42.2951281108355
315.092407089609;42.1481640794717
315.114012001259;41.9261042621293
315.135616912908;41.6336032585421
315.157221824557;41.2814010562309
315.178826736206;40.8753296442818
315.200431647855;40.4146904348073
315.222036559504;39.903525084768
315.243641471154;39.3873779954101
315.265246382803;38.9114587601698
315.286851294452;38.4778543877641
315.308456206101;38.0880448775527
315.33006111775;37.7708973247817
315.351666029399;37.5532962479463
315.373270941049;37.4329069465386
315.394875852698;37.3933440025484
315.416480764347;37.4303999781473
315.438085675996;37.5480183070064
315.459690587645;37.7416545121421
315.481295499294;37.9850734020298
315.502900410944;38.257729806122
315.524505322593;38.5523685704304
315.546110234242;38.8593587472992
315.567715145891;39.169564009399
315.58932005754;39.4680422559781
315.610924969189;39.7441335316684
315.632529880839;39.9955791672554
315.654134792488;40.2210452061998
315.675739704137;40.4106444470573
315.697344615786;40.5650511913834
315.718949527435;40.6957212446471
315.740554439085;40.8064645824484
315.762159350734;40.8900699248962
315.783764262383;40.9416714371762
315.805369174032;40.965097335255
315.826974085681;40.9629818671176
315.84857899733;40.9343723137254
315.87018390898;40.877108652432
315.891788820629;40.7930448073654
315.913393732278;40.6847174951221
315.934998643927;40.5478154732899
315.956603555576;40.3816579770671
315.978208467225;40.1911213829111
315.999813378875;39.9838448007844
316.021418290524;39.7673099411089
316.043023202173;39.5443271597978
316.064628113822;39.3195719914976
316.086233025471;39.1145982248486
316.10783793712;38.942328227215
316.12944284877;38.8007429619466
316.151047760419;38.6941053463016
316.172652672068;38.6355288725573
316.194257583717;38.6312884491732
316.215862495366;38.6807367243576
316.237467407015;38.7884683358921
316.259072318665;38.9480332197296
316.280677230314;39.1218599149343
316.302282141963;39.2955446159374
316.323887053612;39.4677093619504
316.345491965261;39.6400559354377
316.36709687691;39.8119205655694
316.38870178856;39.9703186909901
316.410306700209;40.103448146701
316.431911611858;40.2195506905227
316.453516523507;40.3267819907054
316.475121435156;40.4234218482019
316.496726346805;40.5099888570428
316.518331258455;40.5895224629842
316.539936170104;40.6615976222454
316.561541081753;40.7250892207688
316.583145993402;40.7818450047217
316.604750905051;40.8364408300943
316.6263558167;40.8892298981351
316.64796072835;40.9359730671878
316.669565639999;40.9745403607781
316.691170551648;41.003023769855
316.712775463297;41.0181670223185
316.734380374946;41.017959682609
316.755985286595;41.0082833482882
316.777590198245;40.9876079243003
316.799195109894;40.9538302312448
316.820800021543;40.9104307393865
316.842404933192;40.8615450814398
316.864009844841;40.8071460277128
316.885614756491;40.7439357244343
316.90721966814;40.678425097775
316.928824579789;40.6147752983334
316.950429491438;40.5500150909508
316.972034403087;40.4817208230666
316.993639314736;40.41291287803
317.015244226386;40.347040940564
317.036849138035;40.2786301356339
317.058454049684;40.1925500677622
317.080058961333;40.0912565214889
317.101663872982;39.9844606409986
317.123268784631;39.8713985921933
317.144873696281;39.7490848881096
317.16647860793;39.6225874319927
317.188083519579;39.5067817576916
317.209688431228;39.4131863505231
317.231293342877;39.3431035958514
317.252898254526;39.2985830470857
317.274503166176;39.2882085964167
317.296108077825;39.3155261093944
317.317712989474;39.3761451466484
317.339317901123;39.4642688280006
317.360922812772;39.5741362730683
317.382527724421;39.7029478798975
317.404132636071;39.8503648066608
317.42573754772;40.0088416662769
317.447342459369;40.1627134520965
317.468947371018;40.2997488085851
317.490552282667;40.4175144280146
317.512157194317;40.5275420545445
317.533762105966;40.6388567915637
317.555367017615;40.7511362662163
317.576971929264;40.8574693962328
317.598576840913;40.9559587425102
317.620181752562;41.0501515405375
317.641786664212;41.1418425320852
317.663391575861;41.2282837827352
317.68499648751;41.3035088098339
317.706601399159;41.3618171357821
317.728206310808;41.398840387915
317.749811222457;41.4090706922743
317.771416134107;41.3858216717991
317.793021045756;41.3297952763163
317.814625957405;41.2444913076155
317.836230869054;41.1267958233325
317.857835780703;40.9743323909939
317.879440692352;40.792445447379
317.901045604002;40.5897279328913
317.922650515651;40.3704035830258
317.9442554273;40.1398987135788
317.965860338949;39.9194522354598
317.987465250598;39.72316580437
318.009070162247;39.5535882860233
318.030675073897;39.409213419781
318.052279985546;39.287492533137
318.073884897195;39.1875782765453
318.095489808844;39.1104082042937
318.117094720493;39.0597448899307
318.138699632142;39.0546881296202
318.160304543792;39.0690433966804
318.181909455441;39.0939794154876
318.20351436709;39.1309171394817
318.225119278739;39.1803905908629
318.246724190388;39.2454908193107
318.268329102037;39.3367247072353
318.289934013687;39.4607882246807
318.311538925336;39.6244137299409
318.333143836985;39.8369190331396
318.354748748634;40.0928226447026
318.376353660283;40.3693223258934
318.397958571932;40.6570035120649
318.419563483582;40.9643536923082
318.441168395231;41.2843544150448
318.46277330688;41.6013954709942
318.484378218529;41.9037680787983
318.505983130178;42.1819009889165
318.527588041827;42.4230557356373
318.549192953477;42.6259825074004
318.570797865126;42.7912358406789
318.592402776775;42.9040924230693
318.614007688424;42.9490222572665
318.635612600073;42.92095204043
318.657217511723;42.8154360836562
318.678822423372;42.6400656737465
318.700427335021;42.4056580685432
318.72203224667;42.1234394735041
318.743637158319;41.8020252715543
318.765242069968;41.4495574476805
318.786846981618;41.0866852833156
318.808451893267;40.740464247378
318.830056804916;40.4259694041756
318.851661716565;40.1518654948454
318.873266628214;39.9267022898345
318.894871539863;39.7594764699296
318.916476451513;39.6550392737414
318.938081363162;39.6101918284938
318.959686274811;39.6153294826604
318.98129118646;39.6642875812073
319.002896098109;39.7376768399014
319.024501009758;39.8148041872955
319.046105921408;39.8867940648609
319.067710833057;39.9472967878391
319.089315744706;39.9897183894161
319.110920656355;40.0114029235561
319.132525568004;40.0001229687264
319.154130479653;39.9523934943976
319.175735391303;39.8791769670396
319.197340302952;39.789189672128
319.218945214601;39.681319784536
319.24055012625;39.5502269092985
319.262155037899;39.4015680814488
319.283759949548;39.2561987875153
319.305364861198;39.1324635192245
319.326969772847;39.025081948343
319.348574684496;38.9222499262482
319.370179596145;38.8146459219192
319.391784507794;38.7009937388719
319.413389419443;38.5936629389025
319.434994331093;38.5048538864656
319.456599242742;38.4390151845851
319.478204154391;38.3959712411316
319.49980906604;38.3678309194304
319.521413977689;38.3534554138243
319.543018889339;38.3576959966739
319.564623800988;38.3803801927139
319.586228712637;38.4180499309961
319.607833624286;38.4650328753444
319.629438535935;38.5149205525339
319.651043447584;38.5624136928939
319.672648359234;38.5999662962079
319.694253270883;38.6192927987393
319.715858182532;38.6145218122217
319.737463094181;38.5827226073897
319.75906800583;38.5251272015711
319.780672917479;38.4414400577709
319.802277829129;38.3318827442689
319.823882740778;38.199565281393
319.845487652427;38.0503969587942
319.867092564076;37.8959244103062
319.888697475725;37.7467387900759
319.910302387374;37.6045752896932
319.931907299024;37.47040188824
319.953512210673;37.3529380582158
319.975117122322;37.263577297686
319.996722033971;37.2096561008544
320.01832694562;37.1848848057429
320.039931857269;37.1726756534907
320.061536768919;37.1630879288787
320.083141680568;37.1654734407452
320.104746592217;37.185764628329
320.126351503866;37.2242168400668
320.147956415515;37.2712585003382
320.169561327164;37.3090838299779
320.191166238814;37.3371861315764
320.212771150463;37.374135964138
320.234376062112;37.4237950179845
320.255980973761;37.4828782972525
320.27758588541;37.5520479757332
320.299190797059;37.6346527672873
320.320795708709;37.7337441258121
320.342400620358;37.8531262338314
320.364005532007;38.0006235212003
320.385610443656;38.1718561130165
320.407215355305;38.3519487554835
320.428820266954;38.5306051096205
320.450425178604;38.7027410771639
320.472030090253;38.8634949751148
320.493635001902;39.0074397446128
320.515239913551;39.1299129526874
320.5368448252;39.2225902811752
320.55844973685;39.2780256886639
320.580054648499;39.2995481636352
320.601659560148;39.2943742991878
320.623264471797;39.2683781769461
320.644869383446;39.226956854494
320.666474295095;39.1772286303166
320.688079206745;39.1251271844785
320.709684118394;39.0750601446443
320.731289030043;39.0274587867248
320.752893941692;38.9781247065895
320.774498853341;38.9309871292968
320.79610376499;38.8877680025831
320.81770867664;38.850931087871
320.839313588289;38.8171408969522
320.860918499938;38.7808869863395
320.882523411587;38.7402228909424
320.904128323236;38.6988334201019
320.925733234885;38.6635453533693
320.947338146535;38.6401792868617
320.968943058184;38.6369466239415
320.990547969833;38.6737852107547
321.012152881482;38.7771492073961
321.033757793131;38.9259595511156
321.05536270478;39.1020098714715
321.07696761643;39.3214149331845
321.098572528079;39.5954864383193
321.120177439728;39.9226053301767
321.141782351377;40.283775176984
321.163387263026;40.6706617623301
321.184992174675;41.0743075025277
321.206597086325;41.4751972608018
321.228201997974;41.8585216501543
321.249806909623;42.2125012422378
321.271411821272;42.5318222179156
321.293016732921;42.8122353385394
321.31462164457;43.0402574127956
321.33622655622;43.2144823760929
321.357831467869;43.3281702724639
321.379436379518;43.36820264726
321.401041291167;43.3386388294666
321.422646202816;43.2468094703763
321.444251114465;43.1001845357299
321.465856026115;42.9087337290449
321.487460937764;42.6846424072513
321.509065849413;42.4421358023785
321.530670761062;42.1939561017115
321.552275672711;41.9504621500866
321.573880584361;41.7159146061094
321.59548549601;41.4911464493211
321.617090407659;41.2808346301921
321.638695319308;41.0916583831435
321.660300230957;40.9295116471311
321.681905142606;40.8002501518732
321.703510054256;40.704731467808
321.725114965905;40.6346612066204
321.746719877554;40.5847590304887
321.768324789203;40.5567300604052
321.789929700852;40.5504539894199
321.811534612501;40.5583044604184
321.833139524151;40.576364832173
321.8547444358;40.6004846792432
321.876349347449;40.621909250737
321.897954259098;40.6376056497243
321.919559170747;40.6427882416171
321.941164082396;40.6320742036245
321.962768994046;40.6009310821845
321.984373905695;40.5362215344417
322.005978817344;40.4292971859755
322.027583728993;40.2744187555165
322.049188640642;40.0777432628953
322.070793552291;39.8409842076244
322.092398463941;39.5539121232197
322.11400337559;39.2085252376653
322.135608287239;38.8154886667269
322.157213198888;38.3836535111105
322.178818110537;37.9277650905436
322.200423022186;37.4683522928582
322.222027933836;37.0098840913283
322.243632845485;36.5760130400185
322.265237757134;36.1922728056991
322.286842668783;35.8631968834485
322.308447580432;35.5871104753617
322.330052492082;35.3681613451607
322.351657403731;35.2102318586319
322.37326231538;35.1148601439222
322.394867227029;35.0737216030598
322.416472138678;35.0725423630586
322.438077050327;35.1002966953586
322.459681961977;35.1433168140543
322.481286873626;35.1889355494488
322.502891785275;35.2306824767927
322.524496696924;35.2649785893428
322.546101608573;35.2877972935637
322.567706520222;35.2952798566817
322.589311431872;35.2900401470452
322.610916343521;35.2842802428464
322.63252125517;35.2853701751398
322.654126166819;35.2941485021039
322.675731078468;35.3053110012904
322.697335990117;35.312040293613
322.718940901767;35.3171454665453
322.740545813416;35.3288486394658
322.762150725065;35.3433935778305
322.783755636714;35.3469826548771
322.805360548363;35.3408696691067
322.826965460012;35.3288275326897
322.848570371662;35.3054589375809
322.870175283311;35.2693831487864
322.89178019496;35.229647607559
322.913385106609;35.1949549484132
322.934990018258;35.1629366017545
322.956594929907;35.124515025577
322.978199841557;35.0906469014245
322.999804753206;35.073293984828
323.021409664855;35.0691797624925
323.043014576504;35.0771692200693
323.064619488153;35.1034715960747
323.086224399802;35.1560690006064
323.107829311452;35.2319462257899
323.129434223101;35.3301489281065
323.15103913475;35.4611433541784
323.172644046399;35.6269945951006
323.194248958048;35.8147052158519
323.215853869697;36.0217845128413
323.237458781347;36.2507212815306
323.259063692996;36.4908451857395
323.280668604645;36.7267262787495
323.302273516294;36.9464153745672
323.323878427943;37.1349501714538
323.345483339592;37.2795970279661
323.367088251242;37.378045713812
323.388693162891;37.4311681327181
323.41029807454;37.431766333752
323.431902986189;37.3767432984837
323.453507897838;37.2723072633087
323.475112809488;37.1266627076723
323.496717721137;36.9437881777525
323.518322632786;36.7328594093217
323.539927544435;36.5116644489171
323.561532456084;36.2917209003652
323.583137367733;36.0823382201371
323.604742279383;35.8923936727551
323.626347191032;35.7233884713505
323.647952102681;35.5699637611882
323.66955701433;35.4285584845593
323.691161925979;35.3025843254397
323.712766837628;35.216722491957
323.734371749278;35.1540817295072
323.755976660927;35.101785578539
323.777581572576;35.0552568441506
323.799186484225;35.0159653900725
323.820791395874;34.9864679058814
323.842396307523;34.9669606635596
323.864001219173;34.9587460810042
323.885606130822;34.9672557624043
323.907211042471;34.9959191833748
323.92881595412;35.0439549637657
323.950420865769;35.1117745417037
323.972025777418;35.2071672707656
323.993630689068;35.3339030499147
324.015235600717;35.4731959387222
324.036840512366;35.6161407098144
324.058445424015;35.7640405821752
324.080050335664;35.9156343780234
324.101655247313;36.0620281944886
324.123260158963;36.1971387306287
324.144865070612;36.3172726416348
324.166469982261;36.4145520018844
324.18807489391;36.482029326368
324.209679805559;36.51791394231
324.231284717209;36.5252271159788
324.252889628858;36.5111047966133
324.274494540507;36.4814701716185
324.296099452156;36.4381375664662
324.317704363805;36.3774191229855
324.339309275454;36.2951237539424
324.360914187104;36.2006816239316
324.382519098753;36.1058210845999
324.404124010402;36.0134475838931
324.425728922051;35.9205154565919
324.4473338337;35.8252098657395
324.468938745349;35.7395277365458
324.490543656999;35.6732066233147
324.512148568648;35.625332075811
324.533753480297;35.5896592288315
324.555358391946;35.5567585639273
324.576963303595;35.5225170953636
324.598568215244;35.4922485058312
324.620173126894;35.4702522743489
324.641778038543;35.4529835889576
324.663382950192;35.4384948652029
324.684987861841;35.4298981751874
324.70659277349;35.4283280737399
324.728197685139;35.4329142457436
324.749802596789;35.4490381053407
324.771407508438;35.4857432019566
