Name;BF_ESR_01_900s_X_gon_0dg_result

Recipe
Accumulations;5;Number of accumulations
RetryCount;0;Number of retries on error
AbortOnError;True;Abort on error
EnableQFactorMeasurement;False;Enable/Disable q-Factor measurement
Bfrom;313;B from
Bto;363;B to
SweepTime;60;Sweep time
Modulation;0.2;Modulation
ModulationFreq;100;Modulation
BHoldEnabled;False;B hold enabled
BHold;0;B hold
MicrowavePower;2;Microwave power
MarkerEnabled;False;
MarkerStartField;0;
MarkerEndField;0;
Mode;;
KineticGFact;0;
KineticTotalTransientTime;0;
KineticTimeResolution;0;
TempFrom;5;
TempUseSlope;False;
TempTo;5;
TempdT;1;
TempSetupTime;0;
GonFrom;0;
GonTo;180;
GonSteps;20;
XRayEnabled;False;
XRayTime;3;
XRayVoltage;40;
XRayCurrent;0.5;
UVEnabled;False;
UVIntensity;0;
UVTime;0;
UVLeadTime;0;
UVWavelength;0;
PowSweepFrom;1;
PowSweepTo;5;
PowSweepSteps;5;
AmpModSweepFrom;0;
AmpModSweepTo;1;
AmpModSweepSteps;10;
ExtTriggerEnabled;False;
ExtTrigLeadTime;0;
ExtTrigOnTime;5;

Meas
BField [mT];MW_Absorption []
313.008301773071;122.730876463153
313.029915074576;122.948121647081
313.051528376081;123.229998249967
313.073141677586;123.56838229798
313.094754979091;123.957373476893
313.116368280596;124.375929486984
313.1379815821;124.786331228118
313.159594883605;125.163631977837
313.18120818511;125.503600720651
313.202821486615;125.789367018532
313.22443478812;125.99810928859
313.246048089625;126.129770736598
313.267661391129;126.186810326796
313.289274692634;126.126891022441
313.310887994139;125.962112827567
313.332501295644;125.713765106928
313.354114597149;125.409223088348
313.375727898654;125.075351945219
313.397341200159;124.733111599665
313.418954501664;124.38003373208
313.440567803168;124.032964141986
313.462181104673;123.696781032191
313.483794406178;123.395192427453
313.505407707683;123.148250020255
313.527021009188;122.959506289055
313.548634310693;122.825766018673
313.570247612197;122.74769310017
313.591860913702;122.727335601857
313.613474215207;122.756525520727
313.635087516712;122.819930361004
313.656700818217;122.903210672579
313.678314119722;122.997234957827
313.699927421227;123.093958922823
313.721540722731;123.190560932507
313.743154024236;123.284581386171
313.764767325741;123.368485697186
313.786380627246;123.440991968252
313.807993928751;123.510234351923
313.829607230256;123.581341250219
313.851220531761;123.655148509479
313.872833833265;123.732909339859
313.89444713477;123.821214738232
313.916060436275;123.931901246525
313.93767373778;124.077214907306
313.959287039285;124.254961521779
313.98090034079;124.439906429783
314.002513642295;124.623023346408
314.024126943799;124.81272543653
314.045740245304;125.010684787232
314.067353546809;125.215490261034
314.088966848314;125.423262908146
314.110580149819;125.625941631941
314.132193451324;125.817180302827
314.153806752829;125.998585421923
314.175420054333;126.176429789279
314.197033355838;126.347103569272
314.218646657343;126.503148540854
314.240259958848;126.641424715614
314.261873260353;126.765847236027
314.283486561858;126.881702818807
314.305099863363;126.998500614107
314.326713164867;127.121673135481
314.348326466372;127.249979146396
314.369939767877;127.374972499453
314.391553069382;127.498567296397
314.413166370887;127.627601998047
314.434779672392;127.766372646358
314.456392973897;127.91877921009
314.478006275401;128.080179043084
314.499619576906;128.240116732247
314.521232878411;128.388525772929
314.542846179916;128.519775775562
314.564459481421;128.632534414717
314.586072782926;128.727617878462
314.607686084431;128.801333820536
314.629299385935;128.848078266022
314.65091268744;128.871861075962
314.672525988945;128.879553074258
314.69413929045;128.86869445634
314.715752591955;128.832970645161
314.73736589346;128.772298317292
314.758979194964;128.691746459806
314.780592496469;128.592190383676
314.802205797974;128.470470363076
314.823819099479;128.327435218663
314.845432400984;128.161615456573
314.867045702489;127.966194664417
314.888659003994;127.744620299084
314.910272305498;127.504668151566
314.931885607003;127.242387268117
314.953498908508;126.955025885846
314.975112210013;126.664032292642
314.996725511518;126.39439853337
315.018338813023;126.146301835123
315.039952114528;125.911557104911
315.061565416032;125.699811990751
315.083178717537;125.517871747405
315.104792019042;125.360399324533
315.126405320547;125.228038698357
315.148018622052;125.125974042715
315.169631923557;125.049748423142
315.191245225062;124.996714833463
315.212858526566;124.970116274388
315.234471828071;124.973813406283
315.256085129576;125.002244300608
315.277698431081;125.044701395882
315.299311732586;125.093997339458
315.320925034091;125.164914912808
315.342538335596;125.271127090778
315.3641516371;125.403265022036
315.385764938605;125.539737883515
315.40737824011;125.671067844326
315.428991541615;125.801132196665
315.45060484312;125.932527802253
315.472218144625;126.061196793093
315.49383144613;126.181031908053
315.515444747634;126.29440098734
315.537058049139;126.408756596899
315.558671350644;126.528484978189
315.580284652149;126.652721906763
315.601897953654;126.785175224041
315.623511255159;126.932733095038
315.645124556664;127.097356532689
315.666737858168;127.273753582209
315.688351159673;127.458379433615
315.709964461178;127.651073085314
315.731577762683;127.855907082242
315.753191064188;128.071279601262
315.774804365693;128.282453859823
315.796417667197;128.482259684381
315.818030968702;128.66713086598
315.839644270207;128.831865170068
315.861257571712;128.972109215508
315.882870873217;129.083525700889
315.904484174722;129.16231021265
315.926097476227;129.214210871424
315.947710777731;129.247223975092
315.969324079236;129.260356798193
315.990937380741;129.245174634326
316.012550682246;129.195618835774
316.034163983751;129.114401408447
316.055777285256;129.005616955472
316.077390586761;128.868079930518
316.099003888265;128.696657651635
316.12061718977;128.484927689314
316.142230491275;128.230942789849
316.16384379278;127.938238086096
316.185457094285;127.618724448365
316.20707039579;127.288879853025
316.228683697295;126.949359220687
316.250296998799;126.583917791324
316.271910300304;126.180997942677
316.293523601809;125.750749748276
316.315136903314;125.312522865451
316.336750204819;124.891059249327
316.358363506324;124.486608361187
316.379976807829;124.084729616136
316.401590109333;123.676615964702
316.423203410838;123.281107891535
316.444816712343;122.909793503044
316.466430013848;122.558380133731
316.488043315353;122.218644610851
316.509656616858;121.888764802564
316.531269918363;121.572195674778
316.552883219867;121.263792504771
316.574496521372;120.959188852094
316.596109822877;120.659162464308
316.617723124382;120.367126909922
316.639336425887;120.078944309112
316.660949727392;119.789614789624
316.682563028897;119.496276925501
316.704176330401;119.196535059749
316.725789631906;118.884162697478
316.747402933411;118.551946822282
316.769016234916;118.198171160305
316.790629536421;117.820284691537
316.812242837926;117.409911505302
316.833856139431;116.965986183483
316.855469440935;116.504581057204
316.87708274244;116.046066967253
316.898696043945;115.598136545214
316.92030934545;115.159612195686
316.941922646955;114.724003046466
316.96353594846;114.286374134442
316.985149249964;113.84483141094
317.006762551469;113.395030610184
317.028375852974;112.936023555246
317.049989154479;112.473041895327
317.071602455984;112.017550131095
317.093215757489;111.58564186769
317.114829058994;111.184549362174
317.136442360498;110.803023091939
317.158055662003;110.422977479257
317.179668963508;110.030599521359
317.201282265013;109.62234840834
317.222895566518;109.208694902463
317.244508868023;108.802965126161
317.266122169528;108.392098813743
317.287735471032;107.961345414265
317.309348772537;107.525548211799
317.330962074042;107.109606036021
317.352575375547;106.715780566019
317.374188677052;106.336510015758
317.395801978557;105.971357696972
317.417415280062;105.627193311233
317.439028581566;105.318846617772
317.460641883071;105.064777966619
317.482255184576;104.86729800623
317.503868486081;104.720263050424
317.525481787586;104.605331122822
317.547095089091;104.509442763888
317.568708390596;104.424254406021
317.5903216921;104.337590245711
317.611934993605;104.232975658325
317.63354829511;104.093474303856
317.655161596615;103.9014681189
317.67677489812;103.653055147865
317.698388199625;103.354368485412
317.72000150113;103.010162672439
317.741614802634;102.64024109161
317.763228104139;102.255938362809
317.784841405644;101.868871267276
317.806454707149;101.480097806841
317.828068008654;101.096451073316
317.849681310159;100.733720508981
317.871294611664;100.399283838535
317.892907913168;100.088904680187
317.914521214673;99.7953583759368
317.936134516178;99.5083182626102
317.957747817683;99.2087888654838
317.979361119188;98.8789620942505
318.000974420693;98.5126893556782
318.022587722198;98.1010896321191
318.044201023702;97.6539963605973
318.065814325207;97.1784341145476
318.087427626712;96.6677082396859
318.109040928217;96.1101920398627
318.130654229722;95.5000430491591
318.152267531227;94.8509868381429
318.173880832731;94.203443784422
318.195494134236;93.6068978193044
318.217107435741;93.0895092109451
318.238720737246;92.6522022217646
318.260334038751;92.2787901683963
318.281947340256;91.9807204165667
318.303560641761;91.7748275395785
318.325173943265;91.660643146276
318.34678724477;91.6428088049937
318.368400546275;91.7017623855452
318.39001384778;91.8331302823178
318.411627149285;92.0166184099787
318.43324045079;92.2408493245375
318.454853752295;92.5082392615593
318.476467053799;92.80892872854
318.498080355304;93.1249554947759
318.519693656809;93.4406652664202
318.541306958314;93.7441607029258
318.562920259819;94.0233829271805
318.584533561324;94.2768747663015
318.606146862829;94.5047981216192
318.627760164333;94.7060010600116
318.649373465838;94.8695200695867
318.670986767343;94.9891614886214
318.692600068848;95.069984807374
318.714213370353;95.118906825662
318.735826671858;95.1431644033781
318.757439973363;95.1501727091816
318.779053274867;95.1453034273859
318.800666576372;95.1320861668896
318.822279877877;95.1153491809874
318.843893179382;95.1007791367549
318.865506480887;95.0866740243491
318.887119782392;95.0699283591818
318.908733083897;95.0515244658814
318.930346385401;95.0345070472556
318.951959686906;95.008574836103
318.973572988411;94.9665787134811
318.995186289916;94.917565448489
319.016799591421;94.8756029782471
319.038412892926;94.8509012634077
319.060026194431;94.8394536758792
319.081639495935;94.8394215613917
319.10325279744;94.8569026764288
319.124866098945;94.8923416940896
319.14647940045;94.9467988978988
319.168092701955;95.0217100171186
319.18970600346;95.1102781338148
319.211319304964;95.2040794128537
319.232932606469;95.2933201343647
319.254545907974;95.3682621711798
319.276159209479;95.4226775790905
319.297772510984;95.4461421002871
319.319385812489;95.4245089757091
319.340999113994;95.3426344175066
319.362612415498;95.203526464117
319.384225717003;95.0250187465711
319.405839018508;94.8207668561064
319.427452320013;94.6009042030036
319.449065621518;94.36647353532
319.470678923023;94.1138971672385
319.492292224528;93.8386940248775
319.513905526032;93.5472671638603
319.535518827537;93.2572509995816
319.557132129042;92.974017290837
319.578745430547;92.7016402830277
319.600358732052;92.4552139301176
319.621972033557;92.2429021046111
319.643585335062;92.0631353997526
319.665198636566;91.9173086787468
319.686811938071;91.8074847806476
319.708425239576;91.7342052654385
319.730038541081;91.7039416351769
319.751651842586;91.7211417247179
319.773265144091;91.7840614377899
319.794878445596;91.8917505613354
319.8164917471;92.0411869983336
319.838105048605;92.226614978202
319.85971835011;92.4548967849223
319.881331651615;92.7143443444344
319.90294495312;92.9840715129762
319.924558254625;93.2605540518109
319.94617155613;93.5473655519803
319.967784857634;93.8408377740271
319.989398159139;94.1379804302415
320.011011460644;94.4435947036696
320.032624762149;94.760919861843
320.054238063654;95.0863831862598
320.075851365159;95.4111974377282
320.097464666664;95.732203091843
320.119077968168;96.0588648037169
320.140691269673;96.40789236278
320.162304571178;96.7827347906704
320.183917872683;97.186581266116
320.205531174188;97.6328846822794
320.227144475693;98.1210659978693
320.248757777198;98.6578028156252
320.270371078702;99.2515840740399
320.291984380207;99.8978265657346
320.313597681712;100.563164646463
320.335210983217;101.224872469071
320.356824284722;101.869646175173
320.378437586227;102.484654862599
320.400050887731;103.055752422902
320.421664189236;103.564961738505
320.443277490741;103.98313846667
320.464890792246;104.290970354991
320.486504093751;104.4899907432
320.508117395256;104.584238835029
320.529730696761;104.571343702829
320.551343998266;104.458529048199
320.57295729977;104.270397924934
320.594570601275;104.028482188152
320.61618390278;103.748243812729
320.637797204285;103.447424400798
320.65941050579;103.142354158002
320.681023807295;102.839867015783
320.702637108799;102.544268175136
320.724250410304;102.271810063777
320.745863711809;102.036973045574
320.767477013314;101.837138614097
320.789090314819;101.668169644698
320.810703616324;101.52727950671
320.832316917829;101.412587623101
320.853930219333;101.317033911471
320.875543520838;101.234409203326
320.897156822343;101.164208698391
320.918770123848;101.105138643711
320.940383425353;101.055396362185
320.961996726858;101.010174735409
320.983610028363;100.961035723675
321.005223329867;100.902624836941
321.026836631372;100.829316211812
321.048449932877;100.730189760712
321.070063234382;100.609120739847
321.091676535887;100.464733854844
321.113289837392;100.291350129761
321.134903138897;100.083933851411
321.156516440401;99.8376656270398
321.178129741906;99.5511155496355
321.199743043411;99.2233589309601
321.221356344916;98.8824617243962
321.242969646421;98.5603939814204
321.264582947926;98.2660241780627
321.286196249431;98.0082012246852
321.307809550935;97.7996731457977
321.32942285244;97.6544016273068
321.351036153945;97.581933723233
321.37264945545;97.600229271664
321.394262756955;97.7094356084825
321.41587605846;97.8937960100056
321.437489359965;98.1529295382093
321.459102661469;98.4854187338628
321.480715962974;98.8776511371079
321.502329264479;99.3119942358187
321.523942565984;99.7606497808974
321.545555867489;100.203250546248
321.567169168994;100.630469022956
321.588782470498;101.053625730839
321.610395772003;101.495009791639
321.632009073508;101.941548858975
321.653622375013;102.365871505662
321.675235676518;102.784569496307
321.696848978023;103.208587419153
321.718462279528;103.62910193466
321.740075581033;104.039995184156
321.761688882537;104.444249459151
321.783302184042;104.845588496145
321.804915485547;105.242243404146
321.826528787052;105.628933804308
321.848142088557;106.002318020171
321.869755390062;106.349922290807
321.891368691566;106.65669150779
321.912981993071;106.930887907839
321.934595294576;107.194082075778
321.956208596081;107.443393371919
321.977821897586;107.658163777463
321.999435199091;107.846675674046
322.021048500596;108.017185335346
322.0426618021;108.172864789895
322.064275103605;108.31727833608
322.08588840511;108.457771070711
322.107501706615;108.600672641567
322.12911500812;108.754134275476
322.150728309625;108.90763768018
322.17234161113;109.05245429446
322.193954912634;109.196496836105
322.215568214139;109.345956123317
322.237181515644;109.497892842329
322.258794817149;109.635961736534
322.280408118654;109.747728375205
322.302021420159;109.836628627632
322.323634721664;109.905531201497
322.345248023168;109.951145568041
322.366861324673;109.958944163197
322.388474626178;109.920892676513
322.410087927683;109.829536150435
322.431701229188;109.68149476458
322.453314530693;109.483903126439
322.474927832198;109.262880908533
322.496541133702;109.028878173191
322.518154435207;108.772262549493
322.539767736712;108.477517828886
322.561381038217;108.149974452827
322.582994339722;107.815289999849
322.604607641227;107.479327109718
322.626220942731;107.136098692085
322.647834244236;106.78530679702
322.669447545741;106.442602373153
322.691060847246;106.116127565171
322.712674148751;105.788983054638
322.734287450256;105.457074195369
322.755900751761;105.128589894161
322.777514053266;104.823322627566
322.79912735477;104.537725830801
322.820740656275;104.271490648201
322.84235395778;104.031097114467
322.863967259285;103.814477983092
322.88558056079;103.6161027386
322.907193862295;103.440714678416
322.928807163799;103.28578830909
322.950420465304;103.138081572628
322.972033766809;102.998469935009
322.993647068314;102.886145787894
323.015260369819;102.803089703006
323.036873671324;102.743683838394
323.058486972829;102.701948628906
323.080100274333;102.678493286427
323.101713575838;102.677516312195
323.123326877343;102.696253680569
323.144940178848;102.723177760385
323.166553480353;102.751364835354
323.188166781858;102.789659443826
323.209780083363;102.855022001947
323.231393384867;102.930791078343
323.253006686372;103.006221885919
323.274619987877;103.091614834609
323.296233289382;103.197388577734
323.317846590887;103.32566128502
323.339459892392;103.467035654383
323.361073193897;103.603601252032
323.382686495401;103.719555503951
323.404299796906;103.800931246491
323.425913098411;103.838772755442
323.447526399916;103.836601396516
323.469139701421;103.801050536298
323.490753002926;103.726799042839
323.512366304431;103.599828108201
323.533979605935;103.414123261205
323.55559290744;103.177520966964
323.577206208945;102.886679146336
323.59881951045;102.53167279035
323.620432811955;102.125689944764
323.64204611346;101.681892043311
323.663659414965;101.195653705353
323.685272716469;100.682045028693
323.706886017974;100.16026679934
323.728499319479;99.6509272541315
323.750112620984;99.1638164593281
323.771725922489;98.7063594764784
323.793339223994;98.2838146175607
323.814952525499;97.9044171199176
323.836565827003;97.5866369951218
323.858179128508;97.3460811668506
323.879792430013;97.1858630518585
323.901405731518;97.105921167496
323.923019033023;97.100636767697
323.944632334528;97.1603037943573
323.966245636033;97.2761615002534
323.987858937537;97.4437083128961
324.009472239042;97.6557068799474
324.031085540547;97.9026613071293
324.052698842052;98.1797248821558
324.074312143557;98.4736583427296
324.095925445062;98.7651342378004
324.117538746566;99.0341224905951
324.139152048071;99.2718214773171
324.160765349576;99.470700824596
324.182378651081;99.6152946385768
324.203991952586;99.6783619069942
324.225605254091;99.6573077005446
324.247218555596;99.5618039765438
324.2688318571;99.3916244835544
324.290445158605;99.1406110104674
324.31205846011;98.7975354235993
324.333671761615;98.359321607229
324.35528506312;97.8440092482019
324.376898364625;97.2802837147409
324.39851166613;96.6934325121547
324.420124967634;96.0972076834854
324.441738269139;95.48715603544
324.463351570644;94.8484244814651
324.484964872149;94.1798837949898
324.506578173654;93.4991041893003
324.528191475159;92.8196571767567
324.549804776664;92.1375082737947
324.571418078168;91.4515857256896
324.593031379673;90.7849213109973
324.614644681178;90.138834339661
324.636257982683;89.4963013085492
324.657871284188;88.8472837072486
324.679484585693;88.2099365709748
324.701097887198;87.6245776880353
324.722711188702;87.0900539423164
324.744324490207;86.582351405038
324.765937791712;86.1059855878372
