Name;BF_ESR_01_900s_Y_gon_120dg_result

Recipe
Accumulations;5;Number of accumulations
RetryCount;0;Number of retries on error
AbortOnError;True;Abort on error
EnableQFactorMeasurement;False;Enable/Disable q-Factor measurement
Bfrom;313;B from
Bto;363;B to
SweepTime;60;Sweep time
Modulation;0.2;Modulation
ModulationFreq;100;Modulation
BHoldEnabled;False;B hold enabled
BHold;0;B hold
MicrowavePower;2;Microwave power
MarkerEnabled;False;
MarkerStartField;0;
MarkerEndField;0;
Mode;;
KineticGFact;0;
KineticTotalTransientTime;0;
KineticTimeResolution;0;
TempFrom;5;
TempUseSlope;False;
TempTo;5;
TempdT;1;
TempSetupTime;0;
GonFrom;0;
GonTo;180;
GonSteps;20;
XRayEnabled;False;
XRayTime;3;
XRayVoltage;40;
XRayCurrent;0.5;
UVEnabled;False;
UVIntensity;0;
UVTime;0;
UVLeadTime;0;
UVWavelength;0;
PowSweepFrom;1;
PowSweepTo;5;
PowSweepSteps;5;
AmpModSweepFrom;0;
AmpModSweepTo;1;
AmpModSweepSteps;10;
ExtTriggerEnabled;False;
ExtTrigLeadTime;0;
ExtTrigOnTime;5;

Meas
BField [mT];MW_Absorption []
313.013873443604;68.7245710633215
313.035492867206;67.797167107629
313.057112290809;66.7471826194947
313.078731714411;65.5691911432885
313.100351138014;64.2803223267785
313.121970561616;62.9333664602226
313.143589985219;61.5832599364502
313.165209408822;60.3057474635913
313.186828832424;59.1562276059854
313.208448256027;58.1276624614404
313.230067679629;57.2162339258796
313.251687103232;56.4330392434214
313.273306526834;55.7930944898874
313.294925950437;55.3074530322073
313.31654537404;54.9735476592179
313.338164797642;54.7793224344064
313.359784221245;54.7045334138264
313.381403644847;54.7293415766952
313.40302306845;54.8278614228073
313.424642492053;54.9637884789163
313.446261915655;55.1123956355516
313.467881339258;55.260154811323
313.48950076286;55.395447671438
313.511120186463;55.5088674336387
313.532739610065;55.5925083686231
313.554359033668;55.6368924956319
313.575978457271;55.6359704681558
313.597597880873;55.5985057556324
313.619217304476;55.5351009384872
313.640836728078;55.4591241693219
313.662456151681;55.3808159972495
313.684075575283;55.3072923481037
313.705694998886;55.2380056874665
313.727314422489;55.1802910301767
313.748933846091;55.1378150743194
313.770553269694;55.1089706055341
313.792172693296;55.0929673177068
313.813792116899;55.0873864397891
313.835411540501;55.0919900893147
313.857030964104;55.1100791276714
313.878650387707;55.1416651017189
313.900269811309;55.184475056039
313.921889234912;55.2372313845324
313.943508658514;55.3005149906251
313.965128082117;55.3737629828824
313.98674750572;55.4553998146985
314.008366929322;55.5451930622636
314.029986352925;55.6429554008704
314.051605776527;55.7491817084384
314.07322520013;55.8634723154231
314.094844623732;55.9810238334799
314.116464047335;56.1018208441834
314.138083470938;56.2252516401893
314.15970289454;56.3555115074533
314.181322318143;56.4910966994527
314.202941741745;56.6263128399471
314.224561165348;56.7577207559627
314.24618058895;56.8796679188196
314.267800012553;56.984096641633
314.289419436156;57.0620635487725
314.311038859758;57.1002555863774
314.332658283361;57.0877630395291
314.354277706963;57.0229638001129
314.375897130566;56.8963932108318
314.397516554168;56.6926628848472
314.419135977771;56.4081659436203
314.440755401374;56.0605439064412
314.462374824976;55.6833981880834
314.483994248579;55.2850534566908
314.505613672181;54.8616222899948
314.527233095784;54.4142588123301
314.548852519387;53.9722163966065
314.570471942989;53.5544597199405
314.592091366592;53.1696949539736
314.613710790194;52.823078453434
314.635330213797;52.5139187777955
314.656949637399;52.2340096315346
314.678569061002;51.9657142501812
314.700188484605;51.711416194447
314.721807908207;51.4985264211802
314.74342733181;51.3248408094515
314.765046755412;51.1809031040901
314.786666179015;51.0611428122047
314.808285602617;50.9563808584521
314.82990502622;50.8549689981453
314.851524449823;50.7514579120143
314.873143873425;50.6626506384636
314.894763297028;50.5955376321734
314.91638272063;50.541395774826
314.938002144233;50.4964326151596
314.959621567835;50.4614957158162
314.981240991438;50.43631614184
315.002860415041;50.4181778285924
315.024479838643;50.4081696996475
315.046099262246;50.4095060020992
315.067718685848;50.4229781717547
315.089338109451;50.4538307819602
315.110957533054;50.5005625408498
315.132576956656;50.5492487712308
315.154196380259;50.5897652660739
315.175815803861;50.6177027121956
315.197435227464;50.6173326849395
315.219054651066;50.5798000037531
315.240674074669;50.5033906466337
315.262293498272;50.3828471717966
315.283912921874;50.2197468058401
315.305532345477;50.0288209578892
315.327151769079;49.8207290278637
315.348771192682;49.601951060623
315.370390616284;49.3862450642537
315.392010039887;49.1972580931873
315.41362946349;49.0450183037788
315.435248887092;48.9275638000128
315.456868310695;48.8521824478495
315.478487734297;48.8299352200475
315.5001071579;48.8596284176135
315.521726581503;48.9222964225476
315.543346005105;49.0021631720543
315.564965428708;49.0961110135899
315.58658485231;49.201875030476
315.608204275913;49.3151710322431
315.629823699515;49.4276865567591
315.651443123118;49.5295275874315
315.673062546721;49.6191294559466
315.694681970323;49.6928578994152
315.716301393926;49.7406206407392
315.737920817528;49.7644148786968
315.759540241131;49.7697204414673
315.781159664733;49.7503667901511
315.802779088336;49.695398611458
315.824398511939;49.6019566584701
315.846017935541;49.4746202504086
315.867637359144;49.3155907184145
315.889256782746;49.126977048311
315.910876206349;48.9074502728347
315.932495629952;48.6577271681333
315.954115053554;48.3838533168595
315.975734477157;48.0888294580029
315.997353900759;47.7728606451685
316.018973324362;47.4479608258272
316.040592747964;47.1280231304649
316.062212171567;46.8111306498482
316.08383159517;46.4890716575753
316.105451018772;46.1619341676074
316.127070442375;45.8439642062822
316.148689865977;45.5486092722123
316.17030928958;45.2794466638766
316.191928713182;45.044238740213
316.213548136785;44.846317267723
316.235167560388;44.6892140138795
316.25678698399;44.5758185745016
316.278406407593;44.5032313889851
316.300025831195;44.4713048649414
316.321645254798;44.4874537493744
316.3432646784;44.5502269747545
316.364884102003;44.6514727324398
316.386503525606;44.7836547025244
316.408122949208;44.9319808965012
316.429742372811;45.0775480462468
316.451361796413;45.2125371417303
316.472981220016;45.3389808781102
316.494600643619;45.440449211315
316.516220067221;45.5069022473917
316.537839490824;45.5353166621049
316.559458914426;45.5195132786481
316.581078338029;45.4637102212915
316.602697761631;45.3775374160917
316.624317185234;45.2630139435232
316.645936608837;45.1210284866976
316.667556032439;44.9572618114755
316.689175456042;44.7750002033181
316.710794879644;44.5855973215259
316.732414303247;44.3939664514252
316.754033726849;44.2030450934296
316.775653150452;44.0370600829007
316.797272574055;43.9079792902071
316.818891997657;43.814820519694
316.84051142126;43.7445856292778
316.862130844862;43.693029998709
316.883750268465;43.6655797642282
316.905369692068;43.6623782433231
316.92698911567;43.6758679166711
316.948608539273;43.6976380522509
316.970227962875;43.7272821648674
316.991847386478;43.7481607496573
317.01346681008;43.7366820015552
317.035086233683;43.6840496914554
317.056705657286;43.5903543253474
317.078325080888;43.4581960516016
317.099944504491;43.3027312510432
317.121563928093;43.1244703162781
317.143183351696;42.9074387434239
317.164802775298;42.6502595478345
317.186422198901;42.3603204607271
317.208041622504;42.0534218856942
317.229661046106;41.7576500056688
317.251280469709;41.4770377401612
317.272899893311;41.207478712073
317.294519316914;40.9661288678333
317.316138740516;40.7716288466018
317.337758164119;40.6322018792881
317.359377587722;40.5435928179754
317.380997011324;40.4982173655472
317.402616434927;40.4939083917509
317.424235858529;40.5273131365305
317.445855282132;40.5949458531681
317.467474705735;40.6962682658697
317.489094129337;40.8256952649566
317.51071355294;40.9770104883787
317.532332976542;41.1371173620571
317.553952400145;41.2963736764413
317.575571823747;41.4544667145984
317.59719124735;41.6072503000651
317.618810670953;41.7390735239907
317.640430094555;41.8460594448006
317.662049518158;41.9470695051013
317.68366894176;42.0535325209011
317.705288365363;42.1710808126697
317.726907788965;42.2858915765721
317.748527212568;42.3887115529936
317.770146636171;42.4782996141138
317.791766059773;42.5527070173727
317.813385483376;42.6103788402161
317.835004906978;42.6550614878275
317.856624330581;42.6888669812821
317.878243754183;42.7128830178786
317.899863177786;42.7301805318113
317.921482601389;42.7473743372711
317.943102024991;42.7707743021493
317.964721448594;42.8043924331317
317.986340872196;42.8514764551126
318.007960295799;42.9190961641823
318.029579719402;43.0151678524136
318.051199143004;43.1453214565121
318.072818566607;43.3142177335958
318.094437990209;43.5193314398507
318.116057413812;43.7521310580339
318.137676837414;43.9986926476858
318.159296261017;44.2507234792801
318.18091568462;44.5094541469762
318.202535108222;44.764241997267
318.224154531825;44.9796833886428
318.245773955427;45.146737651368
318.26739337903;45.2678704925791
318.289012802632;45.3353401751582
318.310632226235;45.3378983322577
318.332251649838;45.2774956511834
318.35387107344;45.1608708626605
318.375490497043;44.9844169478387
318.397109920645;44.7428862017282
318.418729344248;44.4483166560153
318.44034876785;44.1215147494726
318.461968191453;43.7679076008064
318.483587615056;43.3824791777483
318.505207038658;42.9722768624268
318.526826462261;42.5663780397036
318.548445885863;42.1759044282412
318.570065309466;41.7923697229068
318.591684733069;41.4135813282331
318.613304156671;41.037041741395
318.634923580274;40.6618381489305
318.656543003876;40.2870712293948
318.678162427479;39.911972552317
318.699781851081;39.5461206529778
318.721401274684;39.1871304561616
318.743020698287;38.8270350518425
318.764640121889;38.4672428071549
318.786259545492;38.1253808938231
318.807878969094;37.8107269292937
318.829498392697;37.5269265512346
318.851117816299;37.2669803093855
318.872737239902;37.0286032055659
318.894356663505;36.8326638689271
318.915976087107;36.6761719884949
318.93759551071;36.5471270635098
318.959214934312;36.4244029539631
318.980834357915;36.3033015215946
319.002453781517;36.1856192817121
319.02407320512;36.0605461997683
319.045692628723;35.9188261774879
319.067312052325;35.7678894629329
319.088931475928;35.6142361935597
319.11055089953;35.4541587066409
319.132170323133;35.285301557597
319.153789746736;35.1133572868603
319.175409170338;34.9485785874706
319.197028593941;34.8038159451412
319.218648017543;34.6868748751948
319.240267441146;34.5913699322984
319.261886864748;34.5049328776747
319.283506288351;34.4235330579771
319.305125711954;34.3499078237972
319.326745135556;34.2807904935879
319.348364559159;34.2051485210955
319.369983982761;34.1083441979998
319.391603406364;33.9780079169278
319.413222829966;33.8275075091245
319.434842253569;33.6731436780117
319.456461677172;33.5087770459252
319.478081100774;33.3274076746958
319.499700524377;33.1333079974871
319.521319947979;32.94104332839
319.542939371582;32.7664814197593
319.564558795185;32.6083199069446
319.586178218787;32.4585727109992
319.60779764239;32.3124661995395
319.629417065992;32.1965592325461
319.651036489595;32.1445099187748
319.672655913197;32.1348903912307
319.6942753368;32.1456984477454
319.715894760403;32.1694283971786
319.737514184005;32.2064045222105
319.759133607608;32.2639626950305
319.78075303121;32.3466967114837
319.802372454813;32.448357219713
319.823991878415;32.5626971183193
319.845611302018;32.6921468017534
319.867230725621;32.8423641907226
319.888850149223;33.0120028234053
319.910469572826;33.2030790417735
319.932088996428;33.4213484287559
319.953708420031;33.6623919651131
319.975327843633;33.9230056993036
319.996947267236;34.2059152036736
320.018566690839;34.5141696376799
320.040186114441;34.8502336849061
320.061805538044;35.2146407691391
320.083424961646;35.5971313400375
320.105044385249;35.9805092705717
320.126663808852;36.3495858015385
320.148283232454;36.7081262391294
320.169902656057;37.0510682206287
320.191522079659;37.3646378243137
320.213141503262;37.6351694005562
320.234760926864;37.8554688583747
320.256380350467;38.0290407197807
320.27799977407;38.1602561792174
320.299619197672;38.2458836975064
320.321238621275;38.2797538159835
320.342858044877;38.2599549187957
320.36447746848;38.188926229768
320.386096892082;38.070769185378
320.407716315685;37.9165229141664
320.429335739288;37.7320033403799
320.45095516289;37.5189463676863
320.472574586493;37.2916834073526
320.494194010095;37.0666875898569
320.515813433698;36.8482636615869
320.537432857301;36.6408321219455
320.559052280903;36.4556730411882
320.580671704506;36.3040203108781
320.602291128108;36.1947560813234
320.623910551711;36.133721145239
320.645529975313;36.1206938480489
320.667149398916;36.1507296281152
320.688768822519;36.2250779894341
320.710388246121;36.349565767367
320.732007669724;36.5199062081949
320.753627093326;36.7200195634003
320.775246516929;36.9368950588327
320.796865940531;37.1647430917137
320.818485364134;37.3988117914074
320.840104787737;37.6329374436041
320.861724211339;37.8555167058719
320.883343634942;38.0528333505141
320.904963058544;38.2174838983329
320.926582482147;38.3575168918155
320.94820190575;38.4801128509512
320.969821329352;38.5795970847622
320.991440752955;38.6580771348692
321.013060176557;38.7298232728632
321.03467960016;38.8066612345662
321.056299023762;38.8956552404479
321.077918447365;38.996324304229
321.099537870968;39.1098483900929
321.12115729457;39.2398583503007
321.142776718173;39.3935506322724
321.164396141775;39.5732824064313
321.186015565378;39.7629067056935
321.20763498898;39.956977757168
321.229254412583;40.1646441770834
321.250873836186;40.3840448026269
321.272493259788;40.6001332068986
321.294112683391;40.7953898427058
321.315732106993;40.9635639108748
321.337351530596;41.1043282085717
321.358970954198;41.2166994358387
321.380590377801;41.3000498197281
321.402209801404;41.35156648366
321.423829225006;41.3631225435938
321.445448648609;41.3322844087251
321.467068072211;41.2746588626658
321.488687495814;41.2018590910724
321.510306919417;41.1143229061741
321.531926343019;41.013274326188
321.553545766622;40.9084236088601
321.575165190224;40.8173641191367
321.596784613827;40.7552356478364
321.618404037429;40.7217742070096
321.640023461032;40.7059618614928
321.661642884635;40.702273386134
321.683262308237;40.7010907679609
321.70488173184;40.6925227439306
321.726501155442;40.6635693559165
321.748120579045;40.5967768733208
321.769740002647;40.4874121976462
321.79135942625;40.3352268134821
321.812978849853;40.1343492635977
321.834598273455;39.8768022269191
321.856217697058;39.5611286955128
321.87783712066;39.1915231623252
321.899456544263;38.7643864606993
321.921075967865;38.2717990755668
321.942695391468;37.7296642116605
321.964314815071;37.1658017182317
321.985934238673;36.5959921978092
322.007553662276;36.020048411617
322.029173085878;35.436905948665
322.050792509481;34.8496467983232
322.072411933084;34.2547854031972
322.094031356686;33.6431414353691
322.115650780289;33.018483122202
322.137270203891;32.3915824533389
322.158889627494;31.7659390702047
322.180509051096;31.1630560484583
322.202128474699;30.5845229618172
322.223747898302;30.0153563245857
322.245367321904;29.4527294117689
322.266986745507;28.9354225115124
322.288606169109;28.501857422962
322.310225592712;28.1374467153051
322.331845016314;27.8333327819841
322.353464439917;27.5989054091515
322.37508386352;27.4549437705627
322.396703287122;27.3988774021111
322.418322710725;27.4255674683659
322.439942134327;27.526114244257
322.46156155793;27.6961224349713
322.483180981532;27.9274967037058
322.504800405135;28.2117635870381
322.526419828738;28.5333926183407
322.54803925234;28.8746195709458
322.569658675943;29.2336634293568
322.591278099545;29.6154149419572
322.612897523148;30.0252303192297
322.634516946751;30.4672814441586
322.656136370353;30.9293702022546
322.677755793956;31.3817609575392
322.699375217558;31.8199059240057
322.720994641161;32.2533142424174
322.742614064763;32.6744122885298
322.764233488366;33.0598266894744
322.785852911969;33.4181833596976
322.807472335571;33.7662810564557
322.829091759174;34.1035325558652
322.850711182776;34.4130430669477
322.872330606379;34.6723221574212
322.893950029981;34.8841038426951
322.915569453584;35.050374532344
322.937188877187;35.1731096922723
322.958808300789;35.2595244419112
322.980427724392;35.3092677591711
323.002047147994;35.319385244399
323.023666571597;35.2875863756554
323.045285995199;35.2132796881139
323.066905418802;35.0885443779741
323.088524842405;34.9096398228355
323.110144266007;34.6789756842341
323.13176368961;34.3996457743607
323.153383113212;34.0694945503637
323.175002536815;33.6828114589663
323.196621960418;33.2356169231342
323.21824138402;32.7295101720557
323.239860807623;32.1883043180006
323.261480231225;31.6391333282137
323.283099654828;31.0869788930396
323.30471907843;30.5327292889535
323.326338502033;29.9878290736772
323.347957925636;29.4811567037954
323.369577349238;29.0298043646136
323.391196772841;28.6287506694071
323.412816196443;28.2665292491417
323.434435620046;27.9462772562254
323.456055043648;27.6831672925288
323.477674467251;27.4845396107857
323.499293890854;27.3484439795352
323.520913314456;27.2806262323656
323.542532738059;27.2912340674561
323.564152161661;27.3777461092967
323.585771585264;27.5331786173473
323.607391008867;27.7627664784982
323.629010432469;28.0795038673361
323.650629856072;28.4790592189531
323.672249279674;28.9421782131509
323.693868703277;29.4572512588884
323.715488126879;30.0228220135654
323.737107550482;30.6264318047687
323.758726974085;31.24075300632
323.780346397687;31.8558825155949
323.80196582129;32.456965719045
323.823585244892;33.0280010093901
323.845204668495;33.5612431285602
323.866824092097;34.0318687486376
323.8884435157;34.4076434277033
323.910062939303;34.6804689682866
323.931682362905;34.8487213906004
323.953301786508;34.9176189085244
323.97492121011;34.8903564409537
323.996540633713;34.7525796071496
324.018160057315;34.5098625224963
324.039779480918;34.1935174335786
324.061398904521;33.8154163095188
324.083018328123;33.3736053950148
324.104637751726;32.8666852797653
324.126257175328;32.3027255105489
324.147876598931;31.7155666169684
324.169496022534;31.1422844791927
324.191115446136;30.587095797488
324.212734869739;30.055846202687
324.234354293341;29.5635766520866
324.255973716944;29.1052215970251
324.277593140546;28.6793905551378
324.299212564149;28.2974858157789
324.320831987752;27.9551947476067
324.342451411354;27.6306940262789
324.364070834957;27.3070649168448
324.385690258559;26.9749352024724
324.407309682162;26.6330483522445
324.428929105764;26.2710945899589
324.450548529367;25.8894142532568
324.47216795297;25.4944767145996
324.493787376572;25.1020972313333
324.515406800175;24.7298979613504
324.537026223777;24.387500404928
324.55864564738;24.0977399872314
324.580265070982;23.8812561938163
324.601884494585;23.7376703918887
324.623503918188;23.667562073008
324.64512334179;23.6770284132791
324.666742765393;23.776469865797
324.688362188995;23.9763692375605
324.709981612598;24.2751444141759
324.731601036201;24.6629354422001
324.753220459803;25.1266564033695
