Name;BF_ESR_01_Natural_x_gon_100dg_result

Recipe
Accumulations;5;Number of accumulations
RetryCount;0;Number of retries on error
AbortOnError;True;Abort on error
EnableQFactorMeasurement;False;Enable/Disable q-Factor measurement
Bfrom;313;B from
Bto;363;B to
SweepTime;60;Sweep time
Modulation;0.2;Modulation
ModulationFreq;100;Modulation
BHoldEnabled;False;B hold enabled
BHold;0;B hold
MicrowavePower;2;Microwave power
MarkerEnabled;False;
MarkerStartField;0;
MarkerEndField;0;
Mode;;
KineticGFact;0;
KineticTotalTransientTime;0;
KineticTimeResolution;0;
TempFrom;5;
TempUseSlope;False;
TempTo;5;
TempdT;1;
TempSetupTime;0;
GonFrom;0;
GonTo;180;
GonSteps;20;
XRayEnabled;False;
XRayTime;3;
XRayVoltage;40;
XRayCurrent;0.5;
UVEnabled;False;
UVIntensity;0;
UVTime;0;
UVLeadTime;0;
UVWavelength;0;
PowSweepFrom;1;
PowSweepTo;5;
PowSweepSteps;5;
AmpModSweepFrom;0;
AmpModSweepTo;1;
AmpModSweepSteps;10;
ExtTriggerEnabled;False;
ExtTrigLeadTime;0;
ExtTrigOnTime;5;

Meas
BField [mT];MW_Absorption []
313.016904144287;130.083449703411
313.038518225396;130.46010029487
313.060132306505;130.962188327896
313.081746387614;131.541186038011
313.103360468723;132.189387721353
313.124974549831;132.880739638016
313.14658863094;133.633069995253
313.168202712049;134.468147339861
313.189816793158;135.412523473217
313.211430874267;136.469453736629
313.233044955376;137.593379894221
313.254659036485;138.746704969468
313.276273117593;139.943432634905
313.297887198702;141.210551971625
313.319501279811;142.539350353313
313.34111536092;143.912558199076
313.362729442029;145.32768557409
313.384343523138;146.745489572416
313.405957604247;148.124251983755
313.427571685355;149.479159739706
313.449185766464;150.80306737418
313.470799847573;152.047397497781
313.492413928682;153.217942283756
313.514028009791;154.339103422277
313.5356420909;155.422132485585
313.557256172009;156.458593000437
313.578870253117;157.425956379426
313.600484334226;158.335332642346
313.622098415335;159.228587195288
313.643712496444;160.126130249448
313.665326577553;161.023471657629
313.686940658662;161.916433670502
313.708554739771;162.806745659118
313.730168820879;163.701828102647
313.751782901988;164.595185346636
313.773396983097;165.473749272397
313.795011064206;166.345794230876
313.816625145315;167.230042358271
313.838239226424;168.080887992706
313.859853307533;168.870543996476
313.881467388641;169.603617296148
313.90308146975;170.282005359351
313.924695550859;170.919274963013
313.946309631968;171.545187795532
313.967923713077;172.182481886044
313.989537794186;172.838671877182
314.011151875295;173.523258238404
314.032765956403;174.248976546144
314.054380037512;175.013762764037
314.075994118621;175.820215362935
314.09760819973;176.676117553961
314.119222280839;177.554157550713
314.140836361948;178.423672565396
314.162450443057;179.29092977805
314.184064524165;180.15906093475
314.205678605274;180.988809112519
314.227292686383;181.7594796637
314.248906767492;182.492480945807
314.270520848601;183.185634310014
314.29213492971;183.809975907846
314.313749010819;184.351078916981
314.335363091927;184.81749790362
314.356977173036;185.236891728437
314.378591254145;185.640592325238
314.400205335254;186.037226677469
314.421819416363;186.443478297397
314.443433497472;186.876822175221
314.465047578581;187.306224140684
314.48666165969;187.726387385252
314.508275740798;188.158476789839
314.529889821907;188.62415739838
314.551503903016;189.126505094199
314.573117984125;189.645893165614
314.594732065234;190.171580639241
314.616346146343;190.708405488388
314.637960227452;191.24861128656
314.65957430856;191.78906379999
314.681188389669;192.341446747132
314.702802470778;192.890579762978
314.724416551887;193.39592449546
314.746030632996;193.843215716589
314.767644714105;194.235274493629
314.789258795214;194.581876925065
314.810872876322;194.892759449364
314.832486957431;195.159059857736
314.85410103854;195.370352578197
314.875715119649;195.536424615687
314.897329200758;195.67252075618
314.918943281867;195.783987752167
314.940557362976;195.86793009997
314.962171444084;195.92489204916
314.983785525193;195.961634494287
315.005399606302;195.98832342334
315.027013687411;196.021801669905
315.04862776852;196.065460371716
315.070241849629;196.120642248333
315.091855930738;196.189783854319
315.113470011846;196.262716953079
315.135084092955;196.318829171397
315.156698174064;196.353006427315
315.178312255173;196.373094204913
315.199926336282;196.383786526082
315.221540417391;196.378380446669
315.2431544985;196.351670160888
315.264768579608;196.301063677555
315.286382660717;196.223395136911
315.307996741826;196.122906894351
315.329610822935;196.007371054793
315.351224904044;195.87519962662
315.372838985153;195.722525511432
315.394453066262;195.539152531648
315.41606714737;195.32620921244
315.437681228479;195.093221354907
315.459295309588;194.858363443056
315.480909390697;194.617962888059
315.502523471806;194.351403634449
315.524137552915;194.052044529482
315.545751634024;193.742570491969
315.567365715132;193.443770292465
315.588979796241;193.142764451476
315.61059387735;192.821995965493
315.632207958459;192.48336330011
315.653822039568;192.147207155002
315.675436120677;191.818182142444
315.697050201786;191.494950261505
315.718664282894;191.188480703871
315.740278364003;190.901514803441
315.761892445112;190.617111963676
315.783506526221;190.328043768882
315.80512060733;190.035066706676
315.826734688439;189.73523190761
315.848348769548;189.430604765269
315.869962850656;189.123621215652
315.891576931765;188.807251368555
315.913191012874;188.490957655879
315.934805093983;188.178074985939
315.956419175092;187.846921705988
315.978033256201;187.496076249755
315.99964733731;187.151569447489
316.021261418418;186.834886978185
316.042875499527;186.548303162965
316.064489580636;186.292346940692
316.086103661745;186.061455614074
316.107717742854;185.854229697772
316.129331823963;185.674834790171
316.150945905072;185.518834815333
316.17255998618;185.36851199769
316.194174067289;185.204670777979
316.215788148398;185.005629106997
316.237402229507;184.752235113368
316.259016310616;184.434784186902
316.280630391725;184.042430844606
316.302244472834;183.557060639296
316.323858553943;182.968373114514
316.345472635051;182.2809847904
316.36708671616;181.505214916678
316.388700797269;180.649505639428
316.410314878378;179.727843660885
316.431928959487;178.751057176699
316.453543040596;177.73570002336
316.475157121705;176.751608635275
316.496771202813;175.874996427786
316.518385283922;175.052767715246
316.539999365031;174.240591118883
316.56161344614;173.421002397767
316.583227527249;172.597613972863
316.604841608358;171.788828765389
316.626455689467;171.031826178239
316.648069770575;170.35024554504
316.669683851684;169.733666293877
316.691297932793;169.158006542126
316.712912013902;168.607890679065
316.734526095011;168.082690812926
316.75614017612;167.57602596011
316.777754257229;167.087903213222
316.799368338337;166.628220723198
316.820982419446;166.19273883989
316.842596500555;165.766351013885
316.864210581664;165.343127836436
316.885824662773;164.932513121422
316.907438743882;164.524585308111
316.929052824991;164.104387301727
316.950666906099;163.666849583474
316.972280987208;163.211742246822
316.993895068317;162.740955482054
317.015509149426;162.24723141935
317.037123230535;161.71970102342
317.058737311644;161.14342325637
317.080351392753;160.530950299646
317.101965473861;159.928909895965
317.12357955497;159.353801583208
317.145193636079;158.781865817008
317.166807717188;158.196617606303
317.188421798297;157.592331641307
317.210035879406;156.990171690439
317.231649960515;156.393824631565
317.253264041623;155.785468500419
317.274878122732;155.155491055709
317.296492203841;154.542204305793
317.31810628495;153.975417717956
317.339720366059;153.432355491834
317.361334447168;152.880447255706
317.382948528277;152.317286936099
317.404562609385;151.767070451044
317.426176690494;151.243923977783
317.447790771603;150.728981132165
317.469404852712;150.184677040924
317.491018933821;149.608817560585
317.51263301493;149.007339530152
317.534247096039;148.395033724924
317.555861177147;147.779206463279
317.577475258256;147.136434295341
317.599089339365;146.462723630231
317.620703420474;145.766052882471
317.642317501583;145.033565746182
317.663931582692;144.268008910827
317.685545663801;143.470870386196
317.707159744909;142.650706773835
317.728773826018;141.82977029181
317.750387907127;141.020461340294
317.772001988236;140.20455192294
317.793616069345;139.357256834635
317.815230150454;138.457838998676
317.836844231563;137.507254698189
317.858458312671;136.539383018748
317.88007239378;135.568091330107
317.901686474889;134.571012551435
317.923300555998;133.52244162612
317.944914637107;132.42240840213
317.966528718216;131.289789302957
317.988142799325;130.161095384034
318.009756880433;129.071908161062
318.031370961542;127.994551757563
318.052985042651;126.875246722587
318.07459912376;125.6829764979
318.096213204869;124.436767935906
318.117827285978;123.244563356522
318.139441367087;122.118234633488
318.161055448196;121.006784975769
318.182669529304;119.908685850206
318.204283610413;118.828571718357
318.225897691522;117.75204837489
318.247511772631;116.682370383338
318.26912585374;115.649070953993
318.290739934849;114.645776713761
318.312354015958;113.654885549715
318.333968097066;112.703450175213
318.355582178175;111.811140400857
318.377196259284;110.969996878959
318.398810340393;110.168721944929
318.420424421502;109.399588842885
318.442038502611;108.650030170158
318.46365258372;107.899352846827
318.485266664828;107.116576442636
318.506880745937;106.289145456761
318.528494827046;105.446368915651
318.550108908155;104.613503930825
318.571722989264;103.779793110804
318.593337070373;102.920123615018
318.614951151482;102.012740722201
318.63656523259;101.072075122065
318.658179313699;100.118256648774
318.679793394808;99.1520734432451
318.701407475917;98.1818118591845
318.723021557026;97.2068916308322
318.744635638135;96.2161977517077
318.766249719244;95.2129729546934
318.787863800352;94.2222364249006
318.809477881461;93.203316134567
318.83109196257;92.1390298829771
318.852706043679;91.0874459354781
318.874320124788;90.0735611850727
318.895934205897;89.0902060862458
318.917548287006;88.1479414626893
318.939162368114;87.2545754208059
318.960776449223;86.4042356589184
318.982390530332;85.618797827992
319.004004611441;84.9341762724492
319.02561869255;84.3384616346397
319.047232773659;83.8231268231271
319.068846854768;83.3857289738203
319.090460935876;83.0306759686465
319.112075016985;82.7512720089034
319.133689098094;82.5313713736675
319.155303179203;82.352754025973
319.176917260312;82.1971535527757
319.198531341421;82.0505164423025
319.22014542253;81.9025896512253
319.241759503638;81.7429613646833
319.263373584747;81.5691900862235
319.284987665856;81.3735937145028
319.306601746965;81.1491631832006
319.328215828074;80.9036278745539
319.349829909183;80.6460888265029
319.371443990292;80.3713819167783
319.3930580714;80.069582785361
319.414672152509;79.73545092519
319.436286233618;79.3744617961802
319.457900314727;79.0179314874111
319.479514395836;78.6921029870357
319.501128476945;78.3951340803878
319.522742558054;78.1119807230727
319.544356639162;77.8389989456787
319.565970720271;77.5850135160857
319.58758480138;77.3558958696523
319.609198882489;77.1412261120559
319.630812963598;76.9279398279855
319.652427044707;76.7061389158636
319.674041125816;76.4735270601352
319.695655206924;76.2343291578081
319.717269288033;75.9870105441128
319.738883369142;75.7309855979179
319.760497450251;75.4700962017
319.78211153136;75.213462148491
319.803725612469;74.9705912410631
319.825339693578;74.7604655354074
319.846953774686;74.5960927016585
319.868567855795;74.4725907279305
319.890181936904;74.3810340307402
319.911796018013;74.3194877369912
319.933410099122;74.2933482819119
319.955024180231;74.2947718471524
319.97663826134;74.3152578458483
319.998252342449;74.3488321290114
320.019866423557;74.3835079246591
320.041480504666;74.4071215021092
320.063094585775;74.4202351523666
320.084708666884;74.4228161586792
320.106322747993;74.4076963771289
320.127936829102;74.3672806739388
320.149550910211;74.3143023800357
320.171164991319;74.2591566334802
320.192779072428;74.2105299160663
320.214393153537;74.1752761639787
320.236007234646;74.1563747668681
320.257621315755;74.1600625581628
320.279235396864;74.1894473008487
320.300849477973;74.2406204462418
320.322463559081;74.3060106773014
320.34407764019;74.3767230451926
320.365691721299;74.4439089439185
320.387305802408;74.4966159405166
320.408919883517;74.510808471947
320.430533964626;74.4570648996715
320.452148045735;74.3183513817851
320.473762126843;74.0870610815036
320.495376207952;73.761728192972
320.516990289061;73.3453616033059
320.53860437017;72.8487410313809
320.560218451279;72.2805179302415
320.581832532388;71.6320277745779
320.603446613497;70.9101894655119
320.625060694605;70.1319553698625
320.646674775714;69.3261828206814
320.668288856823;68.5423963133712
320.689902937932;67.8201381738229
320.711517019041;67.1582315204089
320.73313110015;66.5313417892932
320.754745181259;65.9624609609699
320.776359262367;65.4746436551476
320.797973343476;65.0514450755717
320.819587424585;64.6768585345783
320.841201505694;64.3432581985158
320.862815586803;64.0397123346918
320.884429667912;63.7510843245883
320.906043749021;63.4699504595892
320.927657830129;63.1997713761867
320.949271911238;62.9406323881262
320.970885992347;62.6871817204903
320.992500073456;62.4349155151975
321.014114154565;62.1841801236702
321.035728235674;61.9384617458213
321.057342316783;61.6923156673873
321.078956397891;61.4387330982243
321.100570479;61.1757733525326
321.122184560109;60.9135860308615
321.143798641218;60.6528208794951
321.165412722327;60.3785655288689
321.187026803436;60.0754122886137
321.208640884545;59.7376199878246
321.230254965653;59.3641785148425
321.251869046762;58.9587396414775
321.273483127871;58.5377263265582
321.29509720898;58.1144954095348
321.316711290089;57.6845757208702
321.338325371198;57.243865300616
321.359939452307;56.8012348318269
321.381553533415;56.3769877865087
321.403167614524;55.9823285405615
321.424781695633;55.6090350557983
321.446395776742;55.2611975969725
321.468009857851;54.9571454042088
321.48962393896;54.6998649450719
321.511238020069;54.4773350974119
321.532852101177;54.2705480682362
321.554466182286;54.0625736312561
321.576080263395;53.8595894935272
321.597694344504;53.6727418672091
321.619308425613;53.5016462010584
321.640922506722;53.3441160893954
321.662536587831;53.1994488191261
321.684150668939;53.0649965443785
321.705764750048;52.9392639579995
321.727378831157;52.8262172077973
321.748992912266;52.7293057187609
321.770606993375;52.6412422005902
321.792221074484;52.5501764321173
321.813835155593;52.4514627214429
321.835449236701;52.3586182432561
321.85706331781;52.2837393060677
321.878677398919;52.2219166026748
321.900291480028;52.1567537333428
321.921905561137;52.0798866051165
321.943519642246;52.0166969118967
321.965133723355;51.9779242266415
321.986747804464;51.9520638062084
322.008361885572;51.9314051274427
322.029975966681;51.9168043900961
322.05159004779;51.9163064713435
322.073204128899;51.9309541664464
322.094818210008;51.9483886470415
322.116432291117;51.9677983802249
322.138046372226;51.9971718133589
322.159660453334;52.0267250452054
322.181274534443;52.0362010388631
322.202888615552;52.0187515922605
322.224502696661;51.9790373940768
322.24611677777;51.9230568842331
322.267730858879;51.8523555361834
322.289344939988;51.7709138959265
322.310959021096;51.6843759936007
322.332573102205;51.5991704507531
322.354187183314;51.5233515136873
322.375801264423;51.4562597603151
322.397415345532;51.3907577691401
322.419029426641;51.328806383545
322.44064350775;51.2862304287076
322.462257588858;51.2721769781424
322.483871669967;51.281214613154
322.505485751076;51.295078545756
322.527099832185;51.3117203826355
322.548713913294;51.3405893409092
322.570327994403;51.3732263174761
322.591942075512;51.3921607031501
322.61355615662;51.3844878467809
322.635170237729;51.3535484530296
322.656784318838;51.30227772362
322.678398399947;51.2255739244373
322.700012481056;51.1207635421293
322.721626562165;50.9953718954423
322.743240643274;50.8573302041517
322.764854724382;50.7029298401192
322.786468805491;50.5202262932472
322.8080828866;50.3018899515579
322.829696967709;50.0472397255317
322.851311048818;49.7731209207399
322.872925129927;49.4884125177391
322.894539211036;49.1839433133939
322.916153292144;48.8705901901017
322.937767373253;48.5807076998225
322.959381454362;48.330806726661
322.980995535471;48.1312497127151
323.00260961658;47.9899818834688
323.024223697689;47.8988094818504
323.045837778798;47.8516121498857
323.067451859906;47.8484661768606
323.089065941015;47.8926327047898
323.110680022124;47.9800844973419
323.132294103233;48.1052028797495
323.153908184342;48.2602586606671
323.175522265451;48.4299964650517
323.19713634656;48.6069707351575
323.218750427668;48.7976650172624
323.240364508777;48.9997619815801
323.261978589886;49.192858895909
323.283592670995;49.3595103860341
323.305206752104;49.5128257853828
323.326820833213;49.6694975877739
323.348434914322;49.8300380225172
323.37004899543;49.9899295209233
323.391663076539;50.1542758476447
323.413277157648;50.3138378211277
323.434891238757;50.4484550136475
323.456505319866;50.5644681501379
323.478119400975;50.6786555336913
323.499733482084;50.7916235278464
323.521347563192;50.9034996060324
323.542961644301;51.0129319374677
323.56457572541;51.1264892729561
323.586189806519;51.2495200694379
323.607803887628;51.3767301714197
323.629417968737;51.5087740909509
323.651032049846;51.6518044147832
323.672646130954;51.8124533953026
323.694260212063;51.992959176877
323.715874293172;52.1821769137577
323.737488374281;52.3745512901574
323.75910245539;52.5709511713802
323.780716536499;52.7602189059268
323.802330617608;52.9304412713255
323.823944698717;53.0861595095249
323.845558779825;53.2190542409173
323.867172860934;53.3138413569687
323.888786942043;53.3747172853442
323.910401023152;53.4050267303892
323.932015104261;53.4004438656612
323.95362918537;53.3575748666923
323.975243266479;53.2769749884429
323.996857347587;53.1568938282269
324.018471428696;53.0032037764768
324.040085509805;52.8142590609974
324.061699590914;52.5896783239551
324.083313672023;52.3409868325741
324.104927753132;52.0903241403328
324.126541834241;51.8513082341456
324.148155915349;51.6225505871903
324.169769996458;51.4014388936453
324.191384077567;51.183010969719
324.212998158676;50.9720444203086
324.234612239785;50.7897263200921
324.256226320894;50.6642192154541
324.277840402003;50.5951674331559
324.299454483111;50.5738680578918
324.32106856422;50.5866450681828
324.342682645329;50.6258110900908
324.364296726438;50.6830186624474
324.385910807547;50.7439846421913
324.407524888656;50.7983480018553
324.429138969765;50.834577731551
324.450753050873;50.8398452900957
324.472367131982;50.7992301436983
324.493981213091;50.6867552989319
324.5155952942;50.508570693706
324.537209375309;50.2728626887641
324.558823456418;49.9804299434588
324.580437537527;49.6372734168382
324.602051618635;49.2460798056022
324.623665699744;48.8195929436577
324.645279780853;48.3667115044489
324.666893861962;47.8914337656201
324.688507943071;47.4078784036269
324.71012202418;46.9459991794289
324.731736105289;46.541512966981
324.753350186397;46.1744433887973
324.774964267506;45.8426167900266
