Name;BF_ESR_01_3602s_Z_gon_80dg_result

Recipe
Accumulations;5;Number of accumulations
RetryCount;0;Number of retries on error
AbortOnError;True;Abort on error
EnableQFactorMeasurement;False;Enable/Disable q-Factor measurement
Bfrom;313;B from
Bto;363;B to
SweepTime;60;Sweep time
Modulation;0.2;Modulation
ModulationFreq;100;Modulation
BHoldEnabled;False;B hold enabled
BHold;0;B hold
MicrowavePower;2;Microwave power
MarkerEnabled;False;
MarkerStartField;0;
MarkerEndField;0;
Mode;;
KineticGFact;0;
KineticTotalTransientTime;0;
KineticTimeResolution;0;
TempFrom;5;
TempUseSlope;False;
TempTo;5;
TempdT;1;
TempSetupTime;0;
GonFrom;0;
GonTo;180;
GonSteps;20;
XRayEnabled;False;
XRayTime;3;
XRayVoltage;40;
XRayCurrent;0.5;
UVEnabled;False;
UVIntensity;0;
UVTime;0;
UVLeadTime;0;
UVWavelength;0;
PowSweepFrom;1;
PowSweepTo;5;
PowSweepSteps;5;
AmpModSweepFrom;0;
AmpModSweepTo;1;
AmpModSweepSteps;10;
ExtTriggerEnabled;False;
ExtTrigLeadTime;0;
ExtTrigOnTime;5;

Meas
BField [mT];MW_Absorption []
313.017936019897;66.1830629708147
313.039541586461;66.1769528643722
313.061147153024;66.0111793422988
313.082752719587;65.798462928306
313.104358286151;65.5560475549137
313.125963852714;65.2841156943245
313.147569419277;64.9989837166591
313.16917498584;64.7306586998045
313.190780552404;64.4955070278601
313.212386118967;64.2826428238123
313.23399168553;64.0832993288518
313.255597252093;63.9094963639036
313.277202818657;63.7680745841959
313.29880838522;63.6539191872455
313.320413951783;63.5567124876323
313.342019518346;63.4719504996732
313.36362508491;63.398480457237
313.385230651473;63.328375771737
313.406836218036;63.2725586303595
313.428441784599;63.2489442858119
313.450047351163;63.2528608678263
313.471652917726;63.2683861538439
313.493258484289;63.284039606507
313.514864050852;63.3067249888659
313.536469617416;63.3354184640481
313.558075183979;63.362144078329
313.579680750542;63.3965204395703
313.601286317105;63.442522408894
313.622891883669;63.4921672325116
313.644497450232;63.5398821613006
313.666103016795;63.5881079798151
313.687708583358;63.6378043141089
313.709314149922;63.6876389385871
313.730919716485;63.7462956232539
313.752525283048;63.8181441519223
313.774130849612;63.896049668014
313.795736416175;63.9750108779428
313.817341982738;64.0544345804195
313.838947549301;64.1311746970007
313.860553115865;64.2012763014299
313.882158682428;64.2608383793092
313.903764248991;64.3071126419374
313.925369815554;64.3385360915844
313.946975382118;64.3530045105355
313.968580948681;64.3492006336189
313.990186515244;64.3281125218762
314.011792081807;64.293202905944
314.033397648371;64.2466309887552
314.055003214934;64.1903810862291
314.076608781497;64.1245401835263
314.09821434806;64.0450479087245
314.119819914624;63.9465810316938
314.141425481187;63.8258390592657
314.16303104775;63.6852849666233
314.184636614313;63.531833505102
314.206242180877;63.3703400394269
314.22784774744;63.2030988813456
314.249453314003;63.0412338515307
314.271058880566;62.89530449623
314.29266444713;62.7680146106994
314.314270013693;62.6713544444787
314.335875580256;62.634055468374
314.357481146819;62.6585693451541
314.379086713383;62.721213836757
314.400692279946;62.816584305403
314.422297846509;62.9500696213495
314.443903413073;63.1237927188496
314.465508979636;63.3238546025393
314.487114546199;63.5226774061995
314.508720112762;63.7174134915118
314.530325679326;63.9141645677795
314.551931245889;64.1086092538828
314.573536812452;64.2964094413334
314.595142379015;64.4825149489902
314.616747945579;64.6700029527653
314.638353512142;64.8494947059573
314.659959078705;65.0156821090465
314.681564645268;65.170800499486
314.703170211832;65.323025404026
314.724775778395;65.4796259595333
314.746381344958;65.6433625365546
314.767986911521;65.8033867475532
314.789592478085;65.9459139725176
314.811198044648;66.0702578520784
314.832803611211;66.1780199435016
314.854409177774;66.2620594999315
314.876014744338;66.3073918139766
314.897620310901;66.3019012121969
314.919225877464;66.2417239053287
314.940831444027;66.1244946010901
314.962437010591;65.947131491305
314.984042577154;65.7025498435072
315.005648143717;65.3939330754758
315.02725371028;65.0359829410331
315.048859276844;64.6336205062
315.070464843407;64.1858646571548
315.09207040997;63.6946053939373
315.113675976534;63.1950459231317
315.135281543097;62.7155977098372
315.15688710966;62.2606521445875
315.178492676223;61.840023222896
315.200098242787;61.4830330940238
315.22170380935;61.2085529405503
315.243309375913;61.0002532446164
315.264914942476;60.8482263735669
315.28652050904;60.7598640765884
315.308126075603;60.7311566001215
315.329731642166;60.7579563306899
315.351337208729;60.8078656529392
315.372942775293;60.8596118732682
315.394548341856;60.9148622895152
315.416153908419;60.9761812685494
315.437759474982;61.0351675798047
315.459365041546;61.0888990820349
315.480970608109;61.1389454724153
315.502576174672;61.1822111775343
315.524181741235;61.2190196871391
315.545787307799;61.2599541195636
315.567392874362;61.3185984604482
315.588998440925;61.4019790821065
315.610604007488;61.5139621087518
315.632209574052;61.6637912981082
315.653815140615;61.8600007663562
315.675420707178;62.1105649613327
315.697026273741;62.4116715986065
315.718631840305;62.7564420849053
315.740237406868;63.132164028569
315.761842973431;63.4923299843128
315.783448539994;63.8240700437972
315.805054106558;64.1331448680025
315.826659673121;64.4126615551979
315.848265239684;64.6413968097087
315.869870806248;64.8034004540609
315.891476372811;64.8982048641415
315.913081939374;64.9282940259106
315.934687505937;64.895193925527
315.956293072501;64.7972816761829
315.977898639064;64.6341651913443
315.999504205627;64.4231888804571
316.02110977219;64.1939117662024
316.042715338754;63.9586830064225
316.064320905317;63.7156185768597
316.08592647188;63.4688413143524
316.107532038443;63.2333018652821
316.129137605007;63.0190089024262
316.15074317157;62.8279685822976
316.172348738133;62.6591811303951
316.193954304696;62.5109046521697
316.21555987126;62.3851629209739
316.237165437823;62.2829065152619
316.258771004386;62.201095828339
316.280376570949;62.137195765249
316.301982137513;62.0843410430307
316.323587704076;62.034985718171
316.345193270639;61.9804663239864
316.366798837202;61.9185421773679
316.388404403766;61.8557078643993
316.410009970329;61.7959606214206
316.431615536892;61.7312070341594
316.453221103456;61.6525042558375
316.474826670019;61.5631241989965
316.496432236582;61.4646906818737
316.518037803145;61.3576442279066
316.539643369709;61.2460112230604
316.561248936272;61.1329478184166
316.582854502835;61.0162192896645
316.604460069398;60.8968385886217
316.626065635962;60.7865998470142
316.647671202525;60.6963832388304
316.669276769088;60.623642332541
316.690882335651;60.5561337126425
316.712487902215;60.4874676945734
316.734093468778;60.4162698541481
316.755699035341;60.3434681346164
316.777304601904;60.273798237716
316.798910168468;60.21422462057
316.820515735031;60.1726123374154
316.842121301594;60.1603083303879
316.863726868157;60.1883406530985
316.885332434721;60.2610666214732
316.906938001284;60.3781525152158
316.928543567847;60.5427351898405
316.95014913441;60.7657956212429
316.971754700974;61.0337027609165
316.993360267537;61.3497252651204
317.0149658341;61.7283908028884
317.036571400663;62.1454934302579
317.058176967227;62.5521883543836
317.07978253379;62.9307145240021
317.101388100353;63.2884459121605
317.122993666917;63.60898100393
317.14459923348;63.881995867639
317.166204800043;64.1124847120006
317.187810366606;64.2917985571948
317.20941593317;64.4059043737781
317.231021499733;64.4551725315349
317.252627066296;64.4309978883955
317.274232632859;64.3328955194938
317.295838199423;64.1784310363802
317.317443765986;63.9740573543237
317.339049332549;63.7231861293178
317.360654899112;63.4266009560861
317.382260465676;63.0926076190228
317.403866032239;62.7465644752491
317.425471598802;62.4141892650055
317.447077165365;62.0959063826829
317.468682731929;61.7959771926295
317.490288298492;61.5203843385449
317.511893865055;61.2741077432646
317.533499431618;61.0630550328281
317.555104998182;60.8914949295207
317.576710564745;60.7563971394416
317.598316131308;60.6633967731005
317.619921697871;60.6068018912596
317.641527264435;60.5729367898543
317.663132830998;60.5505035027114
317.684738397561;60.5295666678531
317.706343964124;60.5076292813758
317.727949530688;60.4941683275942
317.749555097251;60.493775641994
317.771160663814;60.4995281949046
317.792766230377;60.5045692401744
317.814371796941;60.5089561214623
317.835977363504;60.5133775139228
317.857582930067;60.5201245282916
317.87918849663;60.534077247246
317.900794063194;60.5473214265225
317.922399629757;60.5549024158439
317.94400519632;60.5579668433627
317.965610762884;60.5597801903758
317.987216329447;60.5548024125523
318.00882189601;60.534867989879
318.030427462573;60.4939054609893
318.052033029137;60.436919827157
318.0736385957;60.371521400625
318.095244162263;60.3007837122186
318.116849728826;60.2147215161047
318.13845529539;60.1082376780589
318.160060861953;59.9930505761
318.181666428516;59.8846384358982
318.203271995079;59.7825054857516
318.224877561643;59.6821587787589
318.246483128206;59.5864547309825
318.268088694769;59.4983784001464
318.289694261332;59.4194981430919
318.311299827896;59.3499493070418
318.332905394459;59.2877782394856
318.354510961022;59.2268157873848
318.376116527585;59.1620448708387
318.397722094149;59.0924252541314
318.419327660712;59.0152190869544
318.440933227275;58.9286275064477
318.462538793838;58.8336717349992
318.484144360402;58.7354220747651
318.505749926965;58.6402760730593
318.527355493528;58.5550375861981
318.548961060092;58.4808663899062
318.570566626655;58.4231759547053
318.592172193218;58.3792586610423
318.613777759781;58.3554252205729
318.635383326345;58.3635332246879
318.656988892908;58.41018437455
318.678594459471;58.4919807851471
318.700200026034;58.5951331039567
318.721805592598;58.7058027459941
318.743411159161;58.8143409407441
318.765016725724;58.9182373729661
318.786622292287;59.0133171815122
318.808227858851;59.0895215005209
318.829833425414;59.1423399898766
318.851438991977;59.1706370331468
318.87304455854;59.1627123628041
318.894650125104;59.1212448702332
318.916255691667;59.0638889286337
318.93786125823;59.0009707841712
318.959466824793;58.9324683441256
318.981072391357;58.8570996730485
319.00267795792;58.7798280340575
319.024283524483;58.7067225596009
319.045889091046;58.6400872603338
319.06749465761;58.5804479175951
319.089100224173;58.5314059828948
319.110705790736;58.4858030503433
319.132311357299;58.4397490956264
319.153916923863;58.3922318712606
319.175522490426;58.3408677081565
319.197128056989;58.2847801840147
319.218733623553;58.2235298147087
319.240339190116;58.1516102211007
319.261944756679;58.0712214845183
319.283550323242;57.9823178181633
319.305155889806;57.8906097555368
319.326761456369;57.7988935009825
319.348367022932;57.705467667475
319.369972589495;57.6087261418107
319.391578156059;57.5118739341347
319.413183722622;57.4232515245565
319.434789289185;57.3462573562795
319.456394855748;57.2813333674709
319.478000422312;57.2229041759814
319.499605988875;57.1679223780613
319.521211555438;57.1105971465884
319.542817122001;57.0466299805543
319.564422688565;56.9747246225295
319.586028255128;56.8932426620322
319.607633821691;56.7910864436326
319.629239388254;56.6581245201838
319.650844954818;56.5024920427075
319.672450521381;56.3316075370301
319.694056087944;56.1389449256355
319.715661654507;55.9196038173785
319.737267221071;55.6887429188158
319.758872787634;55.4682281392924
319.780478354197;55.2579097214491
319.80208392076;55.0548197543429
319.823689487324;54.8576755749917
319.845295053887;54.6828701271548
319.86690062045;54.5360663357851
319.888506187013;54.4117819860529
319.910111753577;54.3066943441741
319.93171732014;54.2312679504949
319.953322886703;54.182977312082
319.974928453267;54.1641305004154
319.99653401983;54.1715719834677
320.018139586393;54.2046052480607
320.039745152956;54.2661854204768
320.06135071952;54.3549776412303
320.082956286083;54.4641606269978
320.104561852646;54.6002736165858
320.126167419209;54.7792786308201
320.147772985773;55.0059985490993
320.169378552336;55.2750032224729
320.190984118899;55.5862868352707
320.212589685462;55.9463892259804
320.234195252026;56.3451285955324
320.255800818589;56.7533687836855
320.277406385152;57.1647319148719
320.299011951715;57.5944810807061
320.320617518279;58.0401998929923
320.342223084842;58.4840097073102
320.363828651405;58.9194651286906
320.385434217968;59.3602409496438
320.407039784532;59.7953410228444
320.428645351095;60.1808830123568
320.450250917658;60.5103838023483
320.471856484221;60.7981277092375
320.493462050785;61.0436588026332
320.515067617348;61.239849294577
320.536673183911;61.3803793186947
320.558278750474;61.4520666412639
320.579884317038;61.4503943237355
320.601489883601;61.3840571426902
320.623095450164;61.2543727008967
320.644701016728;61.0626993513778
320.666306583291;60.8233054049244
320.687912149854;60.5468155278569
320.709517716417;60.2406603161792
320.731123282981;59.9071324461393
320.752728849544;59.5441578150778
320.774334416107;59.147247242024
320.79593998267;58.7263682131459
320.817545549234;58.3261988044818
320.839151115797;57.9616066568614
320.86075668236;57.6125443469361
320.882362248923;57.2723383057573
320.903967815487;56.9595158373593
320.92557338205;56.7017249783527
320.947178948613;56.5061140750244
320.968784515176;56.3607373252914
320.99039008174;56.2538867946924
321.011995648303;56.189058445875
321.033601214866;56.1703686949336
321.055206781429;56.1784540173982
321.076812347993;56.1927316173695
321.098417914556;56.2022161254081
321.120023481119;56.1964481310223
321.141629047682;56.1664789083074
321.163234614246;56.0981364984194
321.184840180809;55.9747210661671
321.206445747372;55.801819048793
321.228051313935;55.5987929580414
321.249656880499;55.3849604988981
321.271262447062;55.1773252362862
321.292868013625;54.9796410902968
321.314473580189;54.7906234342822
321.336079146752;54.6074051784489
321.357684713315;54.4345355661446
321.379290279878;54.2894507310176
321.400895846442;54.1835974109695
321.422501413005;54.1176317373153
321.444106979568;54.0908569540964
321.465712546131;54.1029526752529
321.487318112695;54.1432152183412
321.508923679258;54.1943166078302
321.530529245821;54.2492692863404
321.552134812384;54.3059108076603
321.573740378948;54.3529442201759
321.595345945511;54.3769744282389
321.616951512074;54.3774038594026
321.638557078637;54.3603895431917
321.660162645201;54.329769928583
321.681768211764;54.2858831626938
321.703373778327;54.2308251274079
321.72497934489;54.1623032518869
321.746584911454;54.0742550714645
321.768190478017;53.9705775157833
321.78979604458;53.8622779077026
321.811401611143;53.7583650747465
321.833007177707;53.6619927475007
321.85461274427;53.553154568139
321.876218310833;53.4007311225654
321.897823877396;53.201767258767
321.91942944396;52.980133427505
321.941035010523;52.7386446496018
321.962640577086;52.4751276928801
321.98424614365;52.1820512575345
322.005851710213;51.863197931401
322.027457276776;51.5384116547837
322.049062843339;51.2242806189264
322.070668409903;50.9211261718992
322.092273976466;50.6323814014023
322.113879543029;50.3780897620093
322.135485109592;50.1864386092154
322.157090676156;50.0591370411025
322.178696242719;49.9715457593429
322.200301809282;49.9204497816524
322.221907375845;49.9178323860928
322.243512942409;49.972515518794
322.265118508972;50.092625487842
322.286724075535;50.2839136620325
322.308329642098;50.5281353873394
322.329935208662;50.7857511448425
322.351540775225;51.0519330255968
322.373146341788;51.3394811322151
322.394751908351;51.6369171172243
322.416357474915;51.9163980591746
322.437963041478;52.1688288032686
322.459568608041;52.384613851673
322.481174174604;52.5533244795593
322.502779741168;52.6749264491441
322.524385307731;52.7528313496149
322.545990874294;52.7838034110339
322.567596440857;52.7612844925278
322.589202007421;52.6889562488204
322.610807573984;52.5703097858528
322.632413140547;52.4117266904821
322.65401870711;52.2182460907168
322.675624273674;51.9973035928675
322.697229840237;51.7552493264822
322.7188354068;51.4941813627651
322.740440973364;51.2191053264227
322.762046539927;50.9340522962893
322.78365210649;50.6591754419275
322.805257673053;50.3962931027583
322.826863239617;50.1415939351031
322.84846880618;49.8854072359479
322.870074372743;49.6281049950471
322.891679939306;49.3752161903479
322.91328550587;49.125962484913
322.934891072433;48.8682141805345
322.956496638996;48.593439577921
322.978102205559;48.3035791201572
322.999707772123;48.0021987350873
323.021313338686;47.6799447768272
323.042918905249;47.3297044253943
323.064524471812;46.962465047563
323.086130038376;46.5983318451622
323.107735604939;46.2368232492436
323.129341171502;45.8695586347542
323.150946738065;45.4977921409567
323.172552304629;45.1377856924992
323.194157871192;44.8256471889509
323.215763437755;44.5870202330536
323.237369004318;44.4082126958385
323.258974570882;44.2790779482195
323.280580137445;44.1924017619526
323.302185704008;44.142783085184
323.323791270572;44.1291080212785
323.345396837135;44.1488350269483
323.367002403698;44.1945463693562
323.388607970261;44.2604527419158
323.410213536825;44.3439872282983
323.431819103388;44.448591617767
323.453424669951;44.5777989290282
323.475030236514;44.7356101048205
323.496635803078;44.9318234143413
323.518241369641;45.1656323765289
323.539846936204;45.4279918754012
323.561452502767;45.7091672540648
323.583058069331;46.010419814352
323.604663635894;46.3284423185396
323.626269202457;46.6419035703407
323.64787476902;46.9358193214727
323.669480335584;47.2088110351469
323.691085902147;47.4600085447167
323.71269146871;47.6875229989997
323.734297035273;47.8846111668387
323.755902601837;48.0458280906319
323.7775081684;48.1753382999258
323.799113734963;48.2766230358277
323.820719301526;48.3498397638277
323.84232486809;48.3949495174027
323.863930434653;48.4209521952214
323.885536001216;48.4377597306786
323.907141567779;48.4503444188404
323.928747134343;48.4581012596346
323.950352700906;48.4623966940927
323.971958267469;48.4653246708905
323.993563834033;48.4733225349298
324.015169400596;48.4927937416873
324.036774967159;48.5253616950034
324.058380533722;48.5698827279176
324.079986100286;48.6216057283083
324.101591666849;48.6703356262107
324.123197233412;48.7005402208589
324.144802799975;48.7048234692116
324.166408366539;48.6720444791188
324.188013933102;48.5953314728119
324.209619499665;48.4745161393506
324.231225066228;48.2949607507873
324.252830632792;48.0502897145468
324.274436199355;47.7498405202972
324.296041765918;47.3967742687048
324.317647332481;46.9950016281449
324.339252899045;46.5648661847236
324.360858465608;46.1242371456408
324.382464032171;45.6792531945123
324.404069598734;45.222226973807
324.425675165298;44.744993913271
324.447280731861;44.2552174312906
324.468886298424;43.7586494885363
324.490491864987;43.2725671859558
324.512097431551;42.7923211799046
324.533702998114;42.3132891923754
324.555308564677;41.8355414079507
324.57691413124;41.3597239925222
324.598519697804;40.8879701459442
324.620125264367;40.4292100032647
324.64173083093;39.9990875694576
324.663336397493;39.6134340832303
324.684941964057;39.2755040520826
324.70654753062;38.9854526474084
324.728153097183;38.7481948857293
324.749758663746;38.5699084118154
324.77136423031;38.4605463960795
