Name;BF_ESR_01_360s_X_gon_100dg_result

Recipe
Accumulations;5;Number of accumulations
RetryCount;0;Number of retries on error
AbortOnError;True;Abort on error
EnableQFactorMeasurement;False;Enable/Disable q-Factor measurement
Bfrom;313;B from
Bto;363;B to
SweepTime;60;Sweep time
Modulation;0.2;Modulation
ModulationFreq;100;Modulation
BHoldEnabled;False;B hold enabled
BHold;0;B hold
MicrowavePower;2;Microwave power
MarkerEnabled;False;
MarkerStartField;0;
MarkerEndField;0;
Mode;;
KineticGFact;0;
KineticTotalTransientTime;0;
KineticTimeResolution;0;
TempFrom;5;
TempUseSlope;False;
TempTo;5;
TempdT;1;
TempSetupTime;0;
GonFrom;0;
GonTo;180;
GonSteps;20;
XRayEnabled;False;
XRayTime;3;
XRayVoltage;40;
XRayCurrent;0.5;
UVEnabled;False;
UVIntensity;0;
UVTime;0;
UVLeadTime;0;
UVWavelength;0;
PowSweepFrom;1;
PowSweepTo;5;
PowSweepSteps;5;
AmpModSweepFrom;0;
AmpModSweepTo;1;
AmpModSweepSteps;10;
ExtTriggerEnabled;False;
ExtTrigLeadTime;0;
ExtTrigOnTime;5;

Meas
BField [mT];MW_Absorption []
313.027769699097;73.1906455832422
313.04938569416;73.6815348549705
313.071001689223;74.2033669007875
313.092617684285;74.6904973439661
313.114233679348;75.1332396386342
313.135849674411;75.5287210845504
313.157465669474;75.8509191087717
313.179081664537;76.0911770346345
313.2006976596;76.2642985563632
313.222313654663;76.3782769474382
313.243929649726;76.4334616351193
313.265545644789;76.4257651926188
313.287161639852;76.3656596834364
313.308777634915;76.283246362241
313.330393629978;76.1967528639502
313.352009625041;76.1028545723258
313.373625620104;76.0067894811622
313.395241615167;75.9326672695183
313.41685761023;75.8879436508382
313.438473605293;75.8815190867538
313.460089600355;75.9279567552788
313.481705595418;76.0356506149333
313.503321590481;76.2090158060082
313.524937585544;76.4448588387583
313.546553580607;76.7367171387763
313.56816957567;77.075900875418
313.589785570733;77.4591128659773
313.611401565796;77.8871160660616
313.633017560859;78.3369485017979
313.654633555922;78.767422150175
313.676249550985;79.1573563357156
313.697865546048;79.5160541633119
313.719481541111;79.861448561249
313.741097536174;80.1953466944919
313.762713531237;80.4863085335617
313.7843295263;80.722295595895
313.805945521363;80.9147972057713
313.827561516425;81.0692872401133
313.849177511488;81.1815879875378
313.870793506551;81.252484311199
313.892409501614;81.2857297395566
313.914025496677;81.2847758491855
313.93564149174;81.2503150361153
313.957257486803;81.1733686628454
313.978873481866;81.0409152177975
314.000489476929;80.8521976864962
314.022105471992;80.614721102445
314.043721467055;80.3340301122242
314.065337462118;80.006423212862
314.086953457181;79.618128186063
314.108569452244;79.1659877803534
314.130185447307;78.6694790734592
314.15180144237;78.1709340735998
314.173417437432;77.6969530738186
314.195033432495;77.2460445512888
314.216649427558;76.8172398978358
314.238265422621;76.425140720675
314.259881417684;76.0897343017878
314.281497412747;75.8272259577424
314.30311340781;75.6446164170634
314.324729402873;75.547347777732
314.346345397936;75.5286493323006
314.367961392999;75.5794115195057
314.389577388062;75.6980297956012
314.411193383125;75.877829866722
314.432809378188;76.1172456346336
314.454425373251;76.4131500320158
314.476041368314;76.7699270000873
314.497657363377;77.1732557940856
314.51927335844;77.5987885579374
314.540889353502;78.0286257185773
314.562505348565;78.4478499137166
314.584121343628;78.8441813638106
314.605737338691;79.2172305996164
314.627353333754;79.5686706053493
314.648969328817;79.8906353885133
314.67058532388;80.1711946973077
314.692201318943;80.4048689081329
314.713817314006;80.5914438526476
314.735433309069;80.7303645266123
314.757049304132;80.8196275271564
314.778665299195;80.8656059786953
314.800281294258;80.8754303241053
314.821897289321;80.8544713741537
314.843513284384;80.8043876292709
314.865129279447;80.7156144399316
314.88674527451;80.5890953651885
314.908361269572;80.436897704234
314.929977264635;80.288100822396
314.951593259698;80.1636547803978
314.973209254761;80.0670853089602
314.994825249824;80.0027914853305
315.016441244887;79.9786567348128
315.03805723995;80.0084521717081
315.059673235013;80.1084908766344
315.081289230076;80.2851125724542
315.102905225139;80.5269266544584
315.124521220202;80.8268221635441
315.146137215265;81.1857814498425
315.167753210328;81.598499081939
315.189369205391;82.0522072986507
315.210985200454;82.5456056717273
315.232601195517;83.0562393045804
315.254217190579;83.5571385597856
315.275833185642;84.04260659402
315.297449180705;84.5025337222325
315.319065175768;84.9225054268381
315.340681170831;85.2978543811277
315.362297165894;85.635273821368
315.383913160957;85.929803689434
315.40552915602;86.1706501390958
315.427145151083;86.3554439268228
315.448761146146;86.4892709582299
315.470377141209;86.5844391505709
315.491993136272;86.6452951358438
315.513609131335;86.6708609128344
315.535225126398;86.6621747807947
315.556841121461;86.6265763907419
315.578457116524;86.5614455457435
315.600073111587;86.4665405596718
315.621689106649;86.3496197740344
315.643305101712;86.2123413973692
315.664921096775;86.0389416845462
315.686537091838;85.8033344252268
315.708153086901;85.541222346787
315.729769081964;85.2678251148525
315.751385077027;84.9770510650733
315.77300107209;84.66986848939
315.794617067153;84.3506534961653
315.816233062216;84.0247650256638
315.837849057279;83.6959984448852
315.859465052342;83.3681591237687
315.881081047405;83.0473504801167
315.902697042468;82.7268811620244
315.924313037531;82.4041532910342
315.945929032594;82.0874099015475
315.967545027657;81.7742962390935
315.989161022719;81.4569364746757
316.010777017782;81.1286477398596
316.032393012845;80.7862385559677
316.054009007908;80.4398387182294
316.075625002971;80.1019956653711
316.097240998034;79.7789540133452
316.118856993097;79.4752409926907
316.14047298816;79.1960186052332
316.162088983223;78.9455529819182
316.183704978286;78.7323130155712
316.205320973349;78.5798418011382
316.226936968412;78.4954152445313
316.248552963475;78.4696139758772
316.270168958538;78.4978975298365
316.291784953601;78.5767456876276
316.313400948664;78.6922386572541
316.335016943726;78.8301624210956
316.356632938789;78.9840165267716
316.378248933852;79.1493196301704
316.399864928915;79.320059924444
316.421480923978;79.4912078328792
316.443096919041;79.6583500457596
316.464712914104;79.820491014203
316.486328909167;79.9847437376157
316.50794490423;80.1595010723415
316.529560899293;80.343828338408
316.551176894356;80.5269763262509
316.572792889419;80.7015233356245
316.594408884482;80.8709756458582
316.616024879545;81.0421531554757
316.637640874608;81.222754733362
316.659256869671;81.4203609674069
316.680872864733;81.6274825231384
316.702488859796;81.8393851041032
316.724104854859;82.0610759479728
316.745720849922;82.2972753244362
316.767336844985;82.5471556565365
316.788952840048;82.8090081505689
316.810568835111;83.0902311829947
316.832184830174;83.3960206179402
316.853800825237;83.7198155337739
316.8754168203;84.0615632338791
316.897032815363;84.4218320211838
316.918648810426;84.7968607986994
316.940264805489;85.1910907858301
316.961880800552;85.6149105224447
316.983496795615;86.0684036733589
317.005112790678;86.5320671937606
317.026728785741;86.9918195002927
317.048344780803;87.4530232906802
317.069960775866;87.9142308989628
317.091576770929;88.3415213333487
317.113192765992;88.7095400726846
317.134808761055;89.0244934228537
317.156424756118;89.289192303469
317.178040751181;89.4961840061883
317.199656746244;89.6339129976246
317.221272741307;89.6991729474569
317.24288873637;89.6957861026406
317.264504731433;89.6335755002133
317.286120726496;89.527070885307
317.307736721559;89.3881974562098
317.329352716622;89.2258279894096
317.350968711685;89.0490845224918
317.372584706748;88.872306432443
317.394200701811;88.713927837777
317.415816696873;88.5853421877222
317.437432691936;88.4885839078848
317.459048686999;88.4245947831391
317.480664682062;88.3960633896964
317.502280677125;88.4044668236045
317.523896672188;88.4472674417503
317.545512667251;88.5198951211371
317.567128662314;88.6141306424014
317.588744657377;88.7173165555779
317.61036065244;88.8180569499064
317.631976647503;88.9141993551059
317.653592642566;89.0051006628617
317.675208637629;89.0835960468716
317.696824632692;89.1415082011861
317.718440627755;89.1683212042399
317.740056622818;89.1647023404347
317.76167261788;89.1371511558121
317.783288612943;89.0957874725029
317.804904608006;89.0551791441017
317.826520603069;89.0285255957659
317.848136598132;89.0203341306296
317.869752593195;89.0336416451131
317.891368588258;89.069378041206
317.912984583321;89.1372784119133
317.934600578384;89.2505406129925
317.956216573447;89.410590129378
317.97783256851;89.6041175716102
317.999448563573;89.8222402714614
318.021064558636;90.062466345862
318.042680553699;90.3083156054353
318.064296548762;90.5466893128247
318.085912543825;90.7688646002614
318.107528538888;90.9717477122938
318.12914453395;91.1506169069494
318.150760529013;91.2987108635228
318.172376524076;91.418462467039
318.193992519139;91.5218476863405
318.215608514202;91.6212127460132
318.237224509265;91.7253468270071
318.258840504328;91.8568371559719
318.280456499391;92.0305039052093
318.302072494454;92.2505774661451
318.323688489517;92.5191137485696
318.34530448458;92.8335543587664
318.366920479643;93.17973657377
318.388536474706;93.568506448289
318.410152469769;94.0097817333863
318.431768464832;94.4822217330597
318.453384459895;94.9477179367519
318.475000454958;95.384990622722
318.49661645002;95.7976965759453
318.518232445083;96.1837722013166
318.539848440146;96.5405578095337
318.561464435209;96.8689528121554
318.583080430272;97.1780707507211
318.604696425335;97.4772747284107
318.626312420398;97.7755395084088
318.647928415461;98.0621857098072
318.669544410524;98.3310301895333
318.691160405587;98.5888044709646
318.71277640065;98.8528880631858
318.734392395713;99.1271045620653
318.756008390776;99.410263689885
318.777624385839;99.6924819453918
318.799240380902;99.9577852222128
318.820856375965;100.199963082657
318.842472371028;100.419036049868
318.86408836609;100.619284750447
318.885704361153;100.805600630551
318.907320356216;100.975828108118
318.928936351279;101.12425446889
318.950552346342;101.255982607376
318.972168341405;101.372195546416
318.993784336468;101.472959097496
319.015400331531;101.562336488302
319.037016326594;101.640663937877
319.058632321657;101.704994048202
319.08024831672;101.750516260284
319.101864311783;101.779254605847
319.123480306846;101.797284973574
319.145096301909;101.805677314232
319.166712296972;101.79716608641
319.188328292035;101.761588348511
319.209944287097;101.696569219317
319.23156028216;101.602479800245
319.253176277223;101.479684542724
319.274792272286;101.32921943542
319.296408267349;101.148355769908
319.318024262412;100.931428249717
319.339640257475;100.672379531327
319.361256252538;100.382385191277
319.382872247601;100.080962226489
319.404488242664;99.787213504189
319.426104237727;99.512312667726
319.44772023279;99.2540603563476
319.469336227853;99.0097432883925
319.490952222916;98.7879343970665
319.512568217979;98.6065289761416
319.534184213042;98.4723066325835
319.555800208105;98.3808753364225
319.577416203167;98.3316515156965
319.59903219823;98.3255269211357
319.620648193293;98.3592132865099
319.642264188356;98.430049846244
319.663880183419;98.5277635804142
319.685496178482;98.6460104407481
319.707112173545;98.7887376004325
319.728728168608;98.9568906739431
319.750344163671;99.1373590532655
319.771960158734;99.3239606455678
319.793576153797;99.5119800072214
319.81519214886;99.6992708057192
319.836808143923;99.8891596479788
319.858424138986;100.085645007272
319.880040134049;100.285321196474
319.901656129112;100.480873957365
319.923272124175;100.670716604139
319.944888119237;100.85712123647
319.9665041143;101.038700967965
319.988120109363;101.212367247208
320.009736104426;101.37727448811
320.031352099489;101.532329224465
320.052968094552;101.674885664747
320.074584089615;101.803557238032
320.096200084678;101.924769227502
320.117816079741;102.039728951205
320.139432074804;102.140085231943
320.161048069867;102.21601321682
320.18266406493;102.264090758958
320.204280059993;102.291391899801
320.225896055056;102.29810990232
320.247512050119;102.275792868497
320.269128045182;102.223335952052
320.290744040244;102.143121856814
320.312360035307;102.035087133263
320.33397603037;101.891546487353
320.355592025433;101.698951019999
320.377208020496;101.448973217533
320.398824015559;101.146830501699
320.420440010622;100.791470388087
320.442056005685;100.384124726369
320.463672000748;99.9419679785462
320.485287995811;99.4697835754288
320.506903990874;98.9545993240169
320.528519985937;98.3940770495632
320.550135981;97.8034558596578
320.571751976063;97.1908766860074
320.593367971126;96.5704402460728
320.614983966189;95.9723111564893
320.636599961252;95.4156404085257
320.658215956314;94.9102330540779
320.679831951377;94.4681035181452
320.70144794644;94.0855985267633
320.723063941503;93.7498526339096
320.744679936566;93.4563251252489
320.766295931629;93.2066956199464
320.787911926692;93.0019105726512
320.809527921755;92.8368613476582
320.831143916818;92.7098100656906
320.852759911881;92.6178973858015
320.874375906944;92.5385854488379
320.895991902007;92.4598227458137
320.91760789707;92.3746421850141
320.939223892133;92.2742675379056
320.960839887196;92.152371348584
320.982455882259;92.012734886725
321.004071877322;91.8617753681533
321.025687872384;91.6937588513818
321.047303867447;91.4906889336982
321.06891986251;91.2401903756983
321.090535857573;90.9431939490708
321.112151852636;90.621837745244
321.133767847699;90.2840508363698
321.155383842762;89.9238040754708
321.176999837825;89.5445646385805
321.198615832888;89.1618710571112
321.220231827951;88.7970013398468
321.241847823014;88.4522981160854
321.263463818077;88.1284579933408
321.28507981314;87.8397028683495
321.306695808203;87.6007368092534
321.328311803266;87.4144634600602
321.349927798329;87.274157096201
321.371543793391;87.1731764427677
321.393159788454;87.1040250221189
321.414775783517;87.0537099321373
321.43639177858;87.0056157436579
321.458007773643;86.9413784111762
321.479623768706;86.8505665774616
321.501239763769;86.7306277299384
321.522855758832;86.5863797653463
321.544471753895;86.4253348422265
321.566087748958;86.2397188886726
321.587703744021;86.0323853674873
321.609319739084;85.8145018754769
321.630935734147;85.6071888403981
321.65255172921;85.4200939243148
321.674167724273;85.2478544652803
321.695783719336;85.0941392192191
321.717399714398;84.9724922765807
321.739015709461;84.8824850193951
321.760631704524;84.8104440487913
321.782247699587;84.7496576204132
321.80386369465;84.6979642079414
321.825479689713;84.6454757024615
321.847095684776;84.5852174542102
321.868711679839;84.5114758688467
321.890327674902;84.4251666006583
321.911943669965;84.3241317679284
321.933559665028;84.2074845078717
321.955175660091;84.085151754699
321.976791655154;83.9705771855531
321.998407650217;83.8554856176156
322.02002364528;83.7354394644994
322.041639640343;83.6204596419676
322.063255635406;83.5205245244554
322.084871630468;83.4353075832045
322.106487625531;83.3641775107451
322.128103620594;83.3092340017132
322.149719615657;83.2716786423032
322.17133561072;83.2484151974797
322.192951605783;83.2420368694071
322.214567600846;83.2592835450999
322.236183595909;83.3046084043438
322.257799590972;83.3802150489699
322.279415586035;83.4796453630822
322.301031581098;83.5973140062928
322.322647576161;83.7273223078263
322.344263571224;83.8594029850497
322.365879566287;83.9864289761804
322.38749556135;84.0962707838006
322.409111556413;84.182084166623
322.430727551476;84.2405891682715
322.452343546538;84.2634899346306
322.473959541601;84.2446710910408
322.495575536664;84.1951332976053
322.517191531727;84.1277231020062
322.53880752679;84.0474496490306
322.560423521853;83.9544077448221
322.582039516916;83.8539245454816
322.603655511979;83.7537634886374
322.625271507042;83.6629830572895
322.646887502105;83.6010561395552
322.668503497168;83.578143227077
322.690119492231;83.589650909638
322.711735487294;83.6362921660458
322.733351482357;83.712206666862
322.75496747742;83.8231609175406
322.776583472483;83.969097697757
322.798199467545;84.1313786184743
322.819815462608;84.2860965321489
322.841431457671;84.4221126191457
322.863047452734;84.5455051963478
322.884663447797;84.6646836207316
322.90627944286;84.7691329519839
322.927895437923;84.8371800632824
322.949511432986;84.863800847064
322.971127428049;84.8553438166738
322.992743423112;84.8295702281267
323.014359418175;84.7922209013261
323.035975413238;84.7518916200738
323.057591408301;84.7205287446255
323.079207403364;84.7072818058332
323.100823398427;84.708120244393
323.12243939349;84.7210235759812
323.144055388553;84.7614065851011
323.165671383615;84.8437993682588
323.187287378678;84.965608396019
323.208903373741;85.1024541507014
323.230519368804;85.2409128998848
323.252135363867;85.3864467623447
323.27375135893;85.5538512764051
323.295367353993;85.746655753719
323.316983349056;85.9631409627813
323.338599344119;86.1975318671956
323.360215339182;86.4501578005994
323.381831334245;86.7261067123087
323.403447329308;87.023709951542
323.425063324371;87.3442365964718
323.446679319434;87.6901532409345
323.468295314497;88.072751500527
323.48991130956;88.5078203771365
323.511527304623;88.988430406672
323.533143299685;89.4947262018121
323.554759294748;90.0210123692249
323.576375289811;90.5669496617708
323.597991284874;91.1305351634409
323.619607279937;91.7171585266171
323.641223275;92.3314469815396
323.662839270063;92.9388169885721
323.684455265126;93.5183980117197
323.706071260189;94.0792159983566
323.727687255252;94.6240346192929
323.749303250315;95.1501316901925
323.770919245378;95.6622472618799
323.792535240441;96.1672126205258
323.814151235504;96.6694255087464
323.835767230567;97.1705288502822
323.85738322563;97.6715318201753
323.878999220692;98.179588871443
323.900615215755;98.7177251285991
323.922231210818;99.292582204096
323.943847205881;99.8750057972094
323.965463200944;100.426202208281
323.987079196007;100.941507834446
324.00869519107;101.429542311015
324.030311186133;101.901203667478
324.051927181196;102.351165819712
324.073543176259;102.756390917011
324.095159171322;103.097616779893
324.116775166385;103.367978339908
324.138391161448;103.561362732453
324.160007156511;103.679312156333
324.181623151574;103.725042491693
324.203239146637;103.695302622418
324.2248551417;103.587254725603
324.246471136762;103.402178597618
324.268087131825;103.144285019942
324.289703126888;102.816455867743
324.311319121951;102.417377009589
324.332935117014;101.955015460272
324.354551112077;101.458790153399
324.37616710714;100.945997018066
324.397783102203;100.413036912533
324.419399097266;99.8648007295519
324.441015092329;99.3261295347053
324.462631087392;98.8106752136116
324.484247082455;98.3221864599328
324.505863077518;97.8663919627496
324.527479072581;97.4442318181818
324.549095067644;97.0524232943275
324.570711062707;96.6929090590394
324.59232705777;96.364688308346
324.613943052832;96.0738760221681
324.635559047895;95.8304096545793
324.657175042958;95.6333162127722
324.678791038021;95.483435731653
324.700407033084;95.3840476053147
324.722023028147;95.3299825391669
324.74363902321;95.3199155559042
324.765255018273;95.3444189379509
324.786871013336;95.3943649280375
