Name;BF_ESR_01_3600s_X_gon_100dg_result

Recipe
Accumulations;5;Number of accumulations
RetryCount;0;Number of retries on error
AbortOnError;True;Abort on error
EnableQFactorMeasurement;False;Enable/Disable q-Factor measurement
Bfrom;313;B from
Bto;363;B to
SweepTime;60;Sweep time
Modulation;0.2;Modulation
ModulationFreq;100;Modulation
BHoldEnabled;False;B hold enabled
BHold;0;B hold
MicrowavePower;2;Microwave power
MarkerEnabled;False;
MarkerStartField;0;
MarkerEndField;0;
Mode;;
KineticGFact;0;
KineticTotalTransientTime;0;
KineticTimeResolution;0;
TempFrom;5;
TempUseSlope;False;
TempTo;5;
TempdT;1;
TempSetupTime;0;
GonFrom;0;
GonTo;180;
GonSteps;20;
XRayEnabled;False;
XRayTime;3;
XRayVoltage;40;
XRayCurrent;0.5;
UVEnabled;False;
UVIntensity;0;
UVTime;0;
UVLeadTime;0;
UVWavelength;0;
PowSweepFrom;1;
PowSweepTo;5;
PowSweepSteps;5;
AmpModSweepFrom;0;
AmpModSweepTo;1;
AmpModSweepSteps;10;
ExtTriggerEnabled;False;
ExtTrigLeadTime;0;
ExtTrigOnTime;5;

Meas
BField [mT];MW_Absorption []
313.023837509155;116.795065527286
313.045440251556;116.513509794747
313.067042993957;116.273309898978
313.088645736358;116.103547638251
313.110248478759;115.993957584587
313.13185122116;115.929782231338
313.15345396356;115.894073758813
313.175056705961;115.86744572794
313.196659448362;115.832119902724
313.218262190763;115.772772270717
313.239864933164;115.676649445837
313.261467675565;115.536799326273
313.283070417966;115.348269010184
313.304673160367;115.113649152993
313.326275902767;114.835013019838
313.347878645168;114.517606652558
313.369481387569;114.159936861178
313.39108412997;113.762209483983
313.412686872371;113.340952964677
313.434289614772;112.911268895577
313.455892357173;112.471866032945
313.477495099574;112.007725957455
313.499097841974;111.495291176646
313.520700584375;110.925774998102
313.542303326776;110.317171604143
313.563906069177;109.678895634494
313.585508811578;108.997172723874
313.607111553979;108.251054936825
313.62871429638;107.415676140199
313.650317038781;106.500078625954
313.671919781181;105.541312826605
313.693522523582;104.565054962188
313.715125265983;103.577507079844
313.736728008384;102.575463862291
313.758330750785;101.544330502156
313.779933493186;100.460676896578
313.801536235587;99.3470443282882
313.823138977988;98.2547653642163
313.844741720388;97.1892736897262
313.866344462789;96.1548088544832
313.88794720519;95.1441714245259
313.909549947591;94.1115498075437
313.931152689992;93.0800837744028
313.952755432393;92.0859848232257
313.974358174794;91.1217019494337
313.995960917195;90.1796591864586
314.017563659595;89.2633228820354
314.039166401996;88.3877128846808
314.060769144397;87.5649507977392
314.082371886798;86.7939696768072
314.103974629199;86.0665862452114
314.1255773716;85.3643146335546
314.147180114001;84.6631451846885
314.168782856401;83.9670303058603
314.190385598802;83.3060290780458
314.211988341203;82.7012954713921
314.233591083604;82.1498944969321
314.255193826005;81.6403313889395
314.276796568406;81.1622105962688
314.298399310807;80.6980552679458
314.320002053208;80.2186213736445
314.341604795608;79.7088268628082
314.363207538009;79.2141437209895
314.38481028041;78.7574857271285
314.406413022811;78.3157314923648
314.428015765212;77.8551386035927
314.449618507613;77.3671055723431
314.471221250014;76.8774139841757
314.492823992415;76.3985277679028
314.514426734815;75.9224020434613
314.536029477216;75.4339318262617
314.557632219617;74.9172383758449
314.579234962018;74.3905525810714
314.600837704419;73.8811543986382
314.62244044682;73.3782665039691
314.644043189221;72.8726352780668
314.665645931622;72.3987047755995
314.687248674022;71.9975808438389
314.708851416423;71.6642161297575
314.730454158824;71.3855619598743
314.752056901225;71.1737543416822
314.773659643626;71.0423693227657
314.795262386027;70.9985140073963
314.816865128428;71.0506906233271
314.838467870829;71.1884300659658
314.860070613229;71.3942634467753
314.88167335563;71.6636930005443
314.903276098031;71.9986186941967
314.924878840432;72.3965935164401
314.946481582833;72.8401760198057
314.968084325234;73.2984878499602
314.989687067635;73.75860358333
315.011289810036;74.2237130813165
315.032892552436;74.6838721730982
315.054495294837;75.1183507032005
315.076098037238;75.5225324734281
315.097700779639;75.8908254938649
315.11930352204;76.2278699228841
315.140906264441;76.5526427139964
315.162509006842;76.8661417329402
315.184111749243;77.1506556512442
315.205714491643;77.3967289801708
315.227317234044;77.6076795581559
315.248919976445;77.7866463647331
315.270522718846;77.9447744149244
315.292125461247;78.0956687887846
315.313728203648;78.2523256537502
315.335330946049;78.4188822875985
315.356933688449;78.5935227168174
315.37853643085;78.7788529870056
315.400139173251;78.9798715764886
315.421741915652;79.1935193961278
315.443344658053;79.4131404624158
315.464947400454;79.635729063754
315.486550142855;79.8614583703052
315.508152885256;80.1144520291655
315.529755627656;80.3857637831289
315.551358370057;80.667901521361
315.572961112458;80.9501966479255
315.594563854859;81.2149051775075
315.61616659726;81.4790373781042
315.637769339661;81.7666975353556
315.659372082062;82.0735880491415
315.680974824463;82.3840573174187
315.702577566863;82.6915103036618
315.724180309264;82.995238117307
315.745783051665;83.3018459814866
315.767385794066;83.6108761098531
315.788988536467;83.9131149539609
315.810591278868;84.2019549943863
315.832194021269;84.4842288376198
315.85379676367;84.7686621723212
315.87539950607;85.0691225393674
315.897002248471;85.3978265601982
315.918604990872;85.7535952751502
315.940207733273;86.1338125544787
315.961810475674;86.5379025975235
315.983413218075;86.9745888329922
316.005015960476;87.4627736294527
316.026618702877;87.9909415052559
316.048221445277;88.5185738808678
316.069824187678;89.0347214665338
316.091426930079;89.5612041684145
316.11302967248;90.1150002357748
316.134632414881;90.6811940084756
316.156235157282;91.2252306638731
316.177837899683;91.7241848070882
316.199440642084;92.1927317592189
316.221043384484;92.6548637282706
316.242646126885;93.1251175457276
316.264248869286;93.592428544749
316.285851611687;94.0422877791031
316.307454354088;94.4771755831531
316.329057096489;94.9057748217283
316.35065983889;95.3205736650992
316.372262581291;95.7209534966884
316.393865323691;96.1257719738658
316.415468066092;96.5672751573161
316.437070808493;97.0718295379515
316.458673550894;97.6098485799672
316.480276293295;98.1536127114275
316.501879035696;98.7068889915996
316.523481778097;99.2749291408306
316.545084520497;99.859912550511
316.566687262898;100.46346950123
316.588290005299;101.06764992305
316.6098927477;101.644200726469
316.631495490101;102.189806233469
316.653098232502;102.726903831672
316.674700974903;103.253225787391
316.696303717304;103.745474305179
316.717906459704;104.194125486307
316.739509202105;104.596511204914
316.761111944506;104.952857854454
316.782714686907;105.268944166359
316.804317429308;105.544419052189
316.825920171709;105.784192516512
316.84752291411;105.993786425384
316.869125656511;106.18080687293
316.890728398911;106.356959110896
316.912331141312;106.534309178983
316.933933883713;106.713228166674
316.955536626114;106.895493321686
316.977139368515;107.098640485267
316.998742110916;107.324056768443
317.020344853317;107.559657094877
317.041947595718;107.801597169587
317.063550338118;108.063507828612
317.085153080519;108.36987888539
317.10675582292;108.726393476339
317.128358565321;109.112106986128
317.149961307722;109.518882574178
317.171564050123;109.947332966606
317.193166792524;110.407734537167
317.214769534925;110.917496543304
317.236372277325;111.479466897392
317.257975019726;112.077875859991
317.279577762127;112.698966075928
317.301180504528;113.317538903647
317.322783246929;113.933271827441
317.34438598933;114.558882406573
317.365988731731;115.193813044235
317.387591474132;115.813225725637
317.409194216532;116.397347552295
317.430796958933;116.949679024239
317.452399701334;117.474573350528
317.474002443735;117.966018948512
317.495605186136;118.417792044727
317.517207928537;118.818521047601
317.538810670938;119.160936014044
317.560413413338;119.444627057954
317.582016155739;119.670300828019
317.60361889814;119.850563573296
317.625221640541;119.993920546965
317.646824382942;120.093872940949
317.668427125343;120.145881863375
317.690029867744;120.155751104759
317.711632610145;120.130075963504
317.733235352545;120.076896981684
317.754838094946;120.008367524391
317.776440837347;119.932928380762
317.798043579748;119.857196409923
317.819646322149;119.787278585931
317.84124906455;119.724742704439
317.862851806951;119.667336205974
317.884454549352;119.62540272793
317.906057291752;119.607878378663
317.927660034153;119.60177359128
317.949262776554;119.589263567757
317.970865518955;119.555476705271
317.992468261356;119.498720695853
318.014071003757;119.434768547015
318.035673746158;119.356227750338
318.057276488559;119.258363291547
318.078879230959;119.148047729624
318.10048197336;119.036709943926
318.122084715761;118.928166833192
318.143687458162;118.822558996256
318.165290200563;118.732584806967
318.186892942964;118.68115208681
318.208495685365;118.6717681
318.230098427765;118.715745894138
318.251701170166;118.826758117698
318.273303912567;119.000903734224
318.294906654968;119.232978972376
318.316509397369;119.52502511433
318.33811213977;119.872722492738
318.359714882171;120.278131040439
318.381317624572;120.752488764795
318.402920366972;121.300415290138
318.424523109373;121.91627700882
318.446125851774;122.569306042894
318.467728594175;123.223339178271
318.489331336576;123.876745214644
318.510934078977;124.527640240604
318.532536821378;125.162208350783
318.554139563779;125.7509260075
318.575742306179;126.269976593069
318.59734504858;126.715818819807
318.618947790981;127.09490878401
318.640550533382;127.390450941862
318.662153275783;127.58666468316
318.683756018184;127.686855758594
318.705358760585;127.695020001879
318.726961502986;127.614518267441
318.748564245386;127.452422305131
318.770166987787;127.213086743729
318.791769730188;126.893440076821
318.813372472589;126.503296256309
318.83497521499;126.064799401664
318.856577957391;125.603928000843
318.878180699792;125.133737023408
318.899783442193;124.658650932891
318.921386184593;124.174755025593
318.942988926994;123.671845080332
318.964591669395;123.153700766355
318.986194411796;122.643067639773
319.007797154197;122.158890822408
319.029399896598;121.70314095101
319.051002638999;121.296150291818
319.0726053814;120.934747835033
319.0942081238;120.607129953133
319.115810866201;120.311096078553
319.137413608602;120.048395166765
319.159016351003;119.814000256854
319.180619093404;119.604812710582
319.202221835805;119.423249537235
319.223824578206;119.272057438775
319.245427320607;119.153025127361
319.267030063007;119.066460024537
319.288632805408;119.014421234869
319.310235547809;119.004923408228
319.33183829021;119.045643223507
319.353441032611;119.145023784643
319.375043775012;119.303076631635
319.396646517413;119.52472624557
319.418249259813;119.820400976222
319.439852002214;120.192273949423
319.461454744615;120.618760125062
319.483057487016;121.086605055415
319.504660229417;121.60315318012
319.526262971818;122.178477968071
319.547865714219;122.804657101137
319.56946845662;123.444546237918
319.59107119902;124.060420563927
319.612673941421;124.651583039774
319.634276683822;125.236591188064
319.655879426223;125.833492856344
319.677482168624;126.443043430686
319.699084911025;127.057263343435
319.720687653426;127.672426557046
319.742290395827;128.284762004978
319.763893138227;128.895039698181
319.785495880628;129.533385062641
319.807098623029;130.20413485214
319.82870136543;130.893132574086
319.850304107831;131.574260423797
319.871906850232;132.237860280748
319.893509592633;132.882598900337
319.915112335034;133.506693500057
319.936715077434;134.108712810985
319.958317819835;134.68950330791
319.979920562236;135.243130036725
320.001523304637;135.756949362457
320.023126047038;136.236064454034
320.044728789439;136.694540571702
320.06633153184;137.134647741274
320.087934274241;137.563840062561
320.109537016641;137.958078089699
320.131139759042;138.31289994138
320.152742501443;138.638580364634
320.174345243844;138.947310921835
320.195947986245;139.243276317147
320.217550728646;139.525094908155
320.239153471047;139.783942698195
320.260756213448;140.006516003358
320.282358955848;140.169973162573
320.303961698249;140.284814490022
320.32556444065;140.370920183953
320.347167183051;140.418655259495
320.368769925452;140.411076048917
320.390372667853;140.339832976171
320.411975410254;140.195246814603
320.433578152654;139.967368057299
320.455180895055;139.672123107539
320.476783637456;139.322313040439
320.498386379857;138.914680405897
320.519989122258;138.431197838743
320.541591864659;137.849839653836
320.56319460706;137.1921431552
320.584797349461;136.503729308874
320.606400091861;135.816073124176
320.628002834262;135.136775645844
320.649605576663;134.477273034422
320.671208319064;133.85858514822
320.692811061465;133.292509009055
320.714413803866;132.803415754543
320.736016546267;132.413256981133
320.757619288668;132.123332409684
320.779222031068;131.923512817747
320.800824773469;131.797641429338
320.82242751587;131.735762244941
320.844030258271;131.724636881177
320.865633000672;131.752788535503
320.887235743073;131.804618979046
320.908838485474;131.860542676532
320.930441227875;131.909245364155
320.952043970275;131.9485178146
320.973646712676;131.97429338024
320.995249455077;131.980532936936
321.016852197478;131.961027848185
321.038454939879;131.919811378576
321.06005768228;131.86157792419
321.081660424681;131.792455439696
321.103263167082;131.714737527364
321.124865909482;131.628900952029
321.146468651883;131.539138085962
321.168071394284;131.445832708161
321.189674136685;131.345558905655
321.211276879086;131.232263500068
321.232879621487;131.097649490988
321.254482363888;130.936504222607
321.276085106289;130.748083567935
321.297687848689;130.539064185315
321.31929059109;130.32584362716
321.340893333491;130.12276306453
321.362496075892;129.934905869697
321.384098818293;129.769492173744
321.405701560694;129.641367451914
321.427304303095;129.567052094678
321.448907045496;129.556154846346
321.470509787896;129.609401326495
321.492112530297;129.725664783543
321.513715272698;129.903174742024
321.535318015099;130.143920472149
321.5569207575;130.447619566782
321.578523499901;130.797108876928
321.600126242302;131.175437566705
321.621728984702;131.577607871867
321.643331727103;131.988638102467
321.664934469504;132.391707551471
321.686537211905;132.784189149448
321.708139954306;133.16785336943
321.729742696707;133.520411014192
321.751345439108;133.826122088109
321.772948181509;134.089165842171
321.794550923909;134.324750854567
321.81615366631;134.54247714317
321.837756408711;134.735777578145
321.859359151112;134.907881984503
321.880961893513;135.069070713461
321.902564635914;135.229420968486
321.924167378315;135.397810352689
321.945770120716;135.576693164185
321.967372863116;135.772406765249
321.988975605517;135.997286437474
322.010578347918;136.263938977054
322.032181090319;136.58010983231
322.05378383272;136.948978708179
322.075386575121;137.373864109871
322.096989317522;137.850987038403
322.118592059923;138.36554001253
322.140194802323;138.89678129643
322.161797544724;139.421735606893
322.183400287125;139.925016839466
322.205003029526;140.394211842439
322.226605771927;140.817249099995
322.248208514328;141.183400526586
322.269811256729;141.479397077691
322.29141399913;141.69617973666
322.31301674153;141.835273631704
322.334619483931;141.904516408701
322.356222226332;141.907613873457
322.377824968733;141.848609976693
322.399427711134;141.742263708797
322.421030453535;141.609125980055
322.442633195936;141.459935885321
322.464235938337;141.300933489828
322.485838680737;141.136237602079
322.507441423138;140.972220661652
322.529044165539;140.820778301055
322.55064690794;140.690519094189
322.572249650341;140.583468121505
322.593852392742;140.495547004128
322.615455135143;140.428734313781
322.637057877544;140.384518618934
322.658660619944;140.364332824631
322.680263362345;140.368422253966
322.701866104746;140.394952832581
322.723468847147;140.440196511318
322.745071589548;140.50375574852
322.766674331949;140.586995784174
322.78827707435;140.686325292105
322.80987981675;140.794297096347
322.831482559151;140.904779498738
322.853085301552;141.011842616794
322.874688043953;141.111288150448
322.896290786354;141.199784556165
322.917893528755;141.275860673164
322.939496271156;141.334867490086
322.961099013557;141.374034104502
322.982701755957;141.39459087456
323.004304498358;141.397113323142
323.025907240759;141.388896746547
323.04750998316;141.382989902632
323.069112725561;141.38508067047
323.090715467962;141.399392439738
323.112318210363;141.425718949367
323.133920952764;141.468264038525
323.155523695164;141.538381475969
323.177126437565;141.641515369704
323.198729179966;141.783573374585
323.220331922367;141.962884699423
323.241934664768;142.174181564422
323.263537407169;142.413928047947
323.28514014957;142.675736427302
323.306742891971;142.955235082252
323.328345634371;143.245675449772
323.349948376772;143.525102596866
323.371551119173;143.766233130989
323.393153861574;143.959290535414
323.414756603975;144.092219362583
323.436359346376;144.147605640588
323.457962088777;144.120305809118
323.479564831177;144.019063796762
323.501167573578;143.852615151373
323.522770315979;143.612065786934
323.54437305838;143.303970286416
323.565975800781;142.952770903246
323.587578543182;142.570362778094
323.609181285583;142.157809016211
323.630784027984;141.717704707973
323.652386770384;141.255715272501
323.673989512785;140.795451658574
323.695592255186;140.379555414291
323.717194997587;140.029728986448
323.738797739988;139.745326586734
323.760400482389;139.517373894221
323.78200322479;139.339830614646
323.803605967191;139.231408800129
323.825208709591;139.181490301074
323.846811451992;139.171159566767
323.868414194393;139.187658603674
323.890016936794;139.230458511088
323.911619679195;139.294896485588
323.933222421596;139.362607834118
323.954825163997;139.419500871788
323.976427906398;139.451362150855
323.998030648798;139.442671765737
324.019633391199;139.37520743893
324.0412361336;139.242397189258
324.062838876001;139.0486559832
324.084441618402;138.79532339264
324.106044360803;138.472160242471
324.127647103204;138.07843302928
324.149249845605;137.636384535908
324.170852588005;137.160494869285
324.192455330406;136.629594765238
324.214058072807;136.028755559756
324.235660815208;135.354684368071
324.257263557609;134.649254148226
324.27886630001;133.925598492216
324.300469042411;133.173112593901
324.322071784812;132.379641033706
324.343674527212;131.539737982767
324.365277269613;130.639629463104
324.386880012014;129.677374224801
324.408482754415;128.671381002953
324.430085496816;127.612514715953
324.451688239217;126.501557473791
324.473290981618;125.372844797611
324.494893724018;124.251692426181
324.516496466419;123.140989471399
324.53809920882;122.032881865816
324.559701951221;120.904119103111
324.581304693622;119.747636405895
324.602907436023;118.583164931276
324.624510178424;117.456348239809
324.646112920825;116.398150073493
324.667715663225;115.383527543449
324.689318405626;114.404551831097
324.710921148027;113.461423570666
324.732523890428;112.545839087262
324.754126632829;111.655350103624
