Name;BF_ESR_01_90s_Z_gon_120dg_result

Recipe
Accumulations;5;Number of accumulations
RetryCount;0;Number of retries on error
AbortOnError;True;Abort on error
EnableQFactorMeasurement;False;Enable/Disable q-Factor measurement
Bfrom;313;B from
Bto;363;B to
SweepTime;60;Sweep time
Modulation;0.2;Modulation
ModulationFreq;100;Modulation
BHoldEnabled;False;B hold enabled
BHold;0;B hold
MicrowavePower;2;Microwave power
MarkerEnabled;False;
MarkerStartField;0;
MarkerEndField;0;
Mode;;
KineticGFact;0;
KineticTotalTransientTime;0;
KineticTimeResolution;0;
TempFrom;5;
TempUseSlope;False;
TempTo;5;
TempdT;1;
TempSetupTime;0;
GonFrom;0;
GonTo;180;
GonSteps;20;
XRayEnabled;False;
XRayTime;3;
XRayVoltage;40;
XRayCurrent;0.5;
UVEnabled;False;
UVIntensity;0;
UVTime;0;
UVLeadTime;0;
UVWavelength;0;
PowSweepFrom;1;
PowSweepTo;5;
PowSweepSteps;5;
AmpModSweepFrom;0;
AmpModSweepTo;1;
AmpModSweepSteps;10;
ExtTriggerEnabled;False;
ExtTrigLeadTime;0;
ExtTrigOnTime;5;

Meas
BField [mT];MW_Absorption []
313.025626678467;145.529997209101
313.047240651955;145.553182870903
313.068854625443;145.593393407193
313.090468598931;145.634972125124
313.112082572419;145.664030759519
313.133696545907;145.675953072115
313.155310519395;145.670016212713
313.176924492883;145.636572320307
313.198538466371;145.565654668719
313.220152439859;145.452112818207
313.241766413347;145.287709571945
313.263380386835;145.083496269531
313.284994360323;144.86359156207
313.30660833381;144.639519852871
313.328222307298;144.4194446948
313.349836280786;144.22334884548
313.371450254274;144.070166399574
313.393064227762;143.97202195048
313.41467820125;143.940918687142
313.436292174738;143.983489695454
313.457906148226;144.099825427238
313.479520121714;144.266308547034
313.501134095202;144.444078066063
313.52274806869;144.625618521988
313.544362042178;144.804034607675
313.565976015666;144.969795073819
313.587589989154;145.105677562445
313.609203962642;145.195310165092
313.63081793613;145.218991723896
313.652431909618;145.15174059115
313.674045883106;144.999728212756
313.695659856594;144.764648821564
313.717273830082;144.448529414966
313.73888780357;144.055504826154
313.760501777058;143.59388335766
313.782115750546;143.065602000332
313.803729724034;142.476668479974
313.825343697522;141.846540447445
313.84695767101;141.21006777477
313.868571644498;140.594884128286
313.890185617986;139.999917987603
313.911799591474;139.415630136969
313.933413564962;138.865170425732
313.95502753845;138.39180128788
313.976641511938;137.994250762095
313.998255485426;137.648675534619
314.019869458914;137.33613359369
314.041483432402;137.04815568978
314.06309740589;136.789179494095
314.084711379378;136.563550530705
314.106325352866;136.365952093693
314.127939326354;136.181949116684
314.149553299842;136.005218869609
314.17116727333;135.835414563167
314.192781246818;135.674063644574
314.214395220305;135.521378682188
314.236009193793;135.377552171273
314.257623167281;135.246617872112
314.279237140769;135.137208843677
314.300851114257;135.062377327053
314.322465087745;135.023798068602
314.344079061233;135.014989187464
314.365693034721;135.042978750391
314.387307008209;135.106232447967
314.408920981697;135.191800299092
314.430534955185;135.295409513891
314.452148928673;135.41658908703
314.473762902161;135.54543800464
314.495376875649;135.665445345061
314.516990849137;135.762337892245
314.538604822625;135.837270567259
314.560218796113;135.896696944306
314.581832769601;135.943197827168
314.603446743089;135.966404777598
314.625060716577;135.956386139841
314.646674690065;135.914913008986
314.668288663553;135.85256332913
314.689902637041;135.778847639796
314.711516610529;135.693244510052
314.733130584017;135.59261326186
314.754744557505;135.47901810115
314.776358530993;135.358470909104
314.797972504481;135.236573092758
314.819586477969;135.10855718193
314.841200451457;134.963469549584
314.862814424945;134.797595491009
314.884428398433;134.604956096822
314.906042371921;134.386756632178
314.927656345409;134.147299371116
314.949270318897;133.882526811886
314.970884292385;133.597489051551
314.992498265873;133.306056230476
315.014112239361;133.007832453255
315.035726212849;132.690562744085
315.057340186337;132.345400027825
315.078954159824;131.978163178553
315.100568133312;131.611968042637
315.1221821068;131.267974176165
315.143796080288;130.966169255885
315.165410053776;130.725210840251
315.187024027264;130.554010466788
315.208638000752;130.447981525791
315.23025197424;130.400062371658
315.251865947728;130.397460014916
315.273479921216;130.429044043497
315.295093894704;130.479042589878
315.316707868192;130.530494505957
315.33832184168;130.56320869299
315.359935815168;130.569135296681
315.381549788656;130.528605899699
315.403163762144;130.421619576071
315.424777735632;130.24518779964
315.44639170912;130.007121302406
315.468005682608;129.722772975639
315.489619656096;129.402862781067
315.511233629584;129.055586631083
315.532847603072;128.698525602907
315.55446157656;128.351356077919
315.576075550048;128.019490981018
315.597689523536;127.709181119589
315.619303497024;127.426360227899
315.640917470512;127.173775720454
315.662531444;126.945345694526
315.684145417488;126.745254624165
315.705759390976;126.581855847288
315.727373364464;126.445124947447
315.748987337952;126.318110185515
315.77060131144;126.203007458017
315.792215284928;126.117406638274
315.813829258416;126.05884185536
315.835443231904;126.020220797113
315.857057205392;126.001245961708
315.87867117888;126.000878763907
315.900285152368;126.018801451276
315.921899125856;126.062607867067
315.943513099344;126.136224500369
315.965127072832;126.230204983621
315.98674104632;126.334832027551
316.008355019807;126.450489089512
316.029968993295;126.576322858873
316.051582966783;126.707917645407
316.073196940271;126.846031813534
316.094810913759;126.983807989412
316.116424887247;127.106202403097
316.138038860735;127.209253434791
316.159652834223;127.301870415076
316.181266807711;127.386540344454
316.202880781199;127.452406772276
316.224494754687;127.481331717162
316.246108728175;127.462631416333
316.267722701663;127.393883818647
316.289336675151;127.271861807223
316.310950648639;127.09341320525
316.332564622127;126.851364075091
316.354178595615;126.541950670614
316.375792569103;126.180257904664
316.397406542591;125.780167243525
316.419020516079;125.355986479481
316.440634489567;124.929148172945
316.462248463055;124.508246190518
316.483862436543;124.091303765777
316.505476410031;123.692099576612
316.527090383519;123.336945047934
316.548704357007;123.029308936039
316.570318330495;122.746832292765
316.591932303983;122.472657090187
316.613546277471;122.218501432578
316.635160250959;121.99987181501
316.656774224447;121.814686833673
316.678388197935;121.649895655467
316.700002171423;121.495072313487
316.721616144911;121.34408641943
316.743230118399;121.193022117643
316.764844091887;121.03940012206
316.786458065375;120.886399275047
316.808072038863;120.734845157807
316.829686012351;120.575082600506
316.851299985839;120.395519387643
316.872913959327;120.192948896057
316.894527932815;119.967498243516
316.916141906302;119.732116993572
316.93775587979;119.507746820809
316.959369853278;119.289605264128
316.980983826766;119.077301700264
317.002597800254;118.873996997652
317.024211773742;118.69330078844
317.04582574723;118.533603117597
317.067439720718;118.399177444798
317.089053694206;118.301159263021
317.110667667694;118.269771252752
317.132281641182;118.301617910525
317.15389561467;118.386905476278
317.175509588158;118.512802275675
317.197123561646;118.658800246948
317.218737535134;118.808199001234
317.240351508622;118.954049808894
317.26196548211;119.090132121531
317.283579455598;119.203207216131
317.305193429086;119.281296865493
317.326807402574;119.315030950928
317.348421376062;119.299459487527
317.37003534955;119.22838501731
317.391649323038;119.098884274131
317.413263296526;118.913015686113
317.434877270014;118.681040056603
317.456491243502;118.420411494304
317.47810521699;118.144503463612
317.499719190478;117.861840134518
317.521333163966;117.587845249621
317.542947137454;117.333437070619
317.564561110942;117.104064748167
317.58617508443;116.910109410186
317.607789057918;116.76302912246
317.629403031406;116.66591814783
317.651017004894;116.617305694814
317.672630978382;116.617426463056
317.69424495187;116.662979602012
317.715858925358;116.742167667313
317.737472898846;116.850070156655
317.759086872334;116.983072134022
317.780700845822;117.130788690602
317.80231481931;117.284671888894
317.823928792797;117.437140847852
317.845542766285;117.577262715125
317.867156739773;117.693906978539
317.888770713261;117.777898308314
317.910384686749;117.818865347354
317.931998660237;117.812800619439
317.953612633725;117.765225028317
317.975226607213;117.677980373766
317.996840580701;117.549704677901
318.018454554189;117.38278675495
318.040068527677;117.184139766809
318.061682501165;116.972494389059
318.083296474653;116.761981958236
318.104910448141;116.556371617916
318.126524421629;116.356325452286
318.148138395117;116.158529983871
318.169752368605;115.957611255645
318.191366342093;115.750498978403
318.212980315581;115.551622371542
318.234594289069;115.376862690591
318.256208262557;115.219366466231
318.277822236045;115.066274572988
318.299436209533;114.915776031184
318.321050183021;114.769065868405
318.342664156509;114.624704048812
318.364278129997;114.485854071714
318.385892103485;114.352364365456
318.407506076973;114.209415518818
318.429120050461;114.057173646015
318.450734023949;113.89632103629
318.472347997437;113.723618923824
318.493961970925;113.538606320646
318.515575944413;113.340886507899
318.537189917901;113.130794743869
318.558803891389;112.914489569278
318.580417864877;112.702249654541
318.602031838365;112.498514590857
318.623645811853;112.30100122034
318.645259785341;112.101056262877
318.666873758829;111.896183747255
318.688487732317;111.685747654171
318.710101705805;111.474470355485
318.731715679293;111.261596160315
318.75332965278;111.038659263537
318.774943626268;110.795206356893
318.796557599756;110.534076363984
318.818171573244;110.252409291759
318.839785546732;109.932223109881
318.86139952022;109.574579769209
318.883013493708;109.199142394261
318.904627467196;108.795289898086
318.926241440684;108.371676034297
318.947855414172;107.948184883477
318.96946938766;107.528736759762
318.991083361148;107.110280743014
319.012697334636;106.685575771878
319.034311308124;106.264494480912
319.055925281612;105.884630042446
319.0775392551;105.566969747823
319.099153228588;105.306252348074
319.120767202076;105.098133350994
319.142381175564;104.932575035911
319.163995149052;104.80321944923
319.18560912254;104.708932919679
319.207223096028;104.640583898101
319.228837069516;104.593453565647
319.250451043004;104.556643859969
319.272065016492;104.511607588926
319.29367898998;104.452162517396
319.315292963468;104.374997192241
319.336906936956;104.282226468651
319.358520910444;104.178818604515
319.380134883932;104.065278617215
319.40174885742;103.937297760626
319.423362830908;103.798243077158
319.444976804396;103.659252023933
319.466590777884;103.52584884993
319.488204751372;103.397438825834
319.50981872486;103.27581333935
319.531432698348;103.165625720173
319.553046671836;103.074871011217
319.574660645324;103.000002993689
319.596274618812;102.937826957694
319.617888592299;102.891278611733
319.639502565788;102.851604101344
319.661116539275;102.804202680163
319.682730512763;102.741329338791
319.704344486251;102.661108253117
319.725958459739;102.564754440164
319.747572433227;102.458286409155
319.769186406715;102.344512594757
319.790800380203;102.217449920453
319.812414353691;102.076110847814
319.834028327179;101.92333776353
319.855642300667;101.763835999614
319.877256274155;101.607195069753
319.898870247643;101.460177728769
319.920484221131;101.31896066793
319.942098194619;101.174993223828
319.963712168107;101.029945768458
319.985326141595;100.897492667992
320.006940115083;100.775395654533
320.028554088571;100.649102058603
320.050168062059;100.504650220937
320.071782035547;100.33658397366
320.093396009035;100.147909097089
320.115009982523;99.9428157701111
320.136623956011;99.7194822373468
320.158237929499;99.4722974765574
320.179851902987;99.2036118505483
320.201465876475;98.9214065542352
320.223079849963;98.6389665115706
320.244693823451;98.3701608003542
320.266307796939;98.1163714780845
320.287921770427;97.8798850933055
320.309535743915;97.6747599423506
320.331149717403;97.5203401521627
320.352763690891;97.4176751579074
320.374377664379;97.3570989116616
320.395991637867;97.3356157078374
320.417605611355;97.3540075299899
320.439219584843;97.4031628050712
320.460833558331;97.4620761367764
320.482447531819;97.5134761071164
320.504061505307;97.5498913364849
320.525675478794;97.5631561900363
320.547289452282;97.5388953054844
320.56890342577;97.4593055255417
320.590517399258;97.3224716761293
320.612131372746;97.1362597168266
320.633745346234;96.8993262118792
320.655359319722;96.6094601160914
320.67697329321;96.2643139389528
320.698587266698;95.864328578339
320.720201240186;95.4163749736624
320.741815213674;94.9335687476914
320.763429187162;94.4247816020311
320.78504316065;93.8842746337269
320.806657134138;93.3126278903486
320.828271107626;92.7217953250783
320.849885081114;92.1207628723303
320.871499054602;91.5211792052219
320.89311302809;90.9339176602328
320.914727001578;90.3531957913607
320.936340975066;89.7637123364057
320.957954948554;89.1620655162747
320.979568922042;88.5842952054499
321.00118289553;88.0672890057805
321.022796869018;87.6134121058579
321.044410842506;87.2209780439134
321.066024815994;86.8829031085924
321.087638789482;86.5981395486387
321.10925276297;86.3758422421811
321.130866736458;86.2177983163884
321.152480709946;86.1168112351235
321.174094683434;86.0645975382098
321.195708656922;86.050014791848
321.21732263041;86.0545124807141
321.238936603898;86.0561914822236
321.260550577386;86.037494154892
321.282164550874;85.9830108654618
321.303778524362;85.8774113103602
321.32539249785;85.7116444079876
321.347006471338;85.4863690490181
321.368620444826;85.2097233632632
321.390234418314;84.8868242868106
321.411848391802;84.5190775300033
321.43346236529;84.1099157248954
321.455076338777;83.6714668494861
321.476690312265;83.2313774624225
321.498304285753;82.8124533939699
321.519918259241;82.4182199710959
321.541532232729;82.0501762977068
321.563146206217;81.7127651604826
321.584760179705;81.4191844769325
321.606374153193;81.1960689997317
321.627988126681;81.0236664455828
321.649602100169;80.8751419568319
321.671216073657;80.7310144863859
321.692830047145;80.5764873048662
321.714444020633;80.4094628169938
321.736057994121;80.2318650996974
321.757671967609;80.0429649805373
321.779285941097;79.8405426509254
321.800899914585;79.6233675753922
321.822513888073;79.3950454603189
321.844127861561;79.1690052968517
321.865741835049;78.957519648291
321.887355808537;78.7728483260646
321.908969782025;78.6095018759001
321.930583755513;78.4568956858464
321.952197729001;78.3104318091624
321.973811702489;78.1713793883847
321.995425675977;78.0315419853799
322.017039649465;77.8834290975004
322.038653622953;77.7276843316451
322.060267596441;77.552524512208
322.081881569929;77.3324599235306
322.103495543417;77.0704417991787
322.125109516905;76.8050528518899
322.146723490393;76.5370814055106
322.168337463881;76.2659265087198
322.189951437369;76.0002012138429
322.211565410857;75.7427162302983
322.233179384345;75.4916750426647
322.254793357833;75.2461883511497
322.276407331321;75.0292932964807
322.298021304809;74.8629476439594
322.319635278297;74.7296105918977
322.341249251785;74.6144574422525
322.362863225272;74.5028091964159
322.38447719876;74.3823500653281
322.406091172248;74.2419953234673
322.427705145736;74.0611538631147
322.449319119224;73.8138449504284
322.470933092712;73.5104738065665
322.4925470662;73.1633348386451
322.514161039688;72.7657935799097
322.535775013176;72.3152947103497
322.557388986664;71.8112045295618
322.579002960152;71.2797693840367
322.60061693364;70.7604329309473
322.622230907128;70.259019947325
322.643844880616;69.7645952054844
322.665458854104;69.2745836505873
322.687072827592;68.8035611453141
322.70868680108;68.3666703329306
322.730300774568;67.9701624505773
322.751914748056;67.5987378920921
322.773528721544;67.2406622990488
322.795142695032;66.9018041556845
322.81675666852;66.5823460437136
322.838370642008;66.284799099578
322.859984615496;65.9957180551056
322.881598588984;65.7131659217149
322.903212562472;65.4515589479145
322.92482653596;65.212039460943
322.946440509448;64.9785561966232
322.968054482936;64.7587464334336
322.989668456424;64.5701455623522
323.011282429912;64.4042742249599
323.0328964034;64.2425275382841
323.054510376888;64.0720938967665
323.076124350376;63.8907318305666
323.097738323864;63.6882507082162
323.119352297352;63.4614020565016
323.14096627084;63.2179044708862
323.162580244328;62.9626611046244
323.184194217816;62.6954113924945
323.205808191304;62.4174894706626
323.227422164792;62.1227769472945
323.24903613828;61.806601843497
323.270650111768;61.4787973036057
323.292264085255;61.1467265570118
323.313878058743;60.8198464346712
323.335492032231;60.5097672610703
323.357106005719;60.2256609529277
323.378719979207;59.959375388113
323.400333952695;59.7059432581579
323.421947926183;59.4700039006656
323.443561899671;59.2534494071669
323.465175873159;59.0586093760535
323.486789846647;58.8885659792761
323.508403820135;58.7413292054646
323.530017793623;58.6119800181587
323.551631767111;58.4953283328049
323.573245740599;58.3827597438666
323.594859714087;58.2646976244631
323.616473687575;58.1346604856092
323.638087661063;57.9878733614342
323.659701634551;57.8133976862014
323.681315608039;57.6072109755455
323.702929581527;57.3718732745787
323.724543555015;57.1039677710149
323.746157528503;56.8039062451287
323.767771501991;56.4866936847512
323.789385475479;56.1715292708015
323.810999448967;55.8673113494681
323.832613422455;55.5803546546305
323.854227395943;55.3194581126562
323.875841369431;55.0960909261009
323.897455342919;54.9194074812639
323.919069316407;54.7848805515636
323.940683289895;54.6883823672438
323.962297263383;54.6324278579872
323.983911236871;54.6175489094195
324.005525210359;54.6372466884384
324.027139183847;54.6864936096735
324.048753157335;54.7600257537949
324.070367130823;54.8489057054682
324.091981104311;54.9458990112937
324.113595077799;55.0423420706235
324.135209051287;55.1257744756637
324.156823024775;55.1912165332313
324.178436998263;55.2337313458592
324.20005097175;55.2452174232708
324.221664945238;55.2236429253765
324.243278918726;55.1726118584201
324.264892892214;55.0927387871782
324.286506865702;54.9828435593072
324.30812083919;54.8481330640705
324.329734812678;54.6922180474466
324.351348786166;54.5169129226805
324.372962759654;54.3222936935309
324.394576733142;54.1098999655668
324.41619070663;53.8926616203308
324.437804680118;53.6839258561024
324.459418653606;53.4792975449491
324.481032627094;53.2621648299243
324.502646600582;53.0190093956033
324.52426057407;52.7464735453272
324.545874547558;52.4494174740419
324.567488521046;52.1386200907689
324.589102494534;51.8181041190425
324.610716468022;51.4809822209172
324.63233044151;51.1313438579905
324.653944414998;50.7815558942591
324.675558388486;50.4257654022781
324.697172361974;50.0552222034521
324.718786335462;49.6817343124758
324.74040030895;49.3208633068451
324.762014282438;48.9636463375776
