Name;BF_ESR_01_90s_Z_gon_40dg_result

Recipe
Accumulations;5;Number of accumulations
RetryCount;0;Number of retries on error
AbortOnError;True;Abort on error
EnableQFactorMeasurement;False;Enable/Disable q-Factor measurement
Bfrom;313;B from
Bto;363;B to
SweepTime;60;Sweep time
Modulation;0.2;Modulation
ModulationFreq;100;Modulation
BHoldEnabled;False;B hold enabled
BHold;0;B hold
MicrowavePower;2;Microwave power
MarkerEnabled;False;
MarkerStartField;0;
MarkerEndField;0;
Mode;;
KineticGFact;0;
KineticTotalTransientTime;0;
KineticTimeResolution;0;
TempFrom;5;
TempUseSlope;False;
TempTo;5;
TempdT;1;
TempSetupTime;0;
GonFrom;0;
GonTo;180;
GonSteps;20;
XRayEnabled;False;
XRayTime;3;
XRayVoltage;40;
XRayCurrent;0.5;
UVEnabled;False;
UVIntensity;0;
UVTime;0;
UVLeadTime;0;
UVWavelength;0;
PowSweepFrom;1;
PowSweepTo;5;
PowSweepSteps;5;
AmpModSweepFrom;0;
AmpModSweepTo;1;
AmpModSweepSteps;10;
ExtTriggerEnabled;False;
ExtTrigLeadTime;0;
ExtTrigOnTime;5;

Meas
BField [mT];MW_Absorption []
313.032359313965;74.2273237183101
313.053974800985;74.2652482188599
313.075590288005;74.349011645332
313.097205775024;74.4728733290601
313.118821262044;74.640177499112
313.140436749064;74.8514841130065
313.162052236084;75.0944622459748
313.183667723104;75.3582663003448
313.205283210124;75.6238011320805
313.226898697144;75.8779608294739
313.248514184164;76.1250922273186
313.270129671183;76.3593235322446
313.291745158203;76.5714842571095
313.313360645223;76.7555979031504
313.334976132243;76.9113036721304
313.356591619263;77.0383090115662
313.378207106283;77.1426173730017
313.399822593303;77.227560223691
313.421438080323;77.2868885672947
313.443053567342;77.3242517528361
313.464669054362;77.3431524397606
313.486284541382;77.3376700356083
313.507900028402;77.3034678190049
313.529515515422;77.2422485039686
313.551131002442;77.1573627243363
313.572746489462;77.0468256282412
313.594361976482;76.9167908847337
313.615977463501;76.7739521246982
313.637592950521;76.6133888590758
313.659208437541;76.4229024543528
313.680823924561;76.1945435482876
313.702439411581;75.9481514685441
313.724054898601;75.7064842149855
313.745670385621;75.4675275849667
313.767285872641;75.2171977835812
313.78890135966;74.9447327319252
313.81051684668;74.6536665499878
313.8321323337;74.3538942452176
313.85374782072;74.0466344564559
313.87536330774;73.7323401332057
313.89697879476;73.4285209780064
313.91859428178;73.1375019248558
313.9402097688;72.8338423405696
313.961825255819;72.4989028942056
313.983440742839;72.1665360845892
314.005056229859;71.8792299392667
314.026671716879;71.6297823021618
314.048287203899;71.3962494481559
314.069902690919;71.1678845571823
314.091518177939;70.9564358764486
314.113133664959;70.7793520066905
314.134749151978;70.634502537054
314.156364638998;70.51043045663
314.177980126018;70.3992860634443
314.199595613038;70.2946239661764
314.221211100058;70.1892650477443
314.242826587078;70.08052885486
314.264442074098;69.9706453820355
314.286057561118;69.8626052564739
314.307673048137;69.7565403806922
314.329288535157;69.6505350937563
314.350904022177;69.5532606525512
314.372519509197;69.4756970608035
314.394134996217;69.418832653836
314.415750483237;69.3878335875161
314.437365970257;69.3898048375633
314.458981457277;69.4176034962248
314.480596944296;69.4611772816408
314.502212431316;69.5163048278836
314.523827918336;69.5788694446078
314.545443405356;69.6407016564587
314.567058892376;69.6957671404958
314.588674379396;69.7315149865831
314.610289866416;69.7506043207791
314.631905353436;69.7526933604381
314.653520840455;69.7296414659171
314.675136327475;69.6816908985806
314.696751814495;69.6121029941413
314.718367301515;69.5266800584127
314.739982788535;69.4274237203728
314.761598275555;69.3078097883303
314.783213762575;69.1668713745474
314.804829249595;69.0115403874131
314.826444736614;68.8403735946852
314.848060223634;68.6398398695762
314.869675710654;68.4033140426924
314.891291197674;68.1641861489138
314.912906684694;67.9402802573129
314.934522171714;67.7324336912062
314.956137658734;67.5440842739796
314.977753145754;67.386517814442
314.999368632773;67.2692626196938
315.020984119793;67.1992661106411
315.042599606813;67.1838813867459
315.064215093833;67.21864125575
315.085830580853;67.2717426046566
315.107446067873;67.3252264997717
315.129061554893;67.3915368051159
315.150677041913;67.4763738966034
315.172292528932;67.5627401362619
315.193908015952;67.6317631914123
315.215523502972;67.6784329054465
315.237138989992;67.7028600627203
315.258754477012;67.712427378643
315.280369964032;67.7181077385952
315.301985451052;67.7276281270182
315.323600938072;67.7434055337279
315.345216425091;67.7676196646834
315.366831912111;67.8016169419455
315.388447399131;67.8418194330206
315.410062886151;67.8843713487162
315.431678373171;67.9233405530699
315.453293860191;67.9487815905099
315.474909347211;67.9511355469528
315.496524834231;67.9181460350154
315.51814032125;67.8409542194344
315.53975580827;67.7153241924393
315.56137129529;67.5369892172984
315.58298678231;67.3024515286154
315.60460226933;67.0209307752837
315.62621775635;66.7090678219412
315.64783324337;66.3769911072065
315.669448730389;66.037494156035
315.691064217409;65.7003121665967
315.712679704429;65.3819315049279
315.734295191449;65.0919808038854
315.755910678469;64.8360436525276
315.777526165489;64.6169174635076
315.799141652509;64.4390426789742
315.820757139529;64.3151176453872
315.842372626549;64.2346653238503
315.863988113568;64.1799195273437
315.885603600588;64.1451812266508
315.907219087608;64.1195945423941
315.928834574628;64.0832674376167
315.950450061648;64.0087328641041
315.972065548668;63.879514679464
315.993681035688;63.7388277843675
316.015296522708;63.5906736887439
316.036912009727;63.412460370373
316.058527496747;63.1956227442378
316.080142983767;62.9517013083423
316.101758470787;62.6914343461937
316.123373957807;62.4287283404244
316.144989444827;62.17380167399
316.166604931847;61.9434487125845
316.188220418866;61.7625232826034
316.209835905886;61.6446260312955
316.231451392906;61.592390124096
316.253066879926;61.6050093647781
316.274682366946;61.6748064197921
316.296297853966;61.7914563751114
316.317913340986;61.9507441100601
316.339528828006;62.1542493458727
316.361144315026;62.3970919642107
316.382759802045;62.6680101749319
316.404375289065;62.9539096152168
316.425990776085;63.2291236494795
316.447606263105;63.4893648804765
316.469221750125;63.7348348314892
316.490837237145;63.9623643310472
316.512452724165;64.1676440941139
316.534068211184;64.3432149249985
316.555683698204;64.4845464974046
316.577299185224;64.597736909834
316.598914672244;64.6928766335949
316.620530159264;64.775928435154
316.642145646284;64.8423693356138
316.663761133304;64.8902916085797
316.685376620324;64.9232618733698
316.706992107343;64.9472779816533
316.728607594363;64.9698584835685
316.750223081383;64.9958750802013
316.771838568403;65.023254478705
316.793454055423;65.0433579363508
316.815069542443;65.0489149695048
316.836685029463;65.0391770169596
316.858300516483;65.0123832823682
316.879916003503;64.9626179115135
316.901531490522;64.8805367497
316.923146977542;64.7560830352719
316.944762464562;64.5918655519787
316.966377951582;64.4044639066999
316.987993438602;64.195578163324
317.009608925622;63.9603052692697
317.031224412642;63.7043849806388
317.052839899661;63.432847168098
317.074455386681;63.1488838243
317.096070873701;62.8728468924041
317.117686360721;62.606315005129
317.139301847741;62.3470715256155
317.160917334761;62.0973964945313
317.182532821781;61.8592416425038
317.204148308801;61.6301291234342
317.22576379582;61.4158691259648
317.24737928284;61.236755639319
317.26899476986;61.0991935022239
317.29061025688;60.9918008329064
317.3122257439;60.8940466680606
317.33384123092;60.7950871720398
317.35545671794;60.7090812585242
317.37707220496;60.6409352163507
317.398687691979;60.5836151442169
317.420303178999;60.5362937234148
317.441918666019;60.501701937982
317.463534153039;60.4713266489708
317.485149640059;60.4357277317497
317.506765127079;60.404370375412
317.528380614099;60.3901977460726
317.549996101119;60.3859807487207
317.571611588138;60.3788772221877
317.593227075158;60.3773960591085
317.614842562178;60.3897758044491
317.636458049198;60.4065981199273
317.658073536218;60.4155455178237
317.679689023238;60.4107739708258
317.701304510258;60.3926383941986
317.722919997278;60.3595432650194
317.744535484297;60.3094320462522
317.766150971317;60.234665003275
317.787766458337;60.129717451708
317.809381945357;59.9936807313166
317.830997432377;59.830044782908
317.852612919397;59.6506007875452
317.874228406417;59.4570156331528
317.895843893437;59.2443531179991
317.917459380456;59.0189072557274
317.939074867476;58.7968356601325
317.960690354496;58.5836595600059
317.982305841516;58.3751188721167
318.003921328536;58.1754715849006
318.025536815556;57.9869928110671
318.047152302576;57.8048435522423
318.068767789596;57.6202097389099
318.090383276615;57.4283360746218
318.111998763635;57.2269144743907
318.133614250655;57.0117519299011
318.155229737675;56.7810279789171
318.176845224695;56.5353741058258
318.198460711715;56.2715794668067
318.220076198735;55.99485896772
318.241691685755;55.7183155836666
318.263307172774;55.438328256828
318.284922659794;55.1517392939515
318.306538146814;54.8690100845691
318.328153633834;54.6018302611113
318.349769120854;54.3467849217989
318.371384607874;54.0989865666233
318.393000094894;53.8655096660043
318.414615581914;53.6535059837906
318.436231068933;53.4612506595675
318.457846555953;53.2866986750634
318.479462042973;53.1359682070686
318.501077529993;53.0147997802805
318.522693017013;52.9184547432498
318.544308504033;52.8490667514865
318.565923991053;52.8054624303128
318.587539478073;52.7749259421801
318.609154965092;52.7467024993028
318.630770452112;52.7387678646546
318.652385939132;52.7598248441004
318.674001426152;52.799792706927
318.695616913172;52.8485901404553
318.717232400192;52.908037549678
318.738847887212;52.9787664361448
318.760463374232;53.0603001735283
318.782078861251;53.1469789985594
318.803694348271;53.2392885517105
318.825309835291;53.3395661697642
318.846925322311;53.4473984245883
318.868540809331;53.5632479580323
318.890156296351;53.6918840263238
318.911771783371;53.8342052986983
318.933387270391;53.9789065031631
318.95500275741;54.1232784439376
318.97661824443;54.2710443042278
318.99823373145;54.4295950350009
319.01984921847;54.6025056411301
319.04146470549;54.7873526669017
319.06308019251;54.9745760005619
319.08469567953;55.1510822777256
319.10631116655;55.3180446975413
319.127926653569;55.4770861648601
319.149542140589;55.6140974367146
319.171157627609;55.7136192132121
319.192773114629;55.7743812443809
319.214388601649;55.7993185198233
319.236004088669;55.7893870032304
319.257619575689;55.7376020892983
319.279235062709;55.6310960947604
319.300850549728;55.4627260442273
319.322466036748;55.2388052666722
319.344081523768;54.9614116683458
319.365697010788;54.6459438504993
319.387312497808;54.2911635146936
319.408927984828;53.9118738584811
319.430543471848;53.5463507579765
319.452158958868;53.2053618452768
319.473774445887;52.8804599071764
319.495389932907;52.570988932285
319.517005419927;52.2876556822109
319.538620906947;52.0367892349488
319.560236393967;51.8136711362256
319.581851880987;51.6223408718272
319.603467368007;51.4621952058005
319.625082855027;51.3335457392877
319.646698342046;51.2369188496824
319.668313829066;51.1692800702602
319.689929316086;51.1210399705276
319.711544803106;51.0919356405964
319.733160290126;51.0836784704432
319.754775777146;51.0907594379038
319.776391264166;51.1078732516099
319.798006751186;51.1350195426276
319.819622238205;51.1743045560407
319.841237725225;51.2238569406579
319.862853212245;51.2855936554099
319.884468699265;51.3716974157871
319.906084186285;51.4722299776494
319.927699673305;51.5816769689912
319.949315160325;51.7145388612006
319.970930647345;51.8793669289496
319.992546134364;52.0603506767009
320.014161621384;52.2417776660578
320.035777108404;52.421291424462
320.057392595424;52.5980765330793
320.079008082444;52.7654494615529
320.100623569464;52.9095284214999
320.122239056484;53.0183200163883
320.143854543503;53.0964973088852
320.165470030523;53.14781917997
320.187085517543;53.1709892164114
320.208701004563;53.1672179164763
320.230316491583;53.1438557497297
320.251931978603;53.1096994808291
320.273547465623;53.0745765524274
320.295162952643;53.0460851795183
320.316778439663;53.0299223205515
320.338393926682;53.0282761094198
320.360009413702;53.0413937301757
320.381624900722;53.0748244364776
320.403240387742;53.1325243356924
320.424855874762;53.208202891517
320.446471361782;53.2913374438304
320.468086848802;53.3756637704501
320.489702335822;53.4567050332275
320.511317822841;53.5249631376814
320.532933309861;53.5709869336463
320.554548796881;53.5906083407992
320.576164283901;53.5830989928635
320.597779770921;53.5471185517684
320.619395257941;53.4777725686876
320.641010744961;53.3719060008029
320.66262623198;53.232614581681
320.684241719;53.0668867457717
320.70585720602;52.8823769552364
320.72747269304;52.6910098274477
320.74908818006;52.5058358697218
320.77070366708;52.3268115936955
320.7923191541;52.1488658859868
320.81393464112;51.9674394610543
320.83555012814;51.7881325992834
320.857165615159;51.62217207394
320.878781102179;51.4721206754261
320.900396589199;51.3374914586468
320.922012076219;51.2219207030541
320.943627563239;51.1230950861634
320.965243050259;51.0312930075099
320.986858537279;50.9325267561976
321.008474024298;50.8160450146469
321.030089511318;50.6837834027642
321.051704998338;50.5421577918121
321.073320485358;50.3819147818286
321.094935972378;50.1967944748438
321.116551459398;49.9876333370596
321.138166946418;49.7470674070498
321.159782433438;49.467997711501
321.181397920457;49.1449532125712
321.203013407477;48.7833535809427
321.224628894497;48.3980980502172
321.246244381517;47.9998528586518
321.267859868537;47.598070741794
321.289475355557;47.2001860811048
321.311090842577;46.8119083535498
321.332706329597;46.4423049001551
321.354321816616;46.0998269626892
321.375937303636;45.8021403146615
321.397552790656;45.5628557106312
321.419168277676;45.368487193996
321.440783764696;45.2118050699986
321.462399251716;45.1039807459581
321.484014738736;45.0507928514293
321.505630225756;45.042200594734
321.527245712775;45.0658664302836
321.548861199795;45.1156161542911
321.570476686815;45.1943942272121
321.592092173835;45.3103306625448
321.613707660855;45.4648780489505
321.635323147875;45.6528463633813
321.656938634895;45.8746800924624
321.678554121915;46.1369743624023
321.700169608934;46.4443754511767
321.721785095954;46.7999772041262
321.743400582974;47.2018963481596
321.765016069994;47.6409175676287
321.786631557014;48.1016626399448
321.808247044034;48.5692839527674
321.829862531054;49.0367184980948
321.851478018074;49.5041339595277
321.873093505093;49.9500002116381
321.894708992113;50.3308954880067
321.916324479133;50.6377645813481
321.937939966153;50.889301727013
321.959555453173;51.0889868160334
321.981170940193;51.2088196526718
322.002786427213;51.2290854284538
322.024401914233;51.1642480276702
322.046017401252;51.0323968224522
322.067632888272;50.8429819313964
322.089248375292;50.5974886822229
322.110863862312;50.2929332176144
322.132479349332;49.9327790499397
322.154094836352;49.5370346908046
322.175710323372;49.1300158981254
322.197325810392;48.7209401385351
322.218941297411;48.3104146295442
322.240556784431;47.9054042760759
322.262172271451;47.5210329429363
322.283787758471;47.1743456203319
322.305403245491;46.8717359815482
322.327018732511;46.6125675239137
322.348634219531;46.3927485473375
322.370249706551;46.2047462268226
322.39186519357;46.0428132588947
322.41348068059;45.9140562059858
322.43509616761;45.8240390446614
322.45671165463;45.7614440708988
322.47832714165;45.717308042082
322.49994262867;45.6872717906586
322.52155811569;45.6720972431547
322.54317360271;45.672799338983
322.564789089729;45.6857176093715
322.586404576749;45.7125611553321
322.608020063769;45.7595657809608
322.629635550789;45.8227145636713
322.651251037809;45.8909112958175
322.672866524829;45.9535753965187
322.694482011849;46.0073888382032
322.716097498869;46.0479125055659
322.737712985888;46.0704416547411
322.759328472908;46.0704447233565
322.780943959928;46.0433663906387
322.802559446948;45.9841335728621
322.824174933968;45.8904987445854
322.845790420988;45.7710591036602
322.867405908008;45.6347170766352
322.889021395028;45.488402816558
322.910636882047;45.3368072488331
322.932252369067;45.182817796589
322.953867856087;45.02654593213
322.975483343107;44.8755399706551
322.997098830127;44.7545791088703
323.018714317147;44.6855350032502
323.040329804167;44.6671573797727
323.061945291187;44.6962013767283
323.083560778206;44.7775293243894
323.105176265226;44.9147753584219
323.126791752246;45.0947334617728
323.148407239266;45.3026941090548
323.170022726286;45.5290320539604
323.191638213306;45.7723874224932
323.213253700326;46.0180694864867
323.234869187346;46.2277736676506
323.256484674365;46.3934275896337
323.278100161385;46.5271293354768
323.299715648405;46.6275176074273
323.321331135425;46.6929017660567
323.342946622445;46.7215295565845
323.364562109465;46.7063931637327
323.386177596485;46.6425776907981
323.407793083505;46.5337016059814
323.429408570524;46.3969251040011
323.451024057544;46.2498050639481
323.472639544564;46.098231878623
323.494255031584;45.9498175148446
323.515870518604;45.8174148501081
323.537486005624;45.7019869594256
323.559101492644;45.5978634157582
323.580716979664;45.5077309316128
323.602332466683;45.4286629170753
323.623947953703;45.3567257258309
323.645563440723;45.2848973910121
323.667178927743;45.2071561263183
323.688794414763;45.1045134681471
323.710409901783;44.9587277617957
323.732025388803;44.7862395818075
323.753640875823;44.5985566911814
323.775256362842;44.3932451972563
323.796871849862;44.1646439938073
323.818487336882;43.9172988607914
323.840102823902;43.6561833919481
323.861718310922;43.3829681025547
323.883333797942;43.1097730433138
323.904949284962;42.8600087575288
323.926564771982;42.6461175952365
323.948180259001;42.4811336066066
323.969795746021;42.3649997653152
323.991411233041;42.2929644464494
324.013026720061;42.2698447605805
324.034642207081;42.3022226266455
324.056257694101;42.3694418284636
324.077873181121;42.4584576732994
324.099488668141;42.5593873708004
324.12110415516;42.6679926010648
324.14271964218;42.7735857388083
324.1643351292;42.8607906984299
324.18595061622;42.9237113551882
324.20756610324;42.9670759348293
324.22918159026;42.9823360704934
324.25079707728;42.9364402957142
324.2724125643;42.8287962782907
324.294028051319;42.6644035373835
324.315643538339;42.4349858159144
324.337259025359;42.1470172479561
324.358874512379;41.8196353563612
324.380489999399;41.4653566268301
324.402105486419;41.085586209816
324.423720973439;40.6733806832886
324.445336460459;40.2296604281346
324.466951947478;39.7730288773747
324.488567434498;39.3023043366799
324.510182921518;38.8246592582333
324.531798408538;38.3489153089392
324.553413895558;37.882039074024
324.575029382578;37.4305753190001
324.596644869598;37.0050025128114
324.618260356618;36.6304787635562
324.639875843637;36.3141954984597
324.661491330657;36.0557811684867
324.683106817677;35.8480165301083
324.704722304697;35.672659207552
324.726337791717;35.5150808412326
324.747953278737;35.3725530933477
324.769568765757;35.2413430475
324.791184252776;35.1124399553373
