Name;BF_ESR_01_7202s_X_gon_0dg_result

Recipe
Accumulations;5;Number of accumulations
RetryCount;0;Number of retries on error
AbortOnError;True;Abort on error
EnableQFactorMeasurement;False;Enable/Disable q-Factor measurement
Bfrom;313;B from
Bto;363;B to
SweepTime;60;Sweep time
Modulation;0.2;Modulation
ModulationFreq;100;Modulation
BHoldEnabled;False;B hold enabled
BHold;0;B hold
MicrowavePower;2;Microwave power
MarkerEnabled;False;
MarkerStartField;0;
MarkerEndField;0;
Mode;;
KineticGFact;0;
KineticTotalTransientTime;0;
KineticTimeResolution;0;
TempFrom;5;
TempUseSlope;False;
TempTo;5;
TempdT;1;
TempSetupTime;0;
GonFrom;0;
GonTo;180;
GonSteps;20;
XRayEnabled;False;
XRayTime;3;
XRayVoltage;40;
XRayCurrent;0.5;
UVEnabled;False;
UVIntensity;0;
UVTime;0;
UVLeadTime;0;
UVWavelength;0;
PowSweepFrom;1;
PowSweepTo;5;
PowSweepSteps;5;
AmpModSweepFrom;0;
AmpModSweepTo;1;
AmpModSweepSteps;10;
ExtTriggerEnabled;False;
ExtTrigLeadTime;0;
ExtTrigOnTime;5;

Meas
BField [mT];MW_Absorption []
313.028005523682;127.065204029386
313.049613313312;127.093712067275
313.071221102942;127.111293263304
313.092828892573;127.114399156627
313.114436682203;127.10305692034
313.136044471833;127.065803439528
313.157652261463;126.998164863545
313.179260051094;126.911361527821
313.200867840724;126.812651655792
313.222475630354;126.698466749948
313.244083419985;126.574146291167
313.265691209615;126.442583328185
313.287298999245;126.302596301793
313.308906788876;126.151701149046
313.330514578506;125.987340485635
313.352122368136;125.809499608427
313.373730157766;125.617790412807
313.395337947397;125.398934743883
313.416945737027;125.148086403518
313.438553526657;124.875385688727
313.460161316288;124.58523717915
313.481769105918;124.283654390693
313.503376895548;123.973445934303
313.524984685178;123.665804557968
313.546592474809;123.38729829982
313.568200264439;123.134368213325
313.589808054069;122.898168720032
313.6114158437;122.687581163253
313.63302363333;122.526689865097
313.65463142296;122.432241035635
313.676239212591;122.39677751248
313.697847002221;122.424034792819
313.719454791851;122.517984658099
313.741062581481;122.675031822821
313.762670371112;122.888956883196
313.784278160742;123.153227823751
313.805885950372;123.451827790263
313.827493740003;123.764564484104
313.849101529633;124.071000205655
313.870709319263;124.354996314694
313.892317108894;124.611835181893
313.913924898524;124.828712889492
313.935532688154;124.98126029364
313.957140477784;125.049805943908
313.978748267415;125.03196900889
314.000356057045;124.956457645494
314.021963846675;124.85626613667
314.043571636306;124.738790592241
314.065179425936;124.602901395594
314.086787215566;124.454726025894
314.108395005196;124.303467680394
314.130002794827;124.161496352428
314.151610584457;124.035985380048
314.173218374087;123.922835461432
314.194826163718;123.818242704168
314.216433953348;123.72482917267
314.238041742978;123.636588540256
314.259649532609;123.555866018265
314.281257322239;123.489372632827
314.302865111869;123.445051675891
314.324472901499;123.425833456691
314.34608069113;123.419503525921
314.36768848076;123.427126385498
314.38929627039;123.446788949507
314.410904060021;123.47678549457
314.432511849651;123.518558155577
314.454119639281;123.570163505969
314.475727428911;123.625493249806
314.497335218542;123.677909399146
314.518943008172;123.720097877802
314.540550797802;123.753977734832
314.562158587433;123.774694724234
314.583766377063;123.776665036785
314.605374166693;123.755612459747
314.626981956324;123.713486371736
314.648589745954;123.642771534774
314.670197535584;123.530867830299
314.691805325214;123.37318214821
314.713413114845;123.183525347214
314.735020904475;122.969665416545
314.756628694105;122.730856042056
314.778236483736;122.472419639256
314.799844273366;122.199673930228
314.821452062996;121.916400228169
314.843059852627;121.641219113091
314.864667642257;121.400161519042
314.886275431887;121.200796175749
314.907883221517;121.045623017912
314.929491011148;120.953465568692
314.951098800778;120.925977812531
314.972706590408;120.947785746615
314.994314380039;121.008251817334
315.015922169669;121.099246997298
315.037529959299;121.21249603856
315.059137748929;121.339741282763
315.08074553856;121.46784133468
315.10235332819;121.588112460266
315.12396111782;121.699221781528
315.145568907451;121.804051531332
315.167176697081;121.909336843359
315.188784486711;122.013214219976
315.210392276342;122.103854780813
315.232000065972;122.180311458005
315.253607855602;122.252630769346
315.275215645232;122.327541146765
315.296823434863;122.399988937397
315.318431224493;122.4637927429
315.340039014123;122.515881999909
315.361646803754;122.548214941672
315.383254593384;122.540350430245
315.404862383014;122.467408201419
315.426470172644;122.330581947908
315.448077962275;122.141605474654
315.469685751905;121.914652387701
315.491293541535;121.667336190083
315.512901331166;121.394672622022
315.534509120796;121.091299932961
315.556116910426;120.765812182926
315.577724700057;120.416152546769
315.599332489687;120.034029665482
315.620940279317;119.645017169008
315.642548068947;119.275856364909
315.664155858578;118.93002154695
315.685763648208;118.603655932874
315.707371437838;118.296595323256
315.728979227469;118.008177069012
315.750587017099;117.739979992665
315.772194806729;117.504413185276
315.79380259636;117.310444154628
315.81541038599;117.152856401694
315.83701817562;117.02538840309
315.85862596525;116.932545512302
315.880233754881;116.865321976231
315.901841544511;116.822146802896
315.923449334141;116.803499422689
315.945057123772;116.797602945826
315.966664913402;116.797546502317
315.988272703032;116.804260329708
316.009880492662;116.82246492243
316.031488282293;116.851912692072
316.053096071923;116.882032226106
316.074703861553;116.90542780538
316.096311651184;116.920661044339
316.117919440814;116.93328741183
316.139527230444;116.950778713825
316.161135020075;116.975431603611
316.182742809705;117.013933404838
316.204350599335;117.070035042877
316.225958388965;117.139430651345
316.247566178596;117.223171673582
316.269173968226;117.327646802324
316.290781757856;117.458371887
316.312389547487;117.60767019674
316.333997337117;117.774680430366
316.355605126747;117.967205246525
316.377212916378;118.181811854903
316.398820706008;118.405581905408
316.420428495638;118.629892739949
316.442036285268;118.847201329754
316.463644074899;119.052692252608
316.485251864529;119.242916114746
316.506859654159;119.410978686196
316.52846744379;119.542339949425
316.55007523342;119.631126790269
316.57168302305;119.686503211737
316.59329081268;119.719945281938
316.614898602311;119.734854143685
316.636506391941;119.731811285684
316.658114181571;119.721456851798
316.679721971202;119.716656566422
316.701329760832;119.721044853008
316.722937550462;119.720696532688
316.744545340093;119.722537998261
316.766153129723;119.745325686758
316.787760919353;119.789028021307
316.809368708983;119.843083425579
316.830976498614;119.888186903243
316.852584288244;119.916494605321
316.874192077874;119.933229449723
316.895799867505;119.938256673056
316.917407657135;119.916396731352
316.939015446765;119.854647785959
316.960623236396;119.756188853916
316.982231026026;119.625432439244
317.003838815656;119.462938016111
317.025446605286;119.264559109155
317.047054394917;119.019612681296
317.068662184547;118.740660448127
317.090269974177;118.445027215974
317.111877763808;118.136383621347
317.133485553438;117.808106205196
317.155093343068;117.446943009897
317.176701132698;117.055794443844
317.198308922329;116.654793511054
317.219916711959;116.268864957267
317.241524501589;115.909128841099
317.26313229122;115.577332737912
317.28474008085;115.27380927248
317.30634787048;114.99978142214
317.327955660111;114.762254200572
317.349563449741;114.568221163171
317.371171239371;114.414880126707
317.392779029001;114.296116810636
317.414386818632;114.203491462465
317.435994608262;114.125057870452
317.457602397892;114.050885018183
317.479210187523;113.977544901595
317.500817977153;113.895473669647
317.522425766783;113.799030695875
317.544033556414;113.690383703159
317.565641346044;113.568232919902
317.587249135674;113.426817304911
317.608856925304;113.254820500887
317.630464714935;113.043135593477
317.652072504565;112.79083661587
317.673680294195;112.515321654975
317.695288083826;112.218961456102
317.716895873456;111.902217011259
317.738503663086;111.57801053809
317.760111452716;111.2458929896
317.781719242347;110.901924831716
317.803327031977;110.543994249505
317.824934821607;110.179682249991
317.846542611238;109.821266222667
317.868150400868;109.474347771983
317.889758190498;109.162501215643
317.911365980129;108.903799435599
317.932973769759;108.695841721344
317.954581559389;108.533588024118
317.976189349019;108.417807317698
317.99779713865;108.353180927721
318.01940492828;108.332577220171
318.04101271791;108.344747912138
318.062620507541;108.381105892429
318.084228297171;108.433654676005
318.105836086801;108.496660471911
318.127443876431;108.567959504259
318.149051666062;108.645826909125
318.170659455692;108.726392225225
318.192267245322;108.804525391732
318.213875034953;108.878555625481
318.235482824583;108.943026947629
318.257090614213;108.995659557102
318.278698403844;109.032819996856
318.300306193474;109.047891579206
318.321913983104;109.034887320385
318.343521772734;108.987763702933
318.365129562365;108.901036187343
318.386737351995;108.772327781824
318.408345141625;108.59815543275
318.429952931256;108.382844502293
318.451560720886;108.140242974825
318.473168510516;107.876588882864
318.494776300147;107.593551755309
318.516384089777;107.302131118816
318.537991879407;107.019198336688
318.559599669037;106.766816733956
318.581207458668;106.558764050408
318.602815248298;106.404424718947
318.624423037928;106.297913258813
318.646030827559;106.238951060859
318.667638617189;106.234501821703
318.689246406819;106.286154764235
318.710854196449;106.392592888657
318.73246198608;106.543615039666
318.75406977571;106.728833016426
318.77567756534;106.92949690459
318.797285354971;107.115757786185
318.818893144601;107.269956668417
318.840500934231;107.388889297288
318.862108723862;107.470263277959
318.883716513492;107.509400434126
318.905324303122;107.487997931789
318.926932092752;107.401931413284
318.948539882383;107.26570779536
318.970147672013;107.097002472811
318.991755461643;106.899891098298
319.013363251274;106.685111972107
319.034971040904;106.465030735337
319.056578830534;106.239970612442
319.078186620165;106.011290090773
319.099794409795;105.780310268633
319.121402199425;105.534579950369
319.143009989055;105.281314515367
319.164617778686;105.054451887228
319.186225568316;104.845373459001
319.207833357946;104.636958160989
319.229441147577;104.434585188854
319.251048937207;104.247749793183
319.272656726837;104.069466087822
319.294264516467;103.888205208392
319.315872306098;103.699523457048
319.337480095728;103.508706553921
319.359087885358;103.336256223357
319.380695674989;103.188644256267
319.402303464619;103.048945904122
319.423911254249;102.904482149035
319.44551904388;102.76940032896
319.46712683351;102.654639119732
319.48873462314;102.554010387357
319.51034241277;102.457295211333
319.531950202401;102.362744905936
319.553557992031;102.270839364404
319.575165781661;102.184239585551
319.596773571292;102.101614131354
319.618381360922;102.021688014619
319.639989150552;101.948708907211
319.661596940183;101.886507370848
319.683204729813;101.8337191341
319.704812519443;101.790408885873
319.726420309073;101.761986488355
319.748028098704;101.757442677239
319.769635888334;101.780893025844
319.791243677964;101.834597805635
319.812851467595;101.923403695245
319.834459257225;102.048248819938
319.856067046855;102.210719906025
319.877674836485;102.411281174124
319.899282626116;102.638193396363
319.920890415746;102.871363408135
319.942498205376;103.098071940247
319.964105995007;103.314117582204
319.985713784637;103.525368469408
320.007321574267;103.724817881181
320.028929363898;103.892073277131
320.050537153528;104.010676304115
320.072144943158;104.089600779618
320.093752732788;104.147709668151
320.115360522419;104.188140744141
320.136968312049;104.212601824983
320.158576101679;104.227844881203
320.18018389131;104.248494266805
320.20179168094;104.289667362102
320.22339947057;104.36049685226
320.245007260201;104.462365025693
320.266615049831;104.600368866053
320.288222839461;104.765263160696
320.309830629091;104.939074772011
320.331438418722;105.113803348419
320.353046208352;105.282487586168
320.374653997982;105.434648933011
320.396261787613;105.554434307531
320.417869577243;105.62718464119
320.439477366873;105.640445686187
320.461085156503;105.583502701399
320.482692946134;105.454477987068
320.504300735764;105.259475259636
320.525908525394;105.004333343182
320.547516315025;104.693790028196
320.569124104655;104.343403375556
320.590731894285;103.960706011887
320.612339683916;103.560558225973
320.633947473546;103.167772830442
320.655555263176;102.801719971017
320.677163052806;102.489462917431
320.698770842437;102.251701734598
320.720378632067;102.082448738801
320.741986421697;101.97380456545
320.763594211328;101.923374693236
320.785202000958;101.927054104053
320.806809790588;101.966277979524
320.828417580218;102.021686151814
320.850025369849;102.088369543095
320.871633159479;102.161754144596
320.893240949109;102.229792033276
320.91484873874;102.275443472555
320.93645652837;102.273570922751
320.958064318;102.203265831778
320.979672107631;102.062267283025
321.001279897261;101.867387504186
321.022887686891;101.632259244117
321.044495476521;101.343195925786
321.066103266152;100.978553669082
321.087711055782;100.528942356679
321.109318845412;99.9984069762434
321.130926635043;99.4085125490381
321.152534424673;98.776256576366
321.174142214303;98.0980126075421
321.195750003933;97.3626182035939
321.217357793564;96.5645785210501
321.238965583194;95.7063909905733
321.260573372824;94.8126907711882
321.282181162455;93.9117304360632
321.303788952085;93.03284846938
321.325396741715;92.2025516591402
321.347004531346;91.4474011214662
321.368612320976;90.7945797152243
321.390220110606;90.2568495654765
321.411827900236;89.8295006881399
321.433435689867;89.5101951211917
321.455043479497;89.2994972697413
321.476651269127;89.1960544202158
321.498259058758;89.2000640568745
321.519866848388;89.3001277948052
321.541474638018;89.470487997229
321.563082427649;89.6964961912225
321.584690217279;89.9683306724205
321.606298006909;90.2770553650918
321.627905796539;90.6179075237521
321.64951358617;90.9850335163095
321.6711213758;91.364872374937
321.69272916543;91.745492182991
321.714336955061;92.125162798333
321.735944744691;92.5033956959466
321.757552534321;92.8750777031731
321.779160323951;93.2312377353958
321.800768113582;93.5656062631724
321.822375903212;93.8684813694951
321.843983692842;94.1358604695876
321.865591482473;94.3696194089685
321.887199272103;94.5718441104981
321.908807061733;94.7497663945937
321.930414851364;94.9067337050828
321.952022640994;95.0300222212146
321.973630430624;95.1159876285124
321.995238220254;95.1802553331201
322.016846009885;95.2393629266795
322.038453799515;95.3006884162009
322.060061589145;95.3556668640736
322.081669378776;95.4149691251147
322.103277168406;95.4954186169613
322.124884958036;95.6091328062351
322.146492747667;95.7586703437399
322.168100537297;95.9477369970555
322.189708326927;96.1808419277873
322.211316116557;96.4607371463981
322.232923906188;96.7929867078177
322.254531695818;97.1735087663259
322.276139485448;97.5858682174166
322.297747275079;98.0187018350907
322.319355064709;98.4728875694419
322.340962854339;98.9426691110256
322.362570643969;99.4016160428337
322.3841784336;99.8258773409505
322.40578622323;100.203830353607
322.42739401286;100.539999104529
322.449001802491;100.834095847311
322.470609592121;101.080030150389
322.492217381751;101.281407764499
322.513825171382;101.439499865614
322.535432961012;101.553433262395
322.557040750642;101.633794560115
322.578648540272;101.68916786533
322.600256329903;101.718863613253
322.621864119533;101.733024765742
322.643471909163;101.739538097306
322.665079698794;101.732453769523
322.686687488424;101.709834074722
322.708295278054;101.672272125379
322.729903067685;101.607483643552
322.751510857315;101.493523157638
322.773118646945;101.348740065729
322.794726436575;101.197097210538
322.816334226206;101.033809681766
322.837942015836;100.855240795586
322.859549805466;100.671390468037
322.881157595097;100.489063902293
322.902765384727;100.308903651661
322.924373174357;100.139996528087
322.945980963987;99.992750640479
322.967588753618;99.8707748275229
322.989196543248;99.7780149031552
323.010804332878;99.7161338935285
323.032412122509;99.6819076771796
323.054019912139;99.6810705635529
323.075627701769;99.7104012659346
323.0972354914;99.7572815321484
323.11884328103;99.805288894498
323.14045107066;99.8373639254427
323.16205886029;99.8462542101815
323.183666649921;99.8349093710761
323.205274439551;99.801665931502
323.226882229181;99.7460724204319
323.248490018812;99.6660179980763
323.270097808442;99.565661299585
323.291705598072;99.4423548118458
323.313313387703;99.2886964248654
323.334921177333;99.1165644147063
323.356528966963;98.943006034978
323.378136756593;98.7845352081461
323.399744546224;98.6384769675703
323.421352335854;98.4892568591147
323.442960125484;98.3335132062889
323.464567915115;98.187973944488
323.486175704745;98.0674551352532
323.507783494375;97.972334987998
323.529391284005;97.9012460326485
323.550999073636;97.853737833124
323.572606863266;97.8338355018063
323.594214652896;97.8474482919892
323.615822442527;97.9001845566326
323.637430232157;97.9903927823339
323.659038021787;98.1100734898173
323.680645811418;98.2556397760171
323.702253601048;98.4223469661799
323.723861390678;98.5986579675393
323.745469180308;98.7712255061947
323.767076969939;98.9280743569821
323.788684759569;99.063655820813
323.810292549199;99.167568249315
323.83190033883;99.2297155572367
323.85350812846;99.2438840778223
323.87511591809;99.2019545543692
323.89672370772;99.0844316642012
323.918331497351;98.8751957415129
323.939939286981;98.5825076321008
323.961547076611;98.2147929601093
323.983154866242;97.7655701850836
324.004762655872;97.2268287632098
324.026370445502;96.6173465827214
324.047978235133;95.966958156509
324.069586024763;95.2827781119463
324.091193814393;94.5687829166836
324.112801604023;93.8412788279781
324.134409393654;93.1142409045433
324.156017183284;92.3826893952384
324.177624972914;91.6530148824208
324.199232762545;90.9480164030907
324.220840552175;90.2908293997399
324.242448341805;89.6732559853646
324.264056131436;89.076495989044
324.285663921066;88.5040542354668
324.307271710696;87.9557946754289
324.328879500326;87.4238326438525
324.350487289957;86.9145181128464
324.372095079587;86.4496336892158
324.393702869217;86.0450389452176
324.415310658848;85.6736441144034
324.436918448478;85.3189388879268
324.458526238108;84.9867236570799
324.480134027738;84.6737228209584
324.501741817369;84.3624847142841
324.523349606999;84.0298563668238
324.544957396629;83.6699354921661
324.56656518626;83.2820729390339
324.58817297589;82.8586779264621
324.60978076552;82.4127826524672
324.631388555151;81.9654040436327
324.652996344781;81.5095468683859
324.674604134411;81.0232973219505
324.696211924041;80.4936125288532
324.717819713672;79.9097031068068
324.739427503302;79.2514790830614
324.761035292932;78.520367117932
