Name;BF_ESR_01_14400s_Z_gon_140dg_result

Recipe
Accumulations;5;Number of accumulations
RetryCount;0;Number of retries on error
AbortOnError;True;Abort on error
EnableQFactorMeasurement;False;Enable/Disable q-Factor measurement
Bfrom;313;B from
Bto;363;B to
SweepTime;60;Sweep time
Modulation;0.2;Modulation
ModulationFreq;100;Modulation
BHoldEnabled;False;B hold enabled
BHold;0;B hold
MicrowavePower;2;Microwave power
MarkerEnabled;False;
MarkerStartField;0;
MarkerEndField;0;
Mode;;
KineticGFact;0;
KineticTotalTransientTime;0;
KineticTimeResolution;0;
TempFrom;5;
TempUseSlope;False;
TempTo;5;
TempdT;1;
TempSetupTime;0;
GonFrom;0;
GonTo;180;
GonSteps;20;
XRayEnabled;False;
XRayTime;3;
XRayVoltage;40;
XRayCurrent;0.5;
UVEnabled;False;
UVIntensity;0;
UVTime;0;
UVLeadTime;0;
UVWavelength;0;
PowSweepFrom;1;
PowSweepTo;5;
PowSweepSteps;5;
AmpModSweepFrom;0;
AmpModSweepTo;1;
AmpModSweepSteps;10;
ExtTriggerEnabled;False;
ExtTrigLeadTime;0;
ExtTrigOnTime;5;

Meas
BField [mT];MW_Absorption []
313.025657806396;44.9317173943517
313.047277893793;44.7792357488855
313.06889798119;44.6563052884249
313.090518068586;44.5670061555647
313.112138155983;44.5225606715281
313.133758243379;44.5260689632913
313.155378330776;44.5662702233565
313.176998418172;44.6558326892102
313.198618505569;44.8190011773612
313.220238592965;45.0488897778395
313.241858680362;45.3275783840592
313.263478767758;45.6419575053979
313.285098855155;45.977877329609
313.306718942551;46.3265919690825
313.328339029948;46.6942063361378
313.349959117344;47.0758832239088
313.371579204741;47.4315757756318
313.393199292137;47.7376429825674
313.414819379534;48.0010598331305
313.436439466931;48.2195567949572
313.458059554327;48.380881094111
313.479679641724;48.482852042621
313.50129972912;48.5268833290543
313.522919816517;48.5138767517868
313.544539903913;48.4506035195418
313.56615999131;48.347769640476
313.587780078706;48.2155236244999
313.609400166103;48.0658433599713
313.631020253499;47.9113038228092
313.652640340896;47.7552075604463
313.674260428292;47.603752286975
313.695880515689;47.4602232757346
313.717500603085;47.3268685986763
313.739120690482;47.2140725604008
313.760740777878;47.1297818693301
313.782360865275;47.0681954397717
313.803980952672;47.0361180394422
313.825601040068;47.0381844874866
313.847221127465;47.0659696038368
313.868841214861;47.1049996318665
313.890461302258;47.1423284865462
313.912081389654;47.1754150717846
313.933701477051;47.2181944369962
313.955321564447;47.2603117982707
313.976941651844;47.2856581703517
313.99856173924;47.2965178198226
314.020181826637;47.2959958831565
314.041801914033;47.2763280832908
314.06342200143;47.2131995178615
314.085042088826;47.1078440954153
314.106662176223;46.9770242059651
314.12828226362;46.8244062340137
314.149902351016;46.6499524827213
314.171522438413;46.4630079324569
314.193142525809;46.2735870702518
314.214762613206;46.0831292712599
314.236382700602;45.9032011364942
314.258002787999;45.7579914776714
314.279622875395;45.6470363698572
314.301242962792;45.5699189478796
314.322863050188;45.5318132113735
314.344483137585;45.5358967315443
314.366103224981;45.583249287507
314.387723312378;45.6784104441752
314.409343399774;45.8174279428662
314.430963487171;45.9878817128407
314.452583574567;46.1875730214393
314.474203661964;46.4216368069873
314.495823749361;46.6834818868707
314.517443836757;46.9576131389872
314.539063924154;47.2404538494276
314.56068401155;47.5192749265762
314.582304098947;47.7840957769333
314.603924186343;48.0411903253283
314.62554427374;48.2735205554104
314.647164361136;48.4700245687071
314.668784448533;48.6359572403198
314.690404535929;48.7633224617315
314.712024623326;48.843416394165
314.733644710722;48.8776247463992
314.755264798119;48.8724582906687
314.776884885515;48.8323824800369
314.798504972912;48.7576867191143
314.820125060309;48.6359966011458
314.841745147705;48.4722088675223
314.863365235102;48.2704323880452
314.884985322498;48.0469758843205
314.906605409895;47.8160315423104
314.928225497291;47.580566765464
314.949845584688;47.3363565442593
314.971465672084;47.0843212100062
314.993085759481;46.8328894692077
315.014705846877;46.5881778133692
315.036325934274;46.3473160866676
315.05794602167;46.1132156841473
315.079566109067;45.8940860576927
315.101186196463;45.7018852861149
315.12280628386;45.5491791117388
315.144426371256;45.4438672928444
315.166046458653;45.3915253850616
315.18766654605;45.3909555908678
315.209286633446;45.4371066155163
315.230906720843;45.5319156467075
315.252526808239;45.6794703657087
315.274146895636;45.8808531094541
315.295766983032;46.1283593195464
315.317387070429;46.3947068746809
315.339007157825;46.6566858250187
315.360627245222;46.910954283617
315.382247332618;47.1595015447109
315.403867420015;47.391454120701
315.425487507411;47.586482574606
315.447107594808;47.7328795700217
315.468727682204;47.8320528665362
315.490347769601;47.8923509758716
315.511967856998;47.9121907662595
315.533587944394;47.8915863464632
315.555208031791;47.8333156871313
315.576828119187;47.7450376290611
315.598448206584;47.6348973861399
315.62006829398;47.5122894673112
315.641688381377;47.3846321973398
315.663308468773;47.2592383201956
315.68492855617;47.1333032659355
315.706548643566;47.0022037285209
315.728168730963;46.8805012211203
315.749788818359;46.7993922800385
315.771408905756;46.7572596623791
315.793028993152;46.7405726359687
315.814649080549;46.7428946403706
315.836269167945;46.7671810242299
315.857889255342;46.8129814371648
315.879509342739;46.8764599844203
315.901129430135;46.9572962100653
315.922749517532;47.0542498909206
315.944369604928;47.1592101438345
315.965989692325;47.2634418732071
315.987609779721;47.3659816743115
316.009229867118;47.4663590934797
316.030849954514;47.5655292947448
316.052470041911;47.660763257558
316.074090129307;47.7537559012203
316.095710216704;47.8457185218226
316.1173303041;47.9316985493899
316.138950391497;48.0093096978129
316.160570478893;48.0829482003192
316.18219056629;48.1639473015556
316.203810653687;48.2601697044774
316.225430741083;48.3619482674433
316.24705082848;48.4576622705719
316.268670915876;48.544726362475
316.290291003273;48.6208156106268
316.311911090669;48.6959738771293
316.333531178066;48.7828315672335
316.355151265462;48.8828632558315
316.376771352859;48.9948900525639
316.398391440255;49.11180760282
316.420011527652;49.2223730648927
316.441631615048;49.320575266521
316.463251702445;49.4115376365651
316.484871789841;49.5020083344888
316.506491877238;49.5887500903919
316.528111964634;49.6761784302324
316.549732052031;49.7668200136777
316.571352139428;49.8596085276738
316.592972226824;49.956417597497
316.614592314221;50.0578018098576
316.636212401617;50.1506179977148
316.657832489014;50.2226968590727
316.67945257641;50.2809052321431
316.701072663807;50.3303847935695
316.722692751203;50.3737649803871
316.7443128386;50.4130625948349
316.765932925996;50.4480800378478
316.787553013393;50.4778696400228
316.809173100789;50.5099353707626
316.830793188186;50.5452730714901
316.852413275582;50.5812587973176
316.874033362979;50.6196098708657
316.895653450376;50.6666240078919
316.917273537772;50.7283097839267
316.938893625169;50.8038905328219
316.960513712565;50.8912497267397
316.982133799962;50.9855530936689
317.003753887358;51.0820451737098
317.025373974755;51.180064400864
317.046994062151;51.2800195123171
317.068614149548;51.3802883803687
317.090234236944;51.4771856059957
317.111854324341;51.5696650656867
317.133474411737;51.6609326751472
317.155094499134;51.7471306377951
317.17671458653;51.826175584322
317.198334673927;51.8975204031625
317.219954761323;51.9634070356971
317.24157484872;52.0250619692921
317.263194936117;52.0816726298075
317.284815023513;52.1351241139257
317.30643511091;52.1948085959635
317.328055198306;52.2687160594027
317.349675285703;52.3585501670986
317.371295373099;52.4587710186751
317.392915460496;52.5635851472119
317.414535547892;52.658862999031
317.436155635289;52.7272381489313
317.457775722685;52.7608864013754
317.479395810082;52.7606449251844
317.501015897478;52.722209403303
317.522635984875;52.6375922377088
317.544256072271;52.5052048395058
317.565876159668;52.324411125518
317.587496247064;52.1004260018816
317.609116334461;51.8286732120534
317.630736421858;51.5162264975792
317.652356509254;51.1926918554268
317.673976596651;50.8774230878212
317.695596684047;50.5719505423933
317.717216771444;50.2833735724292
317.73883685884;50.0171701878785
317.760456946237;49.7717052493976
317.782077033633;49.5398378431314
317.80369712103;49.3090953491469
317.825317208426;49.0647804122887
317.846937295823;48.7877424721212
317.868557383219;48.4678399950756
317.890177470616;48.1214541010242
317.911797558012;47.7618956841816
317.933417645409;47.3862011460185
317.955037732806;46.9966233099777
317.976657820202;46.5953922451324
317.998277907599;46.1787290104947
318.019897994995;45.7511738322546
318.041518082392;45.3421951177868
318.063138169788;44.9691316219197
318.084758257185;44.6222524339058
318.106378344581;44.2931818894489
318.127998431978;43.9896658144112
318.149618519374;43.7172884275297
318.171238606771;43.4872942683811
318.192858694167;43.3131389121613
318.214478781564;43.2040759604377
318.23609886896;43.1572982608013
318.257718956357;43.1595110110034
318.279339043753;43.204654718731
318.30095913115;43.2978180785533
318.322579218547;43.4326458845023
318.344199305943;43.5917086054422
318.36581939334;43.7706432531441
318.387439480736;43.9806077893437
318.409059568133;44.224221616124
318.430679655529;44.4830390167618
318.452299742926;44.7435053245535
318.473919830322;45.0071592974961
318.495539917719;45.2854956160646
318.517160005115;45.5834279760789
318.538780092512;45.8873808727751
318.560400179908;46.1879281108172
318.582020267305;46.4702105069022
318.603640354701;46.7187705307157
318.625260442098;46.9527751229417
318.646880529494;47.1792033828396
318.668500616891;47.3936277068001
318.690120704288;47.5878383818548
318.711740791684;47.7653921980941
318.733360879081;47.9358686831426
318.754980966477;48.0947015569772
318.776601053874;48.2436662882434
318.79822114127;48.3927306254438
318.819841228667;48.5575382004041
318.841461316063;48.734245033329
318.86308140346;48.9059073325525
318.884701490856;49.0656194506843
318.906321578253;49.2093933898783
318.927941665649;49.3388319819639
318.949561753046;49.4585792187893
318.971181840442;49.565406862305
318.992801927839;49.6516895279384
319.014422015236;49.708923355029
319.036042102632;49.7348584743075
319.057662190029;49.7317621961959
319.079282277425;49.7045370257536
319.100902364822;49.6483913706583
319.122522452218;49.552602376875
319.144142539615;49.4159226377555
319.165762627011;49.2381671938878
319.187382714408;49.013946014578
319.209002801804;48.7489766113152
319.230622889201;48.4762893522641
319.252242976597;48.1997177602238
319.273863063994;47.9080291834633
319.29548315139;47.5973992263659
319.317103238787;47.2685536120828
319.338723326183;46.9252298836497
319.36034341358;46.5825827364609
319.381963500977;46.2609316443404
319.403583588373;45.9600369991584
319.42520367577;45.6707474396436
319.446823763166;45.4124008457981
319.468443850563;45.2024967648187
319.490063937959;45.0353811675192
319.511684025356;44.906056688907
319.533304112752;44.804918973873
319.554924200149;44.7304014982583
319.576544287545;44.6862133472093
319.598164374942;44.6711559374604
319.619784462338;44.6809879236682
319.641404549735;44.7109037332032
319.663024637131;44.7603629559993
319.684644724528;44.8323085284957
319.706264811924;44.9322600077365
319.727884899321;45.0662358721345
319.749504986718;45.2284311569859
319.771125074114;45.4103012448712
319.792745161511;45.6077686533025
319.814365248907;45.8348460606908
319.835985336304;46.0892080888101
319.8576054237;46.3465680382568
319.879225511097;46.5782502026492
319.900845598493;46.7748774561176
319.92246568589;46.9441672917943
319.944085773286;47.0911258942974
319.965705860683;47.1964101028777
319.987325948079;47.2498165775452
320.008946035476;47.2571548680268
320.030566122872;47.2224254693255
320.052186210269;47.1428038140478
320.073806297666;47.0212091935245
320.095426385062;46.8660334128956
320.117046472459;46.6768604259486
320.138666559855;46.4514199313263
320.160286647252;46.1996679922627
320.181906734648;45.9257395985823
320.203526822045;45.6179220079786
320.225146909441;45.2888939618335
320.246766996838;44.9555072024382
320.268387084234;44.6367940022304
320.290007171631;44.3362804074116
320.311627259027;44.0499286157974
320.333247346424;43.7855824124424
320.35486743382;43.5582628826764
320.376487521217;43.3720063058773
320.398107608613;43.2273017698847
320.41972769601;43.1318243928208
320.441347783407;43.0834815097351
320.462967870803;43.0788738119263
320.4845879582;43.1026728472941
320.506208045596;43.1453178459834
320.527828132993;43.2003334921783
320.549448220389;43.2528000845846
320.571068307786;43.2948609940066
320.592688395182;43.3229546044412
320.614308482579;43.3252412309115
320.635928569975;43.2908821092247
320.657548657372;43.2228691683096
320.679168744768;43.135380894482
320.700788832165;43.0352565884566
320.722408919561;42.9216963461294
320.744029006958;42.8080777965073
320.765649094355;42.7195569442158
320.787269181751;42.6641756895561
320.808889269148;42.6456028533154
320.830509356544;42.6603672834187
320.852129443941;42.702811038013
320.873749531337;42.7752671886059
320.895369618734;42.8808538582558
320.91698970613;43.0027309783888
320.938609793527;43.1294897660665
320.960229880923;43.2556663930356
320.98184996832;43.3727329765176
321.003470055716;43.4682064079691
321.025090143113;43.5356193497962
321.046710230509;43.5763731060161
321.068330317906;43.5874763116975
321.089950405302;43.5649024563961
321.111570492699;43.5105305175922
321.133190580096;43.4314125267205
321.154810667492;43.3351427957953
321.176430754889;43.2296764901483
321.198050842285;43.1172079025163
321.219670929682;42.9949343664589
321.241291017078;42.8700679968371
321.262911104475;42.7502992514487
321.284531191871;42.6378929147982
321.306151279268;42.5359179709488
321.327771366664;42.4450674647816
321.349391454061;42.3592413665261
321.371011541457;42.2765949891507
321.392631628854;42.1968346282616
321.41425171625;42.1155502573138
321.435871803647;42.0303771975908
321.457491891044;41.940231435621
321.47911197844;41.8401779625877
321.500732065837;41.7186817815042
321.522352153233;41.5729599118934
321.54397224063;41.4200152643778
321.565592328026;41.2711090422261
321.587212415423;41.1204808482276
321.608832502819;40.9602891910551
321.630452590216;40.7958244913911
321.652072677612;40.6368708516613
321.673692765009;40.5044951681767
321.695312852405;40.4140539443671
321.716932939802;40.3674790594585
321.738553027198;40.3643710908761
321.760173114595;40.4032011181319
321.781793201991;40.4924991101625
321.803413289388;40.6417247515173
321.825033376785;40.8488407673715
321.846653464181;41.110846319643
321.868273551578;41.4241731244776
321.889893638974;41.7681020125539
321.911513726371;42.1139666863764
321.933133813767;42.4454165523084
321.954753901164;42.7524986896304
321.97637398856;43.0267690983577
321.997994075957;43.2649273079717
322.019614163353;43.464199234123
322.04123425075;43.6241876394224
322.062854338146;43.7475039766719
322.084474425543;43.8381382999505
322.106094512939;43.8995954505332
322.127714600336;43.9437495024746
322.149334687733;43.9774434313097
322.170954775129;44.0059091717516
322.192574862526;44.0325050217278
322.214194949922;44.0548341511452
322.235815037319;44.0769308567582
322.257435124715;44.1055499023926
322.279055212112;44.1389784039057
322.300675299508;44.171146356526
322.322295386905;44.2054511822247
322.343915474301;44.2464138121209
322.365535561698;44.2872734111655
322.387155649094;44.3273214177361
322.408775736491;44.3685012275497
322.430395823887;44.4082567370346
322.452015911284;44.4451617082068
322.47363599868;44.4819016717204
322.495256086077;44.5168273240672
322.516876173474;44.5456890810569
322.53849626087;44.5659940653953
322.560116348267;44.5759262872219
322.581736435663;44.5741822943567
322.60335652306;44.5594826243259
322.624976610456;44.5303232903301
322.646596697853;44.4812136484083
322.668216785249;44.3939996438722
322.689836872646;44.2606594749057
322.711456960042;44.0617069571313
322.733077047439;43.8063354692005
322.754697134835;43.5108242215384
322.776317222232;43.1849482165479
322.797937309628;42.8357272582282
322.819557397025;42.465643883354
322.841177484422;42.080577330976
322.862797571818;41.6965239128298
322.884417659215;41.3089520409017
322.906037746611;40.9076955845512
322.927657834008;40.512153411902
322.949277921404;40.1362335889537
322.970898008801;39.7952399254154
322.992518096197;39.4932203268375
323.014138183594;39.2153421629357
323.03575827099;38.9509542331027
323.057378358387;38.6988122162512
323.078998445783;38.4675556313946
323.10061853318;38.2680485268982
323.122238620576;38.1002446374296
323.143858707973;37.9692631521174
323.165478795369;37.8905204199709
323.187098882766;37.8572928626215
323.208718970163;37.8511283698596
323.230339057559;37.8801667645118
323.251959144956;37.9485218211624
323.273579232352;38.0351557474888
323.295199319749;38.1261748324176
323.316819407145;38.2215076218942
323.338439494542;38.3254068399772
323.360059581938;38.4390509990218
323.381679669335;38.5514834357701
323.403299756731;38.6474014187002
323.424919844128;38.722373671135
323.446539931524;38.7863567772692
323.468160018921;38.8486723659097
323.489780106317;38.9173921866498
323.511400193714;38.998822664155
323.53302028111;39.0941648944376
323.554640368507;39.209787701481
323.576260455904;39.3528601682253
323.5978805433;39.5119101011395
323.619500630697;39.6819560360532
323.641120718093;39.8672303106651
323.66274080549;40.0730141247441
323.684360892886;40.2950630225608
323.705980980283;40.5210332322989
323.727601067679;40.744187515443
323.749221155076;40.9678001786507
323.770841242472;41.1907459966974
323.792461329869;41.4025159133497
323.814081417265;41.6004628974456
323.835701504662;41.7873933392935
323.857321592058;41.9685814989713
323.878941679455;42.1353784416237
323.900561766852;42.268548937432
323.922181854248;42.3717444132003
323.943801941645;42.4575552391873
323.965422029041;42.5245912927786
323.987042116438;42.5743327727324
324.008662203834;42.6076901279947
324.030282291231;42.6237685286028
324.051902378627;42.6212990335842
324.073522466024;42.5996734467998
324.09514255342;42.5622557654474
324.116762640817;42.5070284034603
324.138382728213;42.4267031839633
324.16000281561;42.3226307199088
324.181622903006;42.2023675811834
324.203242990403;42.0714671584477
324.224863077799;41.9292290768155
324.246483165196;41.7668681449514
324.268103252593;41.5850234404033
324.289723339989;41.3939853526688
324.311343427386;41.2069696733753
324.332963514782;41.0373239894785
324.354583602179;40.8800843861665
324.376203689575;40.7232789061902
324.397823776972;40.5650052742567
324.419443864368;40.4136042655955
324.441063951765;40.267666678868
324.462684039161;40.1197881587136
324.484304126558;39.9730039238942
324.505924213954;39.8352508513766
324.527544301351;39.7021312810031
324.549164388747;39.5660535833037
324.570784476144;39.4323872390485
324.59240456354;39.3110578101767
324.614024650937;39.1914714517916
324.635644738334;39.0633842599196
324.65726482573;38.9247553165201
324.678884913127;38.7716030337929
324.700505000523;38.5972626839095
324.72212508792;38.4015460064938
324.743745175316;38.1868906561057
324.765365262713;37.9510717215138
