Name;BF_ESR_01_1800s_Z_gon_160dg_result

Recipe
Accumulations;5;Number of accumulations
RetryCount;0;Number of retries on error
AbortOnError;True;Abort on error
EnableQFactorMeasurement;False;Enable/Disable q-Factor measurement
Bfrom;313;B from
Bto;363;B to
SweepTime;60;Sweep time
Modulation;0.2;Modulation
ModulationFreq;100;Modulation
BHoldEnabled;False;B hold enabled
BHold;0;B hold
MicrowavePower;2;Microwave power
MarkerEnabled;False;
MarkerStartField;0;
MarkerEndField;0;
Mode;;
KineticGFact;0;
KineticTotalTransientTime;0;
KineticTimeResolution;0;
TempFrom;5;
TempUseSlope;False;
TempTo;5;
TempdT;1;
TempSetupTime;0;
GonFrom;0;
GonTo;180;
GonSteps;20;
XRayEnabled;False;
XRayTime;3;
XRayVoltage;40;
XRayCurrent;0.5;
UVEnabled;False;
UVIntensity;0;
UVTime;0;
UVLeadTime;0;
UVWavelength;0;
PowSweepFrom;1;
PowSweepTo;5;
PowSweepSteps;5;
AmpModSweepFrom;0;
AmpModSweepTo;1;
AmpModSweepSteps;10;
ExtTriggerEnabled;False;
ExtTrigLeadTime;0;
ExtTrigOnTime;5;

Meas
BField [mT];MW_Absorption []
313.008832626343;66.7445759821994
313.03044024011;66.7540990835418
313.052047853878;66.7963463021735
313.073655467646;66.8694772636127
313.095263081413;66.9666577317356
313.116870695181;67.0873128013497
313.138478308949;67.2287121357739
313.160085922716;67.3906129727121
313.181693536484;67.5729927245422
313.203301150251;67.7763457282281
313.224908764019;67.9980385077239
313.246516377787;68.2279874850069
313.268123991554;68.4470987269437
313.289731605322;68.6325601214332
313.31133921909;68.7820687499743
313.332946832857;68.9039375105214
313.354554446625;68.998673470711
313.376162060393;69.0489077431619
313.39776967416;69.0461334245475
313.419377287928;68.9940484953102
313.440984901695;68.897184841034
313.462592515463;68.7643090973018
313.484200129231;68.6094209136128
313.505807742998;68.4409105260752
313.527415356766;68.2586369521788
313.549022970534;68.0545753138474
313.570630584301;67.832715536826
313.592238198069;67.6042525127488
313.613845811836;67.3845016972502
313.635453425604;67.1746605794164
313.657061039372;66.9730321071628
313.678668653139;66.7936872610134
313.700276266907;66.6280990809734
313.721883880675;66.4662858434484
313.743491494442;66.3057540082139
313.76509910821;66.1400035027013
313.786706721978;65.9749697893775
313.808314335745;65.8148709093636
313.829921949513;65.6543745438439
313.85152956328;65.493984805605
313.873137177048;65.3376446443745
313.894744790816;65.1921746154035
313.916352404583;65.0641659571793
313.937960018351;64.9502240060446
313.959567632119;64.8511393867021
313.981175245886;64.772299402602
314.002782859654;64.7157251891169
314.024390473421;64.6879683340484
314.045998087189;64.6976770676196
314.067605700957;64.7466298549002
314.089213314724;64.8350916261257
314.110820928492;64.9713278371102
314.13242854226;65.1617733378232
314.154036156027;65.4065159573974
314.175643769795;65.6860810716834
314.197251383563;65.9780999041371
314.21885899733;66.2665397689394
314.240466611098;66.5420320394375
314.262074224865;66.7999188841767
314.283681838633;67.0310422657799
314.305289452401;67.2270940835194
314.326897066168;67.3852189949962
314.348504679936;67.4930834935383
314.370112293704;67.5430751130285
314.391719907471;67.5499093442328
314.413327521239;67.5328296364553
314.434935135006;67.4976527145077
314.456542748774;67.4467491381195
314.478150362542;67.3906249297912
314.499757976309;67.3437907123408
314.521365590077;67.3097972839683
314.542973203845;67.2765312614456
314.564580817612;67.2392337233472
314.58618843138;67.1995185202385
314.607796045148;67.1508996045215
314.629403658915;67.0831043170155
314.651011272683;66.9886788366875
314.67261888645;66.8593839741131
314.694226500218;66.6874922354826
314.715834113986;66.4673566779784
314.737441727753;66.1780816535711
314.759049341521;65.8311723737953
314.780656955289;65.4588231683085
314.802264569056;65.0823239758156
314.823872182824;64.7048887470938
314.845479796591;64.325302933292
314.867087410359;63.9679648922067
314.888695024127;63.668766975985
314.910302637894;63.4331742194442
314.931910251662;63.2555124621234
314.95351786543;63.1286542189732
314.975125479197;63.0519741150226
314.996733092965;63.0324806144223
315.018340706732;63.0706937806957
315.0399483205;63.1541380397424
315.061555934268;63.2705673043675
315.083163548035;63.4094324963566
315.104771161803;63.5605490870359
315.126378775571;63.7173403906312
315.147986389338;63.8812568805835
315.169594003106;64.0521486701784
315.191201616874;64.2171806352764
315.212809230641;64.3674697266462
315.234416844409;64.5098922462628
315.256024458176;64.6456800889756
315.277632071944;64.7694800141496
315.299239685712;64.8828715681228
315.320847299479;64.989588177028
315.342454913247;65.0967916035501
315.364062527015;65.2100889188202
315.385670140782;65.3243360210749
315.40727775455;65.4281822708118
315.428885368317;65.5194079080946
315.450492982085;65.6071801498495
315.472100595853;65.6915568356973
315.49370820962;65.7772177562507
315.515315823388;65.8707712325447
315.536923437156;65.9680940276143
315.558531050923;66.0646101793146
315.580138664691;66.1610616688522
315.601746278459;66.2584433701941
315.623353892226;66.3547120106003
315.644961505994;66.4495920588693
315.666569119761;66.5499073048673
315.688176733529;66.6491094466695
315.709784347297;66.7355250263262
315.731391961064;66.8162863099434
315.752999574832;66.8911256821927
315.7746071886;66.9540567638668
315.796214802367;67.0162893409266
315.817822416135;67.0701548213944
315.839430029902;67.1000915413677
315.86103764367;67.0967159471296
315.882645257438;67.051697702439
315.904252871205;66.9775179724927
315.925860484973;66.8834157857483
315.947468098741;66.7717019377157
315.969075712508;66.644247322915
315.990683326276;66.5054184556754
316.012290940044;66.358721766251
316.033898553811;66.206569936452
316.055506167579;66.0530021849658
316.077113781346;65.9032017739717
316.098721395114;65.7545502329899
316.120329008882;65.606353220076
316.141936622649;65.4669544154334
316.163544236417;65.3343389476434
316.185151850185;65.1984709583527
316.206759463952;65.0574329484782
316.22836707772;64.9166824065085
316.249974691487;64.7722745231641
316.271582305255;64.6208860176375
316.293189919023;64.4588359913297
316.31479753279;64.2883031194826
316.336405146558;64.1191582067008
316.358012760326;63.9647977657099
316.379620374093;63.8426124064486
316.401227987861;63.7610983850059
316.422835601629;63.721847984013
316.444443215396;63.7267358124931
316.466050829164;63.7754929992622
316.487658442931;63.8665825713688
316.509266056699;63.9983082341444
316.530873670467;64.1718671426414
316.552481284234;64.3914311390788
316.574088898002;64.6527877179599
316.59569651177;64.9436115081901
316.617304125537;65.2534048797539
316.638911739305;65.5802468922717
316.660519353072;65.9202358959567
316.68212696684;66.2545861208848
316.703734580608;66.5708217413054
316.725342194375;66.864657941216
316.746949808143;67.123734967915
316.768557421911;67.3421763500582
316.790165035678;67.5195407160271
316.811772649446;67.6576667080119
316.833380263214;67.7654670854504
316.854987876981;67.851188160757
316.876595490749;67.9169808763366
316.898203104516;67.9667254720644
316.919810718284;68.0123216002735
316.941418332052;68.0662962339178
316.963025945819;68.1376316287374
316.984633559587;68.2324286037283
317.006241173355;68.3474805584602
317.027848787122;68.4741440492484
317.04945640089;68.6099214327835
317.071064014657;68.7506591628769
317.092671628425;68.8948135609546
317.114279242193;69.0371181064271
317.13588685596;69.1685114231088
317.157494469728;69.2759416997052
317.179102083496;69.3457565756916
317.200709697263;69.3647068113088
317.222317311031;69.3213942866596
317.243924924799;69.2170349024226
317.265532538566;69.0629778780677
317.287140152334;68.8618472296294
317.308747766101;68.6177265080139
317.330355379869;68.346560103893
317.351962993637;68.0679209478325
317.373570607404;67.8000804533677
317.395178221172;67.5517083276381
317.41678583494;67.3312332148115
317.438393448707;67.1405950521116
317.460001062475;66.9885658328651
317.481608676242;66.8881294624448
317.50321629001;66.8392334247026
317.524823903778;66.8329009135746
317.546431517545;66.8676911936516
317.568039131313;66.9514830709866
317.589646745081;67.0822089114762
317.611254358848;67.2519918964258
317.632861972616;67.4534092944522
317.654469586384;67.6778821016291
317.676077200151;67.9179917844792
317.697684813919;68.1730612305409
317.719292427686;68.4475742717115
317.740900041454;68.727817332301
317.762507655222;68.9985200923724
317.784115268989;69.2535891438258
317.805722882757;69.4745579656439
317.827330496525;69.6429884626379
317.848938110292;69.7571243985743
317.87054572406;69.8205358230245
317.892153337827;69.8301468044504
317.913760951595;69.7781556593316
317.935368565363;69.6545605235231
317.95697617913;69.464369181407
317.978583792898;69.2287994535967
318.000191406666;68.9562674614645
318.021799020433;68.6494803475497
318.043406634201;68.3185360203292
318.065014247969;67.9797067563434
318.086621861736;67.643360363705
318.108229475504;67.3235356634676
318.129837089271;67.0442552826389
318.151444703039;66.8225739993982
318.173052316807;66.6524647363742
318.194659930574;66.531855717954
318.216267544342;66.462402339287
318.23787515811;66.4522329143315
318.259482771877;66.501992790177
318.281090385645;66.6008679701252
318.302697999412;66.7334559017274
318.32430561318;66.89045079871
318.345913226948;67.0646189553561
318.367520840715;67.2449900330788
318.389128454483;67.4175811015704
318.410736068251;67.5764919968394
318.432343682018;67.7227828261746
318.453951295786;67.8549162994898
318.475558909554;67.9711188320052
318.497166523321;68.0733178983736
318.518774137089;68.1599666440796
318.540381750856;68.2315314701985
318.561989364624;68.2968204144506
318.583596978392;68.3655077578797
318.605204592159;68.4282292140571
318.626812205927;68.4714631919146
318.648419819695;68.4840552731037
318.670027433462;68.4603424676233
318.69163504723;68.4104102818585
318.713242660997;68.3411047250923
318.734850274765;68.2348448202414
318.756457888533;68.0898397867759
318.7780655023;67.9160721623584
318.799673116068;67.7124283953797
318.821280729836;67.4763011650692
318.842888343603;67.2141543799246
318.864495957371;66.9425338791626
318.886103571139;66.6773471414922
318.907711184906;66.4281762022121
318.929318798674;66.2038690089024
318.950926412441;66.014432291253
318.972534026209;65.8642023033814
318.994141639977;65.7542189471302
319.015749253744;65.6857120029094
319.037356867512;65.6583782633996
319.05896448128;65.6722747499843
319.080572095047;65.7257464626484
319.102179708815;65.808205086083
319.123787322582;65.8998949538769
319.14539493635;65.9871639076671
319.167002550118;66.066319304745
319.188610163885;66.1366292599298
319.210217777653;66.1944585998194
319.231825391421;66.2322645856031
319.253433005188;66.2372403860348
319.275040618956;66.2024811069763
319.296648232724;66.1346287732715
319.318255846491;66.0440788471368
319.339863460259;65.9315333894445
319.361471074026;65.7884754160755
319.383078687794;65.616062382831
319.404686301562;65.4435911993924
319.426293915329;65.2743252313428
319.447901529097;65.0986808234891
319.469509142865;64.9082648396822
319.491116756632;64.6998468474201
319.5127243704;64.4701136463419
319.534331984167;64.2335253418638
319.555939597935;64.0061090726788
319.577547211703;63.7852610939444
319.59915482547;63.5489682702976
319.620762439238;63.2961961311889
319.642370053006;63.0392261863415
319.663977666773;62.8122294405971
319.685585280541;62.6307117667722
319.707192894308;62.4854418971267
319.728800508076;62.3704281623004
319.750408121844;62.2934197540244
319.772015735611;62.2602053764221
319.793623349379;62.2724001188773
319.815230963147;62.3279339587501
319.836838576914;62.4184176117112
319.858446190682;62.5408066502433
319.88005380445;62.6937024127237
319.901661418217;62.8680275512568
319.923269031985;63.065960256801
319.944876645752;63.276901809897
319.96648425952;63.4936450584492
319.988091873288;63.7343046545008
320.009699487055;64.0093121044608
320.031307100823;64.3073159790625
320.052914714591;64.6256734965474
320.074522328358;64.9661439104562
320.096129942126;65.3290810060796
320.117737555893;65.7141124526327
320.139345169661;66.1289453693513
320.160952783429;66.5768116656499
320.182560397196;67.0341841282112
320.204168010964;67.4784699243135
320.225775624732;67.9071224997827
320.247383238499;68.317319388121
320.268990852267;68.7004386277963
320.290598466035;69.0488522883793
320.312206079802;69.3713765864661
320.33381369357;69.6694042062725
320.355421307337;69.9290077362716
320.377028921105;70.1361683972804
320.398636534873;70.2930268237342
320.42024414864;70.4149325210755
320.441851762408;70.5060159024317
320.463459376176;70.5666566432186
320.485066989943;70.5976451285158
320.506674603711;70.5945340093752
320.528282217478;70.557517267547
320.549889831246;70.4898578296222
320.571497445014;70.3838371260503
320.593105058781;70.2246451623965
320.614712672549;70.0048329032782
320.636320286317;69.7301388390329
320.657927900084;69.4068899619718
320.679535513852;69.0311006527688
320.70114312762;68.5976181049121
320.722750741387;68.1017730602381
320.744358355155;67.5431365184091
320.765965968922;66.9437671278043
320.78757358269;66.3326723733814
320.809181196458;65.7417856166664
320.830788810225;65.2011201288467
320.852396423993;64.7189771296278
320.874004037761;64.2931577019899
320.895611651528;63.9350516463015
320.917219265296;63.6589480798915
320.938826879063;63.4649846662658
320.960434492831;63.3505216010019
320.982042106599;63.3149020086113
321.003649720366;63.3484423216823
321.025257334134;63.4311275079105
321.046864947902;63.5464647849007
321.068472561669;63.6786646996146
321.090080175437;63.8106396353181
321.111687789205;63.9262332874153
321.133295402972;64.0104067731196
321.15490301674;64.0458294880399
321.176510630507;64.0160102759464
321.198118244275;63.9126552107804
321.219725858043;63.7393124578536
321.24133347181;63.493171802189
321.262941085578;63.1592873563651
321.284548699346;62.7395274965565
321.306156313113;62.2478766025444
321.327763926881;61.6935073428639
321.349371540648;61.0815793912518
321.370979154416;60.4291884602865
321.392586768184;59.7641751762532
321.414194381951;59.1160014973897
321.435801995719;58.4954646141324
321.457409609487;57.9042555871982
321.479017223254;57.3520747170624
321.500624837022;56.8612928440803
321.522232450789;56.4523631691817
321.543840064557;56.132178712123
321.565447678325;55.8933237977521
321.587055292092;55.7232565398091
321.60866290586;55.6092657388123
321.630270519628;55.5423778288324
321.651878133395;55.5172195109617
321.673485747163;55.5353118847655
321.695093360931;55.5966710289682
321.716700974698;55.6926337117564
321.738308588466;55.8196955243707
321.759916202233;55.9770942039272
321.781523816001;56.1681552277245
321.803131429769;56.397315684251
321.824739043536;56.6675903336896
321.846346657304;56.973525284212
321.867954271072;57.3025523179597
321.889561884839;57.6542947933519
321.911169498607;58.0343971607046
321.932777112375;58.4466900820314
321.954384726142;58.881169894527
321.97599233991;59.3205997008884
321.997599953677;59.7521281860925
322.019207567445;60.174008485702
322.040815181213;60.5888400053063
322.06242279498;60.9891427689645
322.084030408748;61.3567908319895
322.105638022516;61.6868452880343
322.127245636283;61.9818575521706
322.148853250051;62.222325213459
322.170460863818;62.3931614895042
322.192068477586;62.5082601420383
322.213676091354;62.5791328220246
322.235283705121;62.6090250454969
322.256891318889;62.6079623832668
322.278498932657;62.5890676897272
322.300106546424;62.5581595384479
322.321714160192;62.5212333629425
322.34332177396;62.4857999618952
322.364929387727;62.4622365666049
322.386537001495;62.4651969892646
322.408144615262;62.4938838962185
322.42975222903;62.5404415686209
322.451359842798;62.6013833006895
322.472967456565;62.6692154793935
322.494575070333;62.7323250911195
322.516182684101;62.777024954981
322.537790297868;62.7948752269828
322.559397911636;62.7705428296065
322.581005525403;62.689350895485
322.602613139171;62.5480570521764
322.624220752939;62.3502823179608
322.645828366706;62.0981818832926
322.667435980474;61.7873172372265
322.689043594242;61.4124571985196
322.710651208009;60.9827255353306
322.732258821777;60.5136328742387
322.753866435545;60.014500426899
322.775474049312;59.5029135390613
322.79708166308;59.0178156879348
322.818689276847;58.5639069726481
322.840296890615;58.1375878953739
322.861904504383;57.7411699316814
322.88351211815;57.3701053084076
322.905119731918;57.0285000877348
322.926727345686;56.7256669727384
322.948334959453;56.4625561378124
322.969942573221;56.2424679446062
322.991550186988;56.0590712585077
323.013157800756;55.8819558827587
323.034765414524;55.696773340294
323.056373028291;55.5129556944876
323.077980642059;55.3485108312134
323.099588255827;55.1951925825361
323.121195869594;55.0380765176049
323.142803483362;54.8793922345108
323.16441109713;54.7226413087584
323.186018710897;54.5629846706733
323.207626324665;54.4073008238516
323.229233938432;54.2598234315904
323.2508415522;54.1126732286127
323.272449165968;53.9680723336836
323.294056779735;53.8428314904208
323.315664393503;53.747165624954
323.337272007271;53.6696961620967
323.358879621038;53.6028822624685
323.380487234806;53.5440958832514
323.402094848573;53.4997596964037
323.423702462341;53.4725661205912
323.445310076109;53.4526285210488
323.466917689876;53.4263343815278
323.488525303644;53.3868995975356
323.510132917412;53.3371458457617
323.531740531179;53.2821356080449
323.553348144947;53.2133054029934
323.574955758715;53.1173184980492
323.596563372482;52.9942516908966
323.61817098625;52.8525253237295
323.639778600017;52.7078402334932
323.661386213785;52.5677200569722
323.682993827553;52.4449362779089
323.70460144132;52.3443966855137
323.726209055088;52.2649753537786
323.747816668856;52.2098330965771
323.769424282623;52.1705364292451
323.791031896391;52.1479228116319
323.812639510158;52.1350003566505
323.834247123926;52.1182929553846
323.855854737694;52.0932736739509
323.877462351461;52.0634862745523
323.899069965229;52.0266161882933
323.920677578997;51.9776834075392
323.942285192764;51.9136073532075
323.963892806532;51.8396241429136
323.9855004203;51.7687222085994
324.007108034067;51.7076400136045
324.028715647835;51.654021898153
324.050323261602;51.6072567904419
324.07193087537;51.5754853597123
324.093538489138;51.5602494276555
324.115146102905;51.5464832869218
324.136753716673;51.5205092071431
324.158361330441;51.4841629374457
324.179968944208;51.4431910359982
324.201576557976;51.3872630758741
324.223184171743;51.3011687254678
324.244791785511;51.1730630214161
324.266399399279;50.9957734888598
324.288007013046;50.7620891754362
324.309614626814;50.4678242635441
324.331222240582;50.1156214547775
324.352829854349;49.7115239276033
324.374437468117;49.2709773451966
324.396045081884;48.7973840146765
324.417652695652;48.291208880369
324.43926030942;47.7677764343668
324.460867923187;47.2372780027899
324.482475536955;46.7060537842067
324.504083150723;46.194114921601
324.52569076449;45.716523033823
324.547298378258;45.274002817918
324.568905992026;44.8588598250738
324.590513605793;44.4712507839834
324.612121219561;44.119844857964
324.633728833328;43.8102693044622
324.655336447096;43.5475803665465
324.676944060864;43.3326076782945
324.698551674631;43.1601359567551
324.720159288399;43.0317507228519
324.741766902167;42.9489813370335
