Name;BF_ESR_01_900s_Z_gon_80dg_result

Recipe
Accumulations;5;Number of accumulations
RetryCount;0;Number of retries on error
AbortOnError;True;Abort on error
EnableQFactorMeasurement;False;Enable/Disable q-Factor measurement
Bfrom;313;B from
Bto;363;B to
SweepTime;60;Sweep time
Modulation;0.2;Modulation
ModulationFreq;100;Modulation
BHoldEnabled;False;B hold enabled
BHold;0;B hold
MicrowavePower;2;Microwave power
MarkerEnabled;False;
MarkerStartField;0;
MarkerEndField;0;
Mode;;
KineticGFact;0;
KineticTotalTransientTime;0;
KineticTimeResolution;0;
TempFrom;5;
TempUseSlope;False;
TempTo;5;
TempdT;1;
TempSetupTime;0;
GonFrom;0;
GonTo;180;
GonSteps;20;
XRayEnabled;False;
XRayTime;3;
XRayVoltage;40;
XRayCurrent;0.5;
UVEnabled;False;
UVIntensity;0;
UVTime;0;
UVLeadTime;0;
UVWavelength;0;
PowSweepFrom;1;
PowSweepTo;5;
PowSweepSteps;5;
AmpModSweepFrom;0;
AmpModSweepTo;1;
AmpModSweepSteps;10;
ExtTriggerEnabled;False;
ExtTrigLeadTime;0;
ExtTrigOnTime;5;

Meas
BField [mT];MW_Absorption []
313.024392700195;58.8104862138021
313.046015741951;58.7308739280108
313.067638783707;58.6137255974359
313.089261825462;58.462924541674
313.110884867218;58.2881131920275
313.132507908974;58.0955755816741
313.15413095073;57.8889569704812
313.175753992485;57.6721162561072
313.197377034241;57.4423747849775
313.219000075997;57.1981461128078
313.240623117752;56.9409978146662
313.262246159508;56.6746816022048
313.283869201264;56.4092911845205
313.30549224302;56.1476741944456
313.327115284775;55.9043319906834
313.348738326531;55.7022829247897
313.370361368287;55.5346449865546
313.391984410042;55.3806708065464
313.413607451798;55.2312778893067
313.435230493554;55.0967472136332
313.45685353531;54.982468859439
313.478476577065;54.8869099426884
313.500099618821;54.8070898458366
313.521722660577;54.7464662734254
313.543345702332;54.7036234396149
313.564968744088;54.6737874744946
313.586591785844;54.6571976623644
313.6082148276;54.6605394913574
313.629837869355;54.6954583318655
313.651460911111;54.7750726899237
313.673083952867;54.8970956610454
313.694706994622;55.0498998416801
313.716330036378;55.2397855283542
313.737953078134;55.4817923357103
313.759576119889;55.7880875268394
313.781199161645;56.1470967608936
313.802822203401;56.5270736606895
313.824445245157;56.9162031286215
313.846068286912;57.2982356432894
313.867691328668;57.6505145484868
313.889314370424;57.971582482373
313.910937412179;58.2628092559896
313.932560453935;58.5136301064278
313.954183495691;58.7102041598088
313.975806537447;58.8466380794344
313.997429579202;58.9273674205083
314.019052620958;58.9546330957131
314.040675662714;58.9345958832316
314.062298704469;58.8806051905791
314.083921746225;58.8009904049321
314.105544787981;58.7012996545403
314.127167829736;58.5873697871785
314.148790871492;58.464028411041
314.170413913248;58.3308979060685
314.192036955004;58.1883987312354
314.213659996759;58.0465348796124
314.235283038515;57.9137161400715
314.256906080271;57.7878861641788
314.278529122027;57.6572109172301
314.300152163782;57.5131604276511
314.321775205538;57.3747622945351
314.343398247294;57.2655602501407
314.365021289049;57.1864436265861
314.386644330805;57.130829448385
314.408267372561;57.0870591742287
314.429890414316;57.0475283613267
314.451513456072;57.0230398562288
314.473136497828;57.0214034756001
314.494759539584;57.0373693624155
314.516382581339;57.0657853142591
314.538005623095;57.1056780160662
314.559628664851;57.1557371873155
314.581251706606;57.2105951436468
314.602874748362;57.259861891452
314.624497790118;57.296250275482
314.646120831874;57.3110220669379
314.667743873629;57.2952612690812
314.689366915385;57.2449576024255
314.710989957141;57.1564134442527
314.732612998896;57.0326259227094
314.754236040652;56.8721673869889
314.775859082408;56.6814275464444
314.797482124163;56.465687223305
314.819105165919;56.2236126482617
314.840728207675;55.968146888665
314.862351249431;55.7194530708968
314.883974291186;55.4803173199377
314.905597332942;55.2521805841838
314.927220374698;55.0365038812247
314.948843416453;54.8327341983527
314.970466458209;54.6375965483065
314.992089499965;54.4607865640879
315.013712541721;54.3079995412037
315.035335583476;54.1737523286934
315.056958625232;54.0615650110956
315.078581666988;53.9667896313398
315.100204708743;53.876764531284
315.121827750499;53.7951535378199
315.143450792255;53.7331560078331
315.165073834011;53.682179573884
315.186696875766;53.6327979529069
315.208319917522;53.5829099908163
315.229942959278;53.5372532839545
315.251566001033;53.503049406223
315.273189042789;53.4847763153057
315.294812084545;53.4836040013486
315.316435126301;53.5039404916967
315.338058168056;53.5527661515804
315.359681209812;53.6327907669924
315.381304251568;53.7519841352517
315.402927293323;53.9050469045869
315.424550335079;54.0825953117371
315.446173376835;54.282633769163
315.46779641859;54.5067637526932
315.489419460346;54.7511277924191
315.511042502102;55.013533141603
315.532665543858;55.2894189586597
315.554288585613;55.5652722979236
315.575911627369;55.8267035985273
315.597534669125;56.070858796488
315.61915771088;56.2922831879846
315.640780752636;56.4681711193957
315.662403794392;56.5837859136505
315.684026836148;56.6549586143542
315.705649877903;56.7022997853913
315.727272919659;56.7280352397733
315.748895961415;56.7212127525239
315.77051900317;56.6793569022949
315.792142044926;56.6109301662161
315.813765086682;56.5177469046309
315.835388128438;56.4005629686277
315.857011170193;56.2689571929344
315.878634211949;56.1250718172721
315.900257253705;55.9738417986994
315.92188029546;55.8276003542753
315.943503337216;55.6884344200966
315.965126378972;55.5494971371197
315.986749420728;55.4173511116427
316.008372462483;55.300495894099
316.029995504239;55.2054548709426
316.051618545995;55.1236944070466
316.07324158775;55.0487141924419
316.094864629506;54.9889438342663
316.116487671262;54.9443788360979
316.138110713017;54.9042937109298
316.159733754773;54.8614293117527
316.181356796529;54.8141879148637
316.202979838285;54.764148450796
316.22460288004;54.7163271685468
316.246225921796;54.6627049460929
316.267848963552;54.5904964313502
316.289472005307;54.5016442505329
316.311095047063;54.4079645539794
316.332718088819;54.3144732306707
316.354341130575;54.2292979475611
316.37596417233;54.1731869693325
316.397587214086;54.1459723408492
316.419210255842;54.1342285629045
316.440833297597;54.133256453294
316.462456339353;54.148414108331
316.484079381109;54.1849967641478
316.505702422865;54.2387581687823
316.52732546462;54.2915733193848
316.548948506376;54.3235469002194
316.570571548132;54.3292191377413
316.592194589887;54.3133253727687
316.613817631643;54.2839841083525
316.635440673399;54.2448583905071
316.657063715154;54.1912236999273
316.67868675691;54.1170879929624
316.700309798666;54.0238601447186
316.721932840422;53.9186532265065
316.743555882177;53.8134896232141
316.765178923933;53.7169084044891
316.786801965689;53.630393334822
316.808425007444;53.5532633838388
316.8300480492;53.4891543208423
316.851671090956;53.443178797548
316.873294132712;53.4097264724478
316.894917174467;53.3812104552346
316.916540216223;53.3568153072304
316.938163257979;53.336656263967
316.959786299734;53.3165006511608
316.98140934149;53.2877515276365
317.003032383246;53.2465440955816
317.024655425002;53.1980440726885
317.046278466757;53.1433860905913
317.067901508513;53.0780744037091
317.089524550269;53.0004593474777
317.111147592024;52.9202768830665
317.13277063378;52.8464607394323
317.154393675536;52.7846459119693
317.176016717292;52.7336970326776
317.197639759047;52.6946432551016
317.219262800803;52.665358652898
317.240885842559;52.6417528008974
317.262508884314;52.6255027213352
317.28413192607;52.6162541107077
317.305754967826;52.6192089164252
317.327378009581;52.6334957833754
317.349001051337;52.6572251720906
317.370624093093;52.6869269952563
317.392247134849;52.7193525274283
317.413870176604;52.7512526614702
317.43549321836;52.7821934268075
317.457116260116;52.8095792628455
317.478739301871;52.8299816375984
317.500362343627;52.8401844808122
317.521985385383;52.8292652344101
317.543608427139;52.7843263487646
317.565231468894;52.6998508469675
317.58685451065;52.5841787008246
317.608477552406;52.4329877443961
317.630100594161;52.2588572049876
317.651723635917;52.0820647227346
317.673346677673;51.9040953209387
317.694969719429;51.7248441578893
317.716592761184;51.5585111704562
317.73821580294;51.4265082327017
317.759838844696;51.3462168927018
317.781461886451;51.32701379745
317.803084928207;51.3662631542275
317.824707969963;51.4522130771047
317.846331011719;51.5783957737688
317.867954053474;51.7377990569797
317.88957709523;51.9226028051834
317.911200136986;52.1257499960584
317.932823178741;52.3244403131625
317.954446220497;52.4916569619671
317.976069262253;52.6238937431628
317.997692304008;52.72048585595
318.019315345764;52.7826899564211
318.04093838752;52.8074894049918
318.062561429276;52.7892950463894
318.084184471031;52.7332198286454
318.105807512787;52.6519498991562
318.127430554543;52.5590531199444
318.149053596298;52.4625282911554
318.170676638054;52.366464593192
318.19229967981;52.2813313165605
318.213922721566;52.2201099477534
318.235545763321;52.187371879569
318.257168805077;52.1757823649546
318.278791846833;52.1850583119537
318.300414888588;52.2168517853719
318.322037930344;52.2656327871438
318.3436609721;52.3207090603312
318.365284013856;52.3740078884721
318.386907055611;52.4200351459575
318.408530097367;52.4488171503466
318.430153139123;52.456370086896
318.451776180878;52.4414966135561
318.473399222634;52.4031071314496
318.49502226439;52.3389034468905
318.516645306146;52.2488006576585
318.538268347901;52.1425648863244
318.559891389657;52.0243411718765
318.581514431413;51.8972820018521
318.603137473168;51.7650362390954
318.624760514924;51.6274236614924
318.64638355668;51.4820193131012
318.668006598435;51.3274037818926
318.689629640191;51.1655417700063
318.711252681947;50.9919341060899
318.732875723703;50.7972878242231
318.754498765458;50.5800319285984
318.776121807214;50.3452757869305
318.79774484897;50.0893380068836
318.819367890725;49.8066155951624
318.840990932481;49.523982012613
318.862613974237;49.273374182945
318.884237015993;49.0549573526452
318.905860057748;48.8654232637028
318.927483099504;48.7040436113663
318.94910614126;48.572782248378
318.970729183015;48.4762684585106
318.992352224771;48.4160170825675
319.013975266527;48.3926764965378
319.035598308283;48.4067897962624
319.057221350038;48.4599063353229
319.078844391794;48.5424187632581
319.10046743355;48.6442287850804
319.122090475305;48.7649919651161
319.143713517061;48.9038170069902
319.165336558817;49.0548985594538
319.186959600572;49.2169092681536
319.208582642328;49.3957950787338
319.230205684084;49.5855482600578
319.25182872584;49.7648859527416
319.273451767595;49.9252339539903
319.295074809351;50.080272163407
319.316697851107;50.2404718233289
319.338320892862;50.3987045334702
319.359943934618;50.5412088483872
319.381566976374;50.6617120421382
319.40319001813;50.757978327068
319.424813059885;50.8356119324566
319.446436101641;50.8983313241582
319.468059143397;50.9440793065066
319.489682185152;50.9632391270833
319.511305226908;50.9668698123858
319.532928268664;50.9584471363756
319.55455131042;50.9370765291469
319.576174352175;50.8975017534832
319.597797393931;50.8389468369502
319.619420435687;50.7690406974226
319.641043477442;50.695816608812
319.662666519198;50.6200554235268
319.684289560954;50.5391304734268
319.70591260271;50.454015873704
319.727535644465;50.366721941359
319.749158686221;50.2738136940436
319.770781727977;50.1708978294996
319.792404769732;50.0611283931345
319.814027811488;49.949012167682
319.835650853244;49.8392928621974
319.857273894999;49.7289684934289
319.878896936755;49.620447302151
319.900519978511;49.5366591565313
319.922143020267;49.4799923663577
319.943766062022;49.4306333290964
319.965389103778;49.3821674456419
319.987012145534;49.3341306659938
320.008635187289;49.2867038516028
320.030258229045;49.240803891198
320.051881270801;49.2010530562584
320.073504312557;49.1477046566567
320.095127354312;49.0625133940929
320.116750396068;48.957860263506
320.138373437824;48.8420308196721
320.159996479579;48.7092207551965
320.181619521335;48.5487521307307
320.203242563091;48.3593782515559
320.224865604847;48.1615262142289
320.246488646602;47.9729548931702
320.268111688358;47.8074408394669
320.289734730114;47.682444246323
320.311357771869;47.6089021664701
320.332980813625;47.5899362538094
320.354603855381;47.6213967357288
320.376226897137;47.7107981701916
320.397849938892;47.8680863594777
320.419472980648;48.0926444206338
320.441096022404;48.3816295165662
320.462719064159;48.7200944325514
320.484342105915;49.0849112349403
320.505965147671;49.4673870076732
320.527588189426;49.8694213734166
320.549211231182;50.2719822236321
320.570834272938;50.6588383289182
320.592457314694;51.0078876944661
320.614080356449;51.2922682697872
320.635703398205;51.505665232492
320.657326439961;51.6518634043526
320.678949481716;51.7334870920395
320.700572523472;51.7530504591795
320.722195565228;51.7100301091019
320.743818606984;51.6035698393068
320.765441648739;51.4432110647158
320.787064690495;51.2502695398246
320.808687732251;51.0386784060339
320.830310774006;50.811787429276
320.851933815762;50.572382936001
320.873556857518;50.3320460457428
320.895179899274;50.1072075397694
320.916802941029;49.9076908583104
320.938425982785;49.744237074312
320.960049024541;49.6254633246776
320.981672066296;49.5499869964071
321.003295108052;49.5121144916394
321.024918149808;49.5114404860985
321.046541191564;49.5497992875387
321.068164233319;49.6227358543643
321.089787275075;49.7194993559666
321.111410316831;49.8310466665377
321.133033358586;49.9470157473618
321.154656400342;50.0418783496944
321.176279442098;50.0928348378666
321.197902483853;50.0902933903598
321.219525525609;50.03065900953
321.241148567365;49.9068509670171
321.262771609121;49.7081138669327
321.284394650876;49.4289789905205
321.306017692632;49.064040945235
321.327640734388;48.6142893782172
321.349263776143;48.1152475977621
321.370886817899;47.5964479542841
321.392509859655;47.0567435391055
321.414132901411;46.4861797722947
321.435755943166;45.8984261565722
321.457378984922;45.3445599536123
321.479002026678;44.8542457736607
321.500625068433;44.4228562051616
321.522248110189;44.0435483809149
321.543871151945;43.71154025402
321.5654941937;43.4345870416034
321.587117235456;43.2242569031556
321.608740277212;43.0855641779188
321.630363318968;43.0163656473127
321.651986360723;43.0141164665852
321.673609402479;43.0753983471307
321.695232444235;43.195931362168
321.71685548599;43.3602571395115
321.738478527746;43.5486241344657
321.760101569502;43.7545224683303
321.781724611258;43.9723220189422
321.803347653013;44.1796612852144
321.824970694769;44.3544649820249
321.846593736525;44.4899150869435
321.86821677828;44.5851940178288
321.889839820036;44.6336788808233
321.911462861792;44.6254179206984
321.933085903548;44.5665899867112
321.954708945303;44.4748360595449
321.976331987059;44.362512340642
321.997955028815;44.2385512198708
322.01957807057;44.1127274151562
322.041201112326;43.9937334146477
322.062824154082;43.8882293033424
322.084447195838;43.8004235572487
322.106070237593;43.72875368414
322.127693279349;43.6745107401597
322.149316321105;43.6394047707439
322.17093936286;43.6203094444681
322.192562404616;43.6058239409972
322.214185446372;43.5846315085936
322.235808488127;43.5476234445963
322.257431529883;43.486979488066
322.279054571639;43.4085940561756
322.300677613395;43.3179224351873
322.32230065515;43.207733821145
322.343923696906;43.0690823616341
322.365546738662;42.9069493626898
322.387169780417;42.735810140977
322.408792822173;42.5722301258274
322.430415863929;42.4227764261914
322.452038905685;42.291463164375
322.47366194744;42.1907610729152
322.495284989196;42.130050030485
322.516908030952;42.1134157233285
322.538531072707;42.1436669815498
322.560154114463;42.2161080644779
322.581777156219;42.3214212536409
322.603400197975;42.4550451524101
322.62502323973;42.6098956500583
322.646646281486;42.7754082567434
322.668269323242;42.9384217912456
322.689892364997;43.094080086925
322.711515406753;43.2394355398487
322.733138448509;43.3622689451774
322.754761490265;43.4398035836036
322.77638453202;43.4811316386996
322.798007573776;43.4905844825889
322.819630615532;43.465489007811
322.841253657287;43.4055683383853
322.862876699043;43.3149729117718
322.884499740799;43.2024987151958
322.906122782554;43.080774004932
322.92774582431;42.9550185385726
322.949368866066;42.8192357650628
322.970991907822;42.667629590826
322.992614949577;42.5067699268723
323.014237991333;42.3568605082901
323.035861033089;42.2226736969562
323.057484074844;42.0941577872079
323.0791071166;41.966209419546
323.100730158356;41.8420172241311
323.122353200112;41.7237707987836
323.143976241867;41.6078454973037
323.165599283623;41.4888314851322
323.187222325379;41.3548118407143
323.208845367134;41.1932802093053
323.23046840889;41.0031318611836
323.252091450646;40.7864995183215
323.273714492402;40.5339572110704
323.295337534157;40.2508695649873
323.316960575913;39.9583931761524
323.338583617669;39.6668563267103
323.360206659424;39.3707876169317
323.38182970118;39.0653291992774
323.403452742936;38.7761045985111
323.425075784692;38.5172461558231
323.446698826447;38.2887661372621
323.468321868203;38.0931926491694
323.489944909959;37.9417993629402
323.511567951714;37.8466195658808
323.53319099347;37.8030326771564
323.554814035226;37.7982093191011
323.576437076981;37.8316955415304
323.598060118737;37.9114713668163
323.619683160493;38.0339957702026
323.641306202249;38.1863831879495
323.662929244004;38.3596827639658
323.68455228576;38.5545101618506
323.706175327516;38.772094035795
323.727798369271;39.0063317701687
323.749421411027;39.2522582330689
323.771044452783;39.5059055975876
323.792667494539;39.7576456803682
323.814290536294;40.0030632928061
323.83591357805;40.2425053051012
323.857536619806;40.4811117570507
323.879159661561;40.7193536933109
323.900782703317;40.9538050740508
323.922405745073;41.1852603736172
323.944028786829;41.4003588835003
323.965651828584;41.5826388653906
323.98727487034;41.7303161194375
324.008897912096;41.8509927508346
324.030520953851;41.9366995396973
324.052143995607;41.9775670541323
324.073767037363;41.9702937059677
324.095390079118;41.901140632686
324.117013120874;41.7670144326597
324.13863616263;41.5864826537679
324.160259204386;41.3696097180972
324.181882246141;41.1104456228709
324.203505287897;40.8096788558082
324.225128329653;40.4517650356691
324.246751371408;40.0252523865055
324.268374413164;39.551371390138
324.28999745492;39.0700947558271
324.311620496676;38.5689698500451
324.333243538431;38.027185419257
324.354866580187;37.4597685017041
324.376489621943;36.9087304483737
324.398112663698;36.3867016188628
324.419735705454;35.8921368396246
324.44135874721;35.4256925132012
324.462981788966;35.0077471204515
324.484604830721;34.6509537255577
324.506227872477;34.3548801986715
324.527850914233;34.0974564674037
324.549473955988;33.8589509482984
324.571096997744;33.6377090665418
324.5927200395;33.4412594307213
324.614343081256;33.2731358369673
324.635966123011;33.129015020923
324.657589164767;33.0018131851928
324.679212206523;32.8869634311812
324.700835248278;32.7806362808515
324.722458290034;32.6847069836057
324.74408133179;32.6017840294006
324.765704373545;32.5323799987099
324.787327415301;32.480901892149
