Name;BF_ESR_01_Natural_x_gon_40dg_result

Recipe
Accumulations;5;Number of accumulations
RetryCount;0;Number of retries on error
AbortOnError;True;Abort on error
EnableQFactorMeasurement;False;Enable/Disable q-Factor measurement
Bfrom;313;B from
Bto;363;B to
SweepTime;60;Sweep time
Modulation;0.2;Modulation
ModulationFreq;100;Modulation
BHoldEnabled;False;B hold enabled
BHold;0;B hold
MicrowavePower;2;Microwave power
MarkerEnabled;False;
MarkerStartField;0;
MarkerEndField;0;
Mode;;
KineticGFact;0;
KineticTotalTransientTime;0;
KineticTimeResolution;0;
TempFrom;5;
TempUseSlope;False;
TempTo;5;
TempdT;1;
TempSetupTime;0;
GonFrom;0;
GonTo;180;
GonSteps;20;
XRayEnabled;False;
XRayTime;3;
XRayVoltage;40;
XRayCurrent;0.5;
UVEnabled;False;
UVIntensity;0;
UVTime;0;
UVLeadTime;0;
UVWavelength;0;
PowSweepFrom;1;
PowSweepTo;5;
PowSweepSteps;5;
AmpModSweepFrom;0;
AmpModSweepTo;1;
AmpModSweepSteps;10;
ExtTriggerEnabled;False;
ExtTrigLeadTime;0;
ExtTrigOnTime;5;

Meas
BField [mT];MW_Absorption []
313.014987716675;146.219331909431
313.036596434735;146.800508937581
313.058205152795;147.371016657686
313.079813870856;147.924670896893
313.101422588916;148.468147487195
313.123031306976;148.979050749845
313.144640025037;149.444011145358
313.166248743097;149.861273711089
313.187857461157;150.223413686904
313.209466179217;150.536374323162
313.231074897278;150.811950215207
313.252683615338;151.050225383733
313.274292333398;151.2454687137
313.295901051459;151.390953048929
313.317509769519;151.477116184915
313.339118487579;151.501583434369
313.36072720564;151.476588150031
313.3823359237;151.405851671655
313.40394464176;151.276169701522
313.42555335982;151.086883996725
313.447162077881;150.852158917844
313.468770795941;150.581276370874
313.490379514001;150.287832751757
313.511988232062;149.984801953211
313.533596950122;149.680505639905
313.555205668182;149.378880451389
313.576814386242;149.08592591574
313.598423104303;148.820241039182
313.620031822363;148.589895415863
313.641640540423;148.393867798942
313.663249258484;148.240619820919
313.684857976544;148.139341682166
313.706466694604;148.097102536013
313.728075412665;148.113864802925
313.749684130725;148.187496342963
313.771292848785;148.308431723519
313.792901566845;148.453932045554
313.814510284906;148.624047803582
313.836119002966;148.821388461802
313.857727721026;149.051209012655
313.879336439087;149.318368099164
313.900945157147;149.625686092971
313.922553875207;149.97313417804
313.944162593267;150.366563706951
313.965771311328;150.807114244898
313.987380029388;151.281917108595
314.008988747448;151.774149080326
314.030597465509;152.269347488119
314.052206183569;152.768154529853
314.073814901629;153.281001520753
314.095423619689;153.81304587151
314.11703233775;154.365967441583
314.13864105581;154.942738616037
314.16024977387;155.494498267562
314.181858491931;155.983670288762
314.203467209991;156.425658543745
314.225075928051;156.824938649115
314.246684646112;157.18845502543
314.268293364172;157.524961481863
314.289902082232;157.836576880717
314.311510800292;158.123134588992
314.333119518353;158.382452834347
314.354728236413;158.614085236312
314.376336954473;158.819984982948
314.397945672534;159.005956809295
314.419554390594;159.174599532716
314.441163108654;159.32044323199
314.462771826714;159.435584777818
314.484380544775;159.521479507189
314.505989262835;159.579944616412
314.527597980895;159.604937254201
314.549206698956;159.60210144384
314.570815417016;159.587860125312
314.592424135076;159.558821573072
314.614032853136;159.515399711433
314.635641571197;159.469078317176
314.657250289257;159.419525169947
314.678859007317;159.365092306959
314.700467725378;159.318310057481
314.722076443438;159.289565806525
314.743685161498;159.28036754409
314.765293879559;159.297377163504
314.786902597619;159.357840887265
314.808511315679;159.467583839813
314.830120033739;159.600405434571
314.8517287518;159.728894812096
314.87333746986;159.854738287138
314.89494618792;159.983052170623
314.916554905981;160.094082720453
314.938163624041;160.158592393582
314.959772342101;160.168809748236
314.981381060161;160.123687261731
315.002989778222;160.014872639499
315.024598496282;159.835997705994
315.046207214342;159.583720046841
315.067815932403;159.2551601112
315.089424650463;158.857710040177
315.111033368523;158.408856708956
315.132642086583;157.923652009963
315.154250804644;157.403263767256
315.175859522704;156.846845815502
315.197468240764;156.27054169193
315.219076958825;155.681885831252
315.240685676885;155.092237074932
315.262294394945;154.514641611282
315.283903113006;153.953211648383
315.305511831066;153.409174516341
315.327120549126;152.885897437687
315.348729267186;152.381575962829
315.370337985247;151.882522349027
315.391946703307;151.365171322417
315.413555421367;150.804190374401
315.435164139428;150.186295437942
315.456772857488;149.514148252425
315.478381575548;148.796036264334
315.499990293608;148.050139421616
315.521599011669;147.282768261804
315.543207729729;146.484398328391
315.564816447789;145.664383950884
315.58642516585;144.826092690027
315.60803388391;143.966633645936
315.62964260197;143.088290856715
315.651251320031;142.190488556902
315.672860038091;141.295621808234
315.694468756151;140.401725948646
315.716077474211;139.504796245002
315.737686192272;138.613667495237
315.759294910332;137.730969645962
315.780903628392;136.876427107685
315.802512346453;136.080633834988
315.824121064513;135.352942042294
315.845729782573;134.675942032891
315.867338500633;134.016917478802
315.888947218694;133.403984451774
315.910555936754;132.871842877176
315.932164654814;132.425213960149
315.953773372875;132.04643815275
315.975382090935;131.70723975243
315.996990808995;131.39214870453
316.018599527055;131.11705039305
316.040208245116;130.886710691999
316.061816963176;130.682605404247
316.083425681236;130.489588186126
316.105034399297;130.298062987292
316.126643117357;130.105372516486
316.148251835417;129.91147796366
316.169860553478;129.71586245825
316.191469271538;129.52050498201
316.213077989598;129.325284136141
316.234686707658;129.125409606994
316.256295425719;128.912487210782
316.277904143779;128.689194539934
316.299512861839;128.463246949159
316.3211215799;128.23533889899
316.34273029796;128.013521184999
316.36433901602;127.805902201159
316.38594773408;127.611598902059
316.407556452141;127.428462437422
316.429165170201;127.263476774823
316.450773888261;127.120863279718
316.472382606322;126.99642052766
316.493991324382;126.877294409355
316.515600042442;126.755415186599
316.537208760502;126.641342787028
316.558817478563;126.53983536766
316.580426196623;126.43459371286
316.602034914683;126.299615233225
316.623643632744;126.119984989404
316.645252350804;125.896989851936
316.666861068864;125.64372623912
316.688469786925;125.359845139336
316.710078504985;125.027681243952
316.731687223045;124.636849873779
316.753295941105;124.193965546108
316.774904659166;123.700302433272
316.796513377226;123.143823629771
316.818122095286;122.513842943856
316.839730813347;121.842355242844
316.861339531407;121.162029421172
316.882948249467;120.464616440037
316.904556967527;119.714670635553
316.926165685588;118.923123439241
316.947774403648;118.118070074133
316.969383121708;117.305325532603
316.990991839769;116.477040583521
317.012600557829;115.612250337665
317.034209275889;114.69002194242
317.055817993949;113.716910081468
317.07742671201;112.752886311044
317.09903543007;111.802731388361
317.12064414813;110.849457862654
317.142252866191;109.862089516022
317.163861584251;108.821174592114
317.185470302311;107.784413293285
317.207079020372;106.767605473152
317.228687738432;105.758562675522
317.250296456492;104.782316743196
317.271905174552;103.870418756069
317.293513892613;102.999208598327
317.315122610673;102.127260253693
317.336731328733;101.247149599579
317.358340046794;100.39298358633
317.379948764854;99.5927265213166
317.401557482914;98.8285109113865
317.423166200974;98.0804981561128
317.444774919035;97.3350701487764
317.466383637095;96.6092861245962
317.487992355155;95.8933480160664
317.509601073216;95.1466071721703
317.531209791276;94.3716409475387
317.552818509336;93.6016196082476
317.574427227396;92.8528952954809
317.596035945457;92.1120733619466
317.617644663517;91.3482944565681
317.639253381577;90.5254285610071
317.660862099638;89.6605874253621
317.682470817698;88.7926647792255
317.704079535758;87.9181069295386
317.725688253819;87.0033837230336
317.747296971879;86.0414408854592
317.768905689939;85.0635415441251
317.790514407999;84.0741119830542
317.81212312606;83.0283720870355
317.83373184412;81.9134034444402
317.85534056218;80.782339882072
317.876949280241;79.6925141290391
317.898557998301;78.6630175201839
317.920166716361;77.6645393163043
317.941775434421;76.7009832082669
317.963384152482;75.7974749816547
317.984992870542;74.9467590520078
318.006601588602;74.1348666036493
318.028210306663;73.3623235607416
318.049819024723;72.6372278706866
318.071427742783;71.9631341946805
318.093036460844;71.3189568181282
318.114645178904;70.6835687569369
318.136253896964;70.0600428983062
318.157862615024;69.4708835216822
318.179471333085;68.9321724033945
318.201080051145;68.4358650712271
318.222688769205;67.9738697799631
318.244297487266;67.5515558753102
318.265906205326;67.1825995698758
318.287514923386;66.8794059526673
318.309123641446;66.6418364113346
318.330732359507;66.4611447020378
318.352341077567;66.332975182301
318.373949795627;66.2481678131865
318.395558513688;66.1971899698637
318.417167231748;66.1696019061951
318.438775949808;66.1623989572608
318.460384667868;66.1753887289182
318.481993385929;66.2006891081978
318.503602103989;66.2328886007875
318.525210822049;66.2687733105858
318.54681954011;66.298609889619
318.56842825817;66.316188300228
318.59003697623;66.3214452129405
318.611645694291;66.3165913727812
318.633254412351;66.3152720787404
318.654863130411;66.3433186694223
318.676471848471;66.4082489700287
318.698080566532;66.5047482205975
318.719689284592;66.6372252426903
318.741298002652;66.8173464783016
318.762906720713;67.0457913577912
318.784515438773;67.3231695360126
318.806124156833;67.634966232068
318.827732874893;67.9849994443451
318.849341592954;68.3748853209173
318.870950311014;68.7900518447546
318.892559029074;69.2151584880983
318.914167747135;69.6554760142904
318.935776465195;70.1271739538034
318.957385183255;70.6229929520013
318.978993901316;71.1342054392866
319.000602619376;71.655966688568
319.022211337436;72.1782144417453
319.043820055496;72.6947386895609
319.065428773557;73.2063244153852
319.087037491617;73.7106781441518
319.108646209677;74.202625447872
319.130254927738;74.6889273893149
319.151863645798;75.1953900533893
319.173472363858;75.743638330495
319.195081081918;76.3423654735886
319.216689799979;76.965330541306
319.238298518039;77.5773819189948
319.259907236099;78.1990871218637
319.28151595416;78.8649580376415
319.30312467222;79.5655915627588
319.32473339028;80.2797055402201
319.34634210834;81.0214051651988
319.367950826401;81.8028184022451
319.389559544461;82.6019808117579
319.411168262521;83.4193038526695
319.432776980582;84.2884455583718
319.454385698642;85.2029394865698
319.475994416702;86.1264223355001
319.497603134762;87.0367731067917
319.519211852823;87.9412653982564
319.540820570883;88.883994830884
319.562429288943;89.8973168282475
319.584038007004;90.9744316570074
319.605646725064;92.050487009122
319.627255443124;93.0976202540402
319.648864161185;94.1372501675532
319.670472879245;95.2000977401091
319.692081597305;96.2484795218471
319.713690315365;97.2834195211399
319.735299033426;98.3467952692635
319.756907751486;99.4367335088838
319.778516469546;100.48886285581
319.800125187607;101.464489353568
319.821733905667;102.378989413562
319.843342623727;103.255531851517
319.864951341787;104.112336046059
319.886560059848;104.95972631367
319.908168777908;105.789571716536
319.929777495968;106.585007836591
319.951386214029;107.349228342095
319.972994932089;108.095040594237
319.994603650149;108.792360350726
320.016212368209;109.421482253164
320.03782108627;109.986964271269
320.05942980433;110.477209103279
320.08103852239;110.884852905061
320.102647240451;111.219188361835
320.124255958511;111.475975776685
320.145864676571;111.652812890591
320.167473394632;111.756851446372
320.189082112692;111.804891490628
320.210690830752;111.820253888922
320.232299548812;111.818276090924
320.253908266873;111.806986038532
320.275516984933;111.795896713854
320.297125702993;111.799972326259
320.318734421054;111.821275387163
320.340343139114;111.846590198173
320.361951857174;111.867495514258
320.383560575234;111.881350721138
320.405169293295;111.884265674712
320.426778011355;111.86735093065
320.448386729415;111.816901135249
320.469995447476;111.72860251954
320.491604165536;111.606175886333
320.513212883596;111.438150588243
320.534821601657;111.213568219387
320.556430319717;110.930300486441
320.578039037777;110.589996279462
320.599647755837;110.199203701765
320.621256473898;109.767190053511
320.642865191958;109.297644437729
320.664473910018;108.79050464003
320.686082628079;108.253425150229
320.707691346139;107.702026022511
320.729300064199;107.139050439922
320.750908782259;106.562654040167
320.77251750032;105.981633263522
320.79412621838;105.413265782255
320.81573493644;104.870732852766
320.837343654501;104.358644643585
320.858952372561;103.879461610069
320.880561090621;103.427817717321
320.902169808681;102.987995122833
320.923778526742;102.545792968062
320.945387244802;102.096231643496
320.966995962862;101.631101629287
320.988604680923;101.138550836859
321.010213398983;100.613086733353
321.031822117043;100.054916581282
321.053430835104;99.4581041717789
321.075039553164;98.8124062720139
321.096648271224;98.116787531685
321.118256989284;97.3616677671903
321.139865707345;96.5529985779139
321.161474425405;95.7423226842916
321.183083143465;94.9578289248015
321.204691861526;94.1906488314429
321.226300579586;93.4175218218171
321.247909297646;92.6360400205198
321.269518015706;91.8786584994256
321.291126733767;91.1635206707275
321.312735451827;90.4967698472338
321.334344169887;89.9029093130932
321.355952887948;89.3853067270346
321.377561606008;88.9189532383155
321.399170324068;88.5059674752044
321.420779042129;88.1523260516941
321.442387760189;87.8497779139126
321.463996478249;87.5821296038609
321.485605196309;87.3342018792624
321.50721391437;87.0938842963373
321.52882263243;86.8416538563192
321.55043135049;86.5694425866774
321.572040068551;86.2829787598708
321.593648786611;85.9858691806438
321.615257504671;85.6787879224701
321.636866222731;85.3609549063518
321.658474940792;85.0214425611896
321.680083658852;84.6590302164756
321.701692376912;84.2831305242867
321.723301094973;83.8985878287776
321.744909813033;83.5116149906636
321.766518531093;83.1291930810235
321.788127249153;82.7433627403665
321.809735967214;82.3349674871972
321.831344685274;81.8860419307197
321.852953403334;81.387655720177
321.874562121395;80.8321736377105
321.896170839455;80.2283035002411
321.917779557515;79.5934135428917
321.939388275575;78.9183105257286
321.960996993636;78.2053677088025
321.982605711696;77.5020084488467
322.004214429756;76.8016395814795
322.025823147817;76.1082765140748
322.047431865877;75.4108983883427
322.069040583937;74.6981632282586
322.090649301998;73.9794616138338
322.112258020058;73.2905690135269
322.133866738118;72.6522514550473
322.155475456178;72.0752174369453
322.177084174239;71.565051491847
322.198692892299;71.1036128226489
322.220301610359;70.6693298178992
322.24191032842;70.2452240060724
322.26351904648;69.8277172797312
322.28512776454;69.4309256496019
322.3067364826;69.0567024665109
322.328345200661;68.6965825117122
322.349953918721;68.3400344904507
322.371562636781;67.9934839835618
322.393171354842;67.6656029487707
322.414780072902;67.350069246567
322.436388790962;67.041382103745
322.457997509023;66.7449468957628
322.479606227083;66.4729115522178
322.501214945143;66.2319524219891
322.522823663203;66.0189163350844
322.544432381264;65.8232074781086
322.566041099324;65.6310686233267
322.587649817384;65.4290315365024
322.609258535445;65.2093135371859
322.630867253505;64.9775101382828
322.652475971565;64.7323703304403
322.674084689625;64.4593454802837
322.695693407686;64.1449646090493
322.717302125746;63.782019201101
322.738910843806;63.3813136617717
322.760519561867;62.967678503695
322.782128279927;62.5704489243425
322.803736997987;62.188368651771
322.825345716047;61.808195988847
322.846954434108;61.4192929451986
322.868563152168;61.0377003483944
322.890171870228;60.7000327350476
322.911780588289;60.406145067674
322.933389306349;60.1405159827104
322.954998024409;59.9040979754742
322.97660674247;59.7027102876627
322.99821546053;59.53156204014
323.01982417859;59.3865558275085
323.04143289665;59.2617942795883
323.063041614711;59.1532283601123
323.084650332771;59.0584751929744
323.106259050831;58.9734446704757
323.127867768892;58.8951291117755
323.149476486952;58.8216273131919
323.171085205012;58.7511713660315
323.192693923072;58.6803104456187
323.214302641133;58.6053150673088
323.235911359193;58.5296161757415
323.257520077253;58.4590795718716
323.279128795314;58.3979419716296
323.300737513374;58.3417567037949
323.322346231434;58.2951146954966
323.343954949495;58.2674317129705
323.365563667555;58.2497443150306
323.387172385615;58.2310148564281
323.408781103675;58.2052628396867
323.430389821736;58.1755907587286
323.451998539796;58.143293831697
323.473607257856;58.1054064333938
323.495215975917;58.0560031168778
323.516824693977;57.9974791225339
323.538433412037;57.936940208788
323.560042130097;57.8723272849758
323.581650848158;57.8005410205455
323.603259566218;57.7225644950416
323.624868284278;57.6473398491462
323.646477002339;57.5878217950234
323.668085720399;57.5452851152632
323.689694438459;57.510741365466
323.711303156519;57.4857552003207
323.73291187458;57.4778986365345
323.75452059264;57.4876208586648
323.7761293107;57.5166844837613
323.797738028761;57.5699065272279
323.819346746821;57.6389445783041
323.840955464881;57.7078358248332
323.862564182942;57.7601304033894
323.884172901002;57.79774393953
323.905781619062;57.8301627753736
323.927390337122;57.8612828436172
323.948999055183;57.883056876714
323.970607773243;57.8755717313816
323.992216491303;57.8373960853585
324.013825209364;57.7841468782475
324.035433927424;57.7257194442886
324.057042645484;57.6723506353261
324.078651363544;57.6305309472737
324.100260081605;57.6132407885191
324.121868799665;57.6261755550862
324.143477517725;57.6659046009367
324.165086235786;57.7322830004637
324.186694953846;57.8306787040714
324.208303671906;57.9591326091102
324.229912389966;58.1045949594234
324.251521108027;58.2509767735327
324.273129826087;58.3895674409423
324.294738544147;58.5163339259481
324.316347262208;58.6140300697378
324.337955980268;58.659062030294
324.359564698328;58.6464613172559
324.381173416388;58.5821206689709
324.402782134449;58.4664191052305
324.424390852509;58.2892727219406
324.445999570569;58.0440566025576
324.46760828863;57.7359088649514
324.48921700669;57.3972730938668
324.51082572475;57.0520423048903
324.532434442811;56.7080156428591
324.554043160871;56.3689897626293
324.575651878931;56.0380430601655
324.597260596991;55.7247978044641
324.618869315052;55.4504373878226
324.640478033112;55.2366822816139
324.662086751172;55.0923415354837
324.683695469233;55.0160282071375
324.705304187293;55.002017032523
324.726912905353;55.044752619072
324.748521623413;55.1375218470446
