Name;BF_ESR_01_Natural_Y_gon_80dg_result

Recipe
Accumulations;5;Number of accumulations
RetryCount;0;Number of retries on error
AbortOnError;True;Abort on error
EnableQFactorMeasurement;False;Enable/Disable q-Factor measurement
Bfrom;313;B from
Bto;363;B to
SweepTime;60;Sweep time
Modulation;0.2;Modulation
ModulationFreq;100;Modulation
BHoldEnabled;False;B hold enabled
BHold;0;B hold
MicrowavePower;2;Microwave power
MarkerEnabled;False;
MarkerStartField;0;
MarkerEndField;0;
Mode;;
KineticGFact;0;
KineticTotalTransientTime;0;
KineticTimeResolution;0;
TempFrom;5;
TempUseSlope;False;
TempTo;5;
TempdT;1;
TempSetupTime;0;
GonFrom;0;
GonTo;180;
GonSteps;20;
XRayEnabled;False;
XRayTime;3;
XRayVoltage;40;
XRayCurrent;0.5;
UVEnabled;False;
UVIntensity;0;
UVTime;0;
UVLeadTime;0;
UVWavelength;0;
PowSweepFrom;1;
PowSweepTo;5;
PowSweepSteps;5;
AmpModSweepFrom;0;
AmpModSweepTo;1;
AmpModSweepSteps;10;
ExtTriggerEnabled;False;
ExtTrigLeadTime;0;
ExtTrigOnTime;5;

Meas
BField [mT];MW_Absorption []
313.013631134033;76.957644486762
313.035246158587;76.2272634816738
313.05686118314;75.4159743163465
313.078476207694;74.5392288696626
313.100091232247;73.6006530104261
313.121706256801;72.6122718279564
313.143321281354;71.5873683487901
313.164936305907;70.5514942180297
313.186551330461;69.5504346168123
313.208166355014;68.6287802092922
313.229781379568;67.8058725271936
313.251396404121;67.0932816442359
313.273011428675;66.5193521519665
313.294626453228;66.0985016449902
313.316241477782;65.8149243413323
313.337856502335;65.6509164686652
313.359471526888;65.5995624696792
313.381086551442;65.656374334081
313.402701575995;65.8152736409586
313.424316600549;66.0488138128625
313.445931625102;66.3226123979313
313.467546649656;66.6216258510538
313.489161674209;66.9337925193016
313.510776698763;67.2536705107899
313.532391723316;67.5767147492341
313.554006747869;67.8766422193614
313.575621772423;68.1384172368532
313.597236796976;68.3535021228443
313.61885182153;68.5009749866814
313.640466846083;68.5635742023945
313.662081870637;68.5540932384039
313.68369689519;68.4940012593326
313.705311919744;68.3927087532871
313.726926944297;68.2380886008909
313.748541968851;68.0315699935402
313.770156993404;67.7827777815823
313.791772017957;67.4920787112497
313.813387042511;67.160355203905
313.835002067064;66.8005807851131
313.856617091618;66.4360161287589
313.878232116171;66.0722052182625
313.899847140725;65.6934889303655
313.921462165278;65.2875889901692
313.943077189832;64.8673621097629
313.964692214385;64.4706705869496
313.986307238939;64.1328132210123
314.007922263492;63.8487470703984
314.029537288045;63.5946428128
314.051152312599;63.3542679475875
314.072767337152;63.1195359155892
314.094382361706;62.8921956032297
314.115997386259;62.6704049129329
314.137612410813;62.4507250378115
314.159227435366;62.2279031626732
314.18084245992;61.9920633241742
314.202457484473;61.741995945901
314.224072509026;61.4931274163281
314.24568753358;61.253510359959
314.267302558133;61.025619827275
314.288917582687;60.8089962965377
314.31053260724;60.6056966374825
314.332147631794;60.4307053468338
314.353762656347;60.2915407703695
314.375377680901;60.1733759605053
314.396992705454;60.0613311250503
314.418607730008;59.9648908829557
314.440222754561;59.8907590246925
314.461837779114;59.8290351914257
314.483452803668;59.7641089219607
314.505067828221;59.6922092945636
314.526682852775;59.6182490182454
314.548297877328;59.5486523273896
314.569912901882;59.4843630290003
314.591527926435;59.4254894995142
314.613142950989;59.3790743143748
314.634757975542;59.3485154602982
314.656373000095;59.3221217441245
314.677988024649;59.2940749929637
314.699603049202;59.2656904712363
314.721218073756;59.2402760594781
314.742833098309;59.2297060493038
314.764448122863;59.2456382939499
314.786063147416;59.2701833957116
314.80767817197;59.2832335100038
314.829293196523;59.3008370303365
314.850908221077;59.353099364335
314.87252324563;59.444109977867
314.894138270183;59.5535625288782
314.915753294737;59.673162980513
314.93736831929;59.811498639832
314.958983343844;59.9721611262866
314.980598368397;60.1486583855005
315.002213392951;60.330762453151
315.023828417504;60.5000175800522
315.045443442058;60.638651700298
315.067058466611;60.7383901259425
315.088673491165;60.7983615521216
315.110288515718;60.8153321483734
315.131903540271;60.7779219339452
315.153518564825;60.676438432821
315.175133589378;60.5137762791279
315.196748613932;60.3024419642691
315.218363638485;60.0582987514187
315.239978663039;59.7935591134513
315.261593687592;59.522957941462
315.283208712146;59.2505348631152
315.304823736699;58.9760286008383
315.326438761252;58.7031329317219
315.348053785806;58.4374562434822
315.369668810359;58.1907027060203
315.391283834913;57.9735338677171
315.412898859466;57.7914060683073
315.43451388402;57.644645217385
315.456128908573;57.5364941262053
315.477743933127;57.473376107368
315.49935895768;57.4540288569493
315.520973982234;57.479984576213
315.542589006787;57.5601268019565
315.56420403134;57.6936003411103
315.585819055894;57.8718992377701
315.607434080447;58.092293986399
315.629049105001;58.3384867844866
315.650664129554;58.5875222394843
315.672279154108;58.837586952696
315.693894178661;59.0868977022371
315.715509203215;59.3236085341006
315.737124227768;59.5403949626882
315.758739252321;59.7327693393465
315.780354276875;59.8848263715818
315.801969301428;59.9832452832037
315.823584325982;60.0340328538774
315.845199350535;60.0396911251796
315.866814375089;60.0043591670562
315.888429399642;59.9355155919899
315.910044424196;59.8443011403952
315.931659448749;59.7315045922357
315.953274473303;59.5975246491517
315.974889497856;59.4487144276115
315.996504522409;59.2911728630815
316.018119546963;59.1267224541638
316.039734571516;58.9479035785238
316.06134959607;58.7487788211532
316.082964620623;58.5495223511633
316.104579645177;58.3812210528993
316.12619466973;58.2318557588615
316.147809694284;58.0796482956297
316.169424718837;57.9178237208717
316.19103974339;57.7519206834726
316.212654767944;57.5887370710363
316.234269792497;57.4297447640167
316.255884817051;57.2752969924117
316.277499841604;57.1212970390389
316.299114866158;56.9632840828852
316.320729890711;56.8055844481164
316.342344915265;56.6526405952783
316.363959939818;56.5012503099788
316.385574964372;56.3475289473645
316.407189988925;56.1907234644898
316.428805013478;56.0282712903647
316.450420038032;55.8543765189625
316.472035062585;55.6692828813496
316.493650087139;55.47923665232
316.515265111692;55.2887385952226
316.536880136246;55.0974266247275
316.558495160799;54.9023876662595
316.580110185353;54.7004020954339
316.601725209906;54.4972161704799
316.62334023446;54.3088191448442
316.644955259013;54.1315706438905
316.666570283566;53.9608807945886
316.68818530812;53.8298539507862
316.709800332673;53.7480409994698
316.731415357227;53.6941799179046
316.75303038178;53.6601963823541
316.774645406334;53.650322128925
316.796260430887;53.6731428198384
316.817875455441;53.729707730258
316.839490479994;53.8117148641062
316.861105504547;53.9139654760057
316.882720529101;54.0289793135401
316.904335553654;54.1500406796837
316.925950578208;54.2694037072016
316.947565602761;54.3804631774
316.969180627315;54.485267711159
316.990795651868;54.5847534654481
317.012410676422;54.673679684263
317.034025700975;54.7436211774707
317.055640725529;54.7850884376954
317.077255750082;54.7955312316127
317.098870774635;54.7790449842971
317.120485799189;54.7392690482592
317.142100823742;54.6781932472143
317.163715848296;54.5987466250199
317.185330872849;54.5071687015577
317.206945897403;54.409642683571
317.228560921956;54.3066860370666
317.25017594651;54.1961958805108
317.271790971063;54.0830493137112
317.293405995616;53.9782760987161
317.31502102017;53.8846795282186
317.336636044723;53.8002498638997
317.358251069277;53.7258955924217
317.37986609383;53.662033651308
317.401481118384;53.6030006569828
317.423096142937;53.5421978415702
317.444711167491;53.4780516437172
317.466326192044;53.4091492919416
317.487941216598;53.3399392694693
317.509556241151;53.2678427060073
317.531171265704;53.1874471187663
317.552786290258;53.1004994036141
317.574401314811;53.0210492874567
317.596016339365;52.9566464169156
317.617631363918;52.9024520433709
317.639246388472;52.8571346202448
317.660861413025;52.8191667912646
317.682476437579;52.7904347991065
317.704091462132;52.7689024356354
317.725706486686;52.7462735767084
317.747321511239;52.7182917697799
317.768936535792;52.6870737815296
317.790551560346;52.6455996245965
317.812166584899;52.5754962007545
317.833781609453;52.4639433129514
317.855396634006;52.317552431322
317.87701165856;52.1496040553361
317.898626683113;51.9733213177355
317.920241707667;51.7992724400766
317.94185673222;51.6267623812565
317.963471756773;51.4473019988123
317.985086781327;51.2571489375185
318.00670180588;51.0645159192234
318.028316830434;50.8815856788284
318.049931854987;50.7120830544376
318.071546879541;50.5526304052625
318.093161904094;50.3988548996699
318.114776928648;50.2383053136259
318.136391953201;50.0595368849593
318.158006977755;49.8641788392231
318.179622002308;49.6542331449699
318.201237026861;49.4257062651654
318.222852051415;49.1797455360159
318.244467075968;48.9276516623344
318.266082100522;48.6780250406708
318.287697125075;48.4349389334138
318.309312149629;48.1997514765455
318.330927174182;47.9750363244297
318.352542198736;47.7663023075437
318.374157223289;47.5798640523859
318.395772247842;47.4203657202305
318.417387272396;47.2906489100623
318.439002296949;47.1953017665408
318.460617321503;47.1378556217663
318.482232346056;47.1146035982011
318.50384737061;47.1139036499666
318.525462395163;47.1296070416672
318.547077419717;47.1612121908308
318.56869244427;47.2089304572196
318.590307468824;47.2731148581212
318.611922493377;47.3533242226252
318.63353751793;47.4468806825167
318.655152542484;47.5498188167938
318.676767567037;47.6441238289373
318.698382591591;47.7082000872297
318.719997616144;47.7414890808057
318.741612640698;47.7495130115494
318.763227665251;47.7307371655181
318.784842689805;47.6837450295188
318.806457714358;47.6111260051738
318.828072738911;47.5226729339316
318.849687763465;47.4308876812955
318.871302788018;47.3395165793774
318.892917812572;47.244806262191
318.914532837125;47.1453332397642
318.936147861679;47.0426307393154
318.957762886232;46.9422849409859
318.979377910786;46.8549416234099
319.000992935339;46.7829233731381
319.022607959893;46.7182941575826
319.044222984446;46.6542284345361
319.065838008999;46.5912086838445
319.087453033553;46.5310946826025
319.109068058106;46.4742657121113
319.13068308266;46.4233730182697
319.152298107213;46.3809553057115
319.173913131767;46.3451828941596
319.19552815632;46.3185505059603
319.217143180874;46.3050935134608
319.238758205427;46.3076446423922
319.26037322998;46.3289554497054
319.281988254534;46.3656800413965
319.303603279087;46.4196349153834
319.325218303641;46.4921293778216
319.346833328194;46.5823582110143
319.368448352748;46.6859092721613
319.390063377301;46.7951943612001
319.411678401855;46.9011761338931
319.433293426408;46.9970301867342
319.454908450962;47.0739029286124
319.476523475515;47.1314132461531
319.498138500068;47.1663790378585
319.519753524622;47.1762661312277
319.541368549175;47.1594168988621
319.562983573729;47.1121891301836
319.584598598282;47.0355281343774
319.606213622836;46.9396778668944
319.627828647389;46.830048380923
319.649443671943;46.712244165553
319.671058696496;46.5841012750243
319.69267372105;46.4520818324596
319.714288745603;46.3337865038124
319.735903770156;46.2312413086644
319.75751879471;46.1333580006816
319.779133819263;46.0305300007313
319.800748843817;45.9475204012037
319.82236386837;45.8874220425429
319.843978892924;45.8267688171839
319.865593917477;45.7614415054921
319.887208942031;45.6986875944778
319.908823966584;45.6387367862306
319.930438991137;45.5654818596777
319.952054015691;45.4695915584832
319.973669040244;45.351183078249
319.995284064798;45.2069815773973
320.016899089351;45.0332785486077
320.038514113905;44.8287807399428
320.060129138458;44.5901278589699
320.081744163012;44.3160652548328
320.103359187565;44.0132947394253
320.124974212119;43.6934044516828
320.146589236672;43.3624669543691
320.168204261225;43.0281107054307
320.189819285779;42.6979830727858
320.211434310332;42.3723938927035
320.233049334886;42.0593670514766
320.254664359439;41.7699281546857
320.276279383993;41.5050660773843
320.297894408546;41.256530051712
320.3195094331;41.0134649193188
320.341124457653;40.7801612916105
320.362739482207;40.5694262632531
320.38435450676;40.373937337191
320.405969531313;40.1878980982909
320.427584555867;40.015375121969
320.44919958042;39.8566805512881
320.470814604974;39.7062610562677
320.492429629527;39.5552103246948
320.514044654081;39.4014121991275
320.535659678634;39.2547696688119
320.557274703188;39.1144960729763
320.578889727741;38.9711834882602
320.600504752294;38.8218234643458
320.622119776848;38.6739512530152
320.643734801401;38.5327400910886
320.665349825955;38.4011296213044
320.686964850508;38.2869757362573
320.708579875062;38.1979630043428
320.730194899615;38.1346931833743
320.751809924169;38.0938327664198
320.773424948722;38.0723733986606
320.795039973275;38.0662766534858
320.816654997829;38.0698022603482
320.838270022382;38.0794125533976
320.859885046936;38.0950398781381
320.881500071489;38.1127467662228
320.903115096043;38.1268141974208
320.924730120596;38.1335742222967
320.94634514515;38.136643699565
320.967960169703;38.1461180967396
320.989575194257;38.1689648734653
321.01119021881;38.2115935644494
321.032805243363;38.2799370161297
321.054420267917;38.3769133803737
321.07603529247;38.5036602648197
321.097650317024;38.6628617432332
321.119265341577;38.8554922306453
321.140880366131;39.0781153289269
321.162495390684;39.3316065664735
321.184110415238;39.6075338236599
321.205725439791;39.8833787807755
321.227340464345;40.1474457594573
321.248955488898;40.3997726212272
321.270570513451;40.6308630786004
321.292185538005;40.8210183505596
321.313800562558;40.9590710441016
321.335415587112;41.0432319768091
321.357030611665;41.0712487440402
321.378645636219;41.0363622267538
321.400260660772;40.9360707129545
321.421875685326;40.7692842800391
321.443490709879;40.5465631179392
321.465105734432;40.2861839808705
321.486720758986;40.0197329087241
321.508335783539;39.7666727824131
321.529950808093;39.5222015263724
321.551565832646;39.2896931456487
321.5731808572;39.0807133035568
321.594795881753;38.8903586942603
321.616410906307;38.712545006022
321.63802593086;38.566186411015
321.659640955414;38.4569802366009
321.681255979967;38.3780850979746
321.70287100452;38.3229276946494
321.724486029074;38.2839413530906
321.746101053627;38.2520886534938
321.767716078181;38.2252692717988
321.789331102734;38.2071990479582
321.810946127288;38.1937702024239
321.832561151841;38.1765461616735
321.854176176395;38.1510295284659
321.875791200948;38.119230522933
321.897406225501;38.0767899211667
321.919021250055;38.015908490564
321.940636274608;37.9375383467998
321.962251299162;37.8504532764163
321.983866323715;37.7632005750848
322.005481348269;37.6761737295815
322.027096372822;37.5808711285007
322.048711397376;37.4668579110367
322.070326421929;37.3275128888506
322.091941446483;37.1604995713293
322.113556471036;36.9687856711539
322.135171495589;36.7571926371372
322.156786520143;36.5313674419623
322.178401544696;36.3002512076633
322.20001656925;36.0687861500004
322.221631593803;35.8391964247849
322.243246618357;35.6224132216884
322.26486164291;35.4381698464199
322.286476667464;35.2974092974686
322.308091692017;35.2041030572501
322.329706716571;35.1614229582381
322.351321741124;35.1669787205796
322.372936765677;35.215821689894
322.394551790231;35.3072825741398
322.416166814784;35.4325560603262
322.437781839338;35.5772154774365
322.459396863891;35.735971224224
322.481011888445;35.9014399557406
322.502626912998;36.0549633709695
322.524241937552;36.1927993219568
322.545856962105;36.3164904617391
322.567471986658;36.4233469821975
322.589087011212;36.5111449594599
322.610702035765;36.5861338893932
322.632317060319;36.6571117698155
322.653932084872;36.7343715772279
322.675547109426;36.8147499785126
322.697162133979;36.8967316628183
322.718777158533;36.9894741370071
322.740392183086;37.0992587751853
322.76200720764;37.2193007158959
322.783622232193;37.3365134627485
322.805237256746;37.4430583398236
322.8268522813;37.5330313022024
322.848467305853;37.613687247921
322.870082330407;37.6810836416571
322.89169735496;37.7229644112619
322.913312379514;37.7332128506722
322.934927404067;37.717319686639
322.956542428621;37.6724143362255
322.978157453174;37.5785720560381
322.999772477727;37.4260324483156
323.021387502281;37.2347103007377
323.043002526834;37.0289076406788
323.064617551388;36.8218881172206
323.086232575941;36.6148297453283
323.107847600495;36.4028737086994
323.129462625048;36.1993008910824
323.151077649602;36.0196901414418
323.172692674155;35.8663705448839
323.194307698709;35.73770591732
323.215922723262;35.6294816099898
323.237537747815;35.5382708479354
323.259152772369;35.4578623962472
323.280767796922;35.3871562991657
323.302382821476;35.3257982656386
323.323997846029;35.2736753863581
323.345612870583;35.2279629131304
323.367227895136;35.1868281404653
323.38884291969;35.1535712009896
323.410457944243;35.1263099584002
323.432072968796;35.0954857675263
323.45368799335;35.0578024181186
323.475303017903;35.0206741785376
323.496918042457;34.9894682058473
323.51853306701;34.9614381923347
323.540148091564;34.9230940829476
323.561763116117;34.8724401360568
323.583378140671;34.8129581738243
323.604993165224;34.7291854438307
323.626608189778;34.6104267021834
323.648223214331;34.4725562837121
323.669838238884;34.3119726782775
323.691453263438;34.1150216340028
323.713068287991;33.8773806962587
323.734683312545;33.6175232398399
323.756298337098;33.3360253612609
323.777913361652;33.0232596925065
323.799528386205;32.6885668399843
323.821143410759;32.3456584982645
323.842758435312;32.0118775596356
323.864373459865;31.7041994931505
323.885988484419;31.4276376831935
323.907603508972;31.1750494200812
323.929218533526;30.9471926382808
323.950833558079;30.7523368891858
323.972448582633;30.5873756089909
323.994063607186;30.447164114122
324.01567863174;30.3261672710412
324.037293656293;30.2124114221602
324.058908680847;30.0988821993395
324.0805237054;29.9836269186326
324.102138729953;29.8774967903884
324.123753754507;29.7792881015315
324.14536877906;29.6852074132768
324.166983803614;29.5984489365059
324.188598828167;29.5250898299096
324.210213852721;29.465752033959
324.231828877274;29.4189260266927
324.253443901828;29.3818210393687
324.275058926381;29.3568555673829
324.296673950935;29.3443248655603
324.318288975488;29.3522107951166
324.339904000041;29.3809736014565
324.361519024595;29.4274486165945
324.383134049148;29.4898506651254
324.404749073702;29.5681468341377
324.426364098255;29.6676287538533
324.447979122809;29.7939786409795
324.469594147362;29.9526297035274
324.491209171916;30.1559856666712
324.512824196469;30.3787484348153
324.534439221022;30.5987734512628
324.556054245576;30.8185484887763
324.577669270129;31.0409301562538
324.599284294683;31.2595496501272
324.620899319236;31.450231957454
324.64251434379;31.6170801641075
324.664129368343;31.753321457156
324.685744392897;31.8550198316228
324.70735941745;31.9208417064798
324.728974442004;31.9524204248299
324.750589466557;31.9679607757375
