Name;BF_ESR_01_14400s_X_gon_160dg_result

Recipe
Accumulations;5;Number of accumulations
RetryCount;0;Number of retries on error
AbortOnError;True;Abort on error
EnableQFactorMeasurement;False;Enable/Disable q-Factor measurement
Bfrom;313;B from
Bto;363;B to
SweepTime;60;Sweep time
Modulation;0.2;Modulation
ModulationFreq;100;Modulation
BHoldEnabled;False;B hold enabled
BHold;0;B hold
MicrowavePower;2;Microwave power
MarkerEnabled;False;
MarkerStartField;0;
MarkerEndField;0;
Mode;;
KineticGFact;0;
KineticTotalTransientTime;0;
KineticTimeResolution;0;
TempFrom;5;
TempUseSlope;False;
TempTo;5;
TempdT;1;
TempSetupTime;0;
GonFrom;0;
GonTo;180;
GonSteps;20;
XRayEnabled;False;
XRayTime;3;
XRayVoltage;40;
XRayCurrent;0.5;
UVEnabled;False;
UVIntensity;0;
UVTime;0;
UVLeadTime;0;
UVWavelength;0;
PowSweepFrom;1;
PowSweepTo;5;
PowSweepSteps;5;
AmpModSweepFrom;0;
AmpModSweepTo;1;
AmpModSweepSteps;10;
ExtTriggerEnabled;False;
ExtTrigLeadTime;0;
ExtTrigOnTime;5;

Meas
BField [mT];MW_Absorption []
313.010099716187;156.912427934885
313.031710986992;156.656596956531
313.053322257798;156.289231710463
313.074933528603;155.894375175479
313.096544799409;155.491336714345
313.118156070214;155.107950992328
313.13976734102;154.747450840629
313.161378611825;154.413665426186
313.182989882631;154.113626074513
313.204601153436;153.860988749288
313.226212424242;153.658009165805
313.247823695047;153.512831006394
313.269434965853;153.424317071431
313.291046236659;153.374876282066
313.312657507464;153.350386281933
313.33426877827;153.342213721094
313.355880049075;153.340888136113
313.377491319881;153.333448382698
313.399102590686;153.308736449341
313.420713861492;153.25764561588
313.442325132297;153.170597383215
313.463936403103;153.042083665676
313.485547673908;152.876717430907
313.507158944714;152.682367932748
313.52877021552;152.458598654112
313.550381486325;152.195761409603
313.571992757131;151.890456221073
313.593604027936;151.556873279509
313.615215298742;151.221011168411
313.636826569547;150.89000468896
313.658437840353;150.553167783703
313.680049111158;150.209910947938
313.701660381964;149.87921263753
313.723271652769;149.587495153343
313.744882923575;149.341442593299
313.766494194381;149.141382253334
313.788105465186;148.984948027662
313.809716735992;148.886260159666
313.831328006797;148.833897577912
313.852939277603;148.829158908322
313.874550548408;148.86953410038
313.896161819214;148.941186276119
313.917773090019;149.040410870688
313.939384360825;149.163966856489
313.96099563163;149.294206465296
313.982606902436;149.430990601306
314.004218173242;149.579820910559
314.025829444047;149.747681667
314.047440714853;149.919930463749
314.069051985658;150.081665826069
314.090663256464;150.234569460738
314.112274527269;150.380465792468
314.133885798075;150.515221302455
314.15549706888;150.633486592096
314.177108339686;150.729263807384
314.198719610491;150.798926645335
314.220330881297;150.843157547654
314.241942152103;150.864893282089
314.263553422908;150.863293035668
314.285164693714;150.832051824217
314.306775964519;150.763693429685
314.328387235325;150.650782707831
314.34999850613;150.497908733439
314.371609776936;150.313291186597
314.393221047741;150.086665873409
314.414832318547;149.802070376449
314.436443589352;149.455935795312
314.458054860158;149.05923002402
314.479666130963;148.61381215975
314.501277401769;148.13942185983
314.522888672575;147.645832262189
314.54449994338;147.14278964866
314.566111214186;146.633733309408
314.587722484991;146.135254808945
314.609333755797;145.667534640787
314.630945026602;145.234204844474
314.652556297408;144.873393427979
314.674167568213;144.611849773779
314.695778839019;144.447529031647
314.717390109824;144.361915950242
314.73900138063;144.345304429421
314.760612651436;144.390803984086
314.782223922241;144.492060535643
314.803835193047;144.634198024524
314.825446463852;144.805635228172
314.847057734658;145.011823003096
314.868669005463;145.231467828952
314.890280276269;145.430343564922
314.911891547074;145.593855851795
314.93350281788;145.721242755887
314.955114088685;145.809970320279
314.976725359491;145.851301669765
314.998336630297;145.842095495803
315.019947901102;145.780530714041
315.041559171908;145.668823088141
315.063170442713;145.522778409434
315.084781713519;145.353773314963
315.106392984324;145.163966201518
315.12800425513;144.959404119575
315.149615525935;144.754136729664
315.171226796741;144.554122826028
315.192838067546;144.351269307785
315.214449338352;144.130834983499
315.236060609158;143.884823088316
315.257671879963;143.612919600794
315.279283150769;143.316360525152
315.300894421574;142.994593263384
315.32250569238;142.641253614489
315.344116963185;142.254538799816
315.365728233991;141.855089513525
315.387339504796;141.43552117558
315.408950775602;140.971838045084
315.430562046407;140.442534785973
315.452173317213;139.849996168884
315.473784588018;139.227038444612
315.495395858824;138.5902197042
315.51700712963;137.920852923053
315.538618400435;137.202624565365
315.560229671241;136.457451180582
315.581840942046;135.722105801149
315.603452212852;134.998025317717
315.625063483657;134.267765890171
315.646674754463;133.537125931924
315.668286025268;132.853900199513
315.689897296074;132.24475314431
315.71150856688;131.685950484112
315.733119837685;131.169199862202
315.754731108491;130.724863959709
315.776342379296;130.374793858197
315.797953650102;130.11194873595
315.819564920907;129.927376313679
315.841176191713;129.832212704954
315.862787462518;129.807760860296
315.884398733324;129.830224332152
315.906010004129;129.891271155209
315.927621274935;129.986746298213
315.94923254574;130.122526208229
315.970843816546;130.277942123932
315.992455087352;130.409096837227
316.014066358157;130.504555645705
316.035677628963;130.571849461815
316.057288899768;130.6199831554
316.078900170574;130.654161616957
316.100511441379;130.673129922462
316.122122712185;130.672686187482
316.14373398299;130.642511745962
316.165345253796;130.574507727958
316.186956524601;130.462985711755
316.208567795407;130.304328041026
316.230179066213;130.10759154725
316.251790337018;129.886758351556
316.273401607824;129.640002630682
316.295012878629;129.367961401542
316.316624149435;129.077251434949
316.33823542024;128.767820256215
316.359846691046;128.432023148483
316.381457961851;128.069003671414
316.403069232657;127.705501042638
316.424680503462;127.364664868398
316.446291774268;127.040707682059
316.467903045074;126.715388687549
316.489514315879;126.37400431485
316.511125586685;126.023147779543
316.53273685749;125.671274636272
316.554348128296;125.32710625763
316.575959399101;124.998062816038
316.597570669907;124.664460889617
316.619181940712;124.31720029708
316.640793211518;123.958051829534
316.662404482323;123.59088325952
316.684015753129;123.22068792683
316.705627023934;122.856556125703
316.72723829474;122.504177572427
316.748849565546;122.160021783427
316.770460836351;121.819292488767
316.792072107157;121.479045780214
316.813683377962;121.13456804441
316.835294648768;120.794704755949
316.856905919573;120.461638500093
316.878517190379;120.132244766932
316.900128461184;119.806084505551
316.92173973199;119.481204983324
316.943351002795;119.158960778584
316.964962273601;118.846364725805
316.986573544407;118.544962133417
317.008184815212;118.242738632565
317.029796086018;117.932650046799
317.051407356823;117.615932009145
317.073018627629;117.288605901151
317.094629898434;116.943036070868
317.11624116924;116.587010817147
317.137852440045;116.236963105163
317.159463710851;115.879628690771
317.181074981656;115.498173622896
317.202686252462;115.115571695301
317.224297523268;114.742145184803
317.245908794073;114.384589226602
317.267520064879;114.047116343633
317.289131335684;113.724045368354
317.31074260649;113.408575689954
317.332353877295;113.10244121878
317.353965148101;112.822837998788
317.375576418906;112.574944095104
317.397187689712;112.337144257275
317.418798960517;112.081290513588
317.440410231323;111.790157564949
317.462021502128;111.471204005812
317.483632772934;111.136100218947
317.50524404374;110.768311494082
317.526855314545;110.343565395848
317.548466585351;109.855067038159
317.570077856156;109.315677830053
317.591689126962;108.752007185972
317.613300397767;108.160536359135
317.634911668573;107.511530177316
317.656522939378;106.819327694752
317.678134210184;106.119633536547
317.69974548099;105.430082484427
317.721356751795;104.721202853136
317.742968022601;103.969658411862
317.764579293406;103.209490892957
317.786190564212;102.465373054632
317.807801835017;101.741306861985
317.829413105823;101.029193879497
317.851024376628;100.348130948082
317.872635647434;99.7207506094992
317.894246918239;99.1429295028575
317.915858189045;98.6027940951249
317.93746945985;98.0993436364386
317.959080730656;97.6414840042206
317.980692001462;97.2381156368119
318.002303272267;96.8849575630496
318.023914543073;96.5657846413953
318.045525813878;96.2670654314699
318.067137084684;95.9804770808758
318.088748355489;95.6983339519235
318.110359626295;95.4155465990033
318.1319708971;95.1230304642205
318.153582167906;94.8059445422935
318.175193438711;94.4490096706213
318.196804709517;94.0516157566803
318.218415980323;93.6316772087755
318.240027251128;93.1981497592542
318.261638521934;92.7482313539603
318.283249792739;92.282773075474
318.304861063545;91.8118111577714
318.32647233435;91.3548560450211
318.348083605156;90.9333245184102
318.369694875961;90.558805325463
318.391306146767;90.2351135462321
318.412917417572;89.9721956622586
318.434528688378;89.792953276344
318.456139959184;89.6999802401643
318.477751229989;89.6700306138298
318.499362500795;89.6802998831131
318.5209737716;89.7189525711526
318.542585042406;89.7692028496206
318.564196313211;89.8081978994429
318.585807584017;89.826717651968
318.607418854822;89.8252638852838
318.629030125628;89.8001865139073
318.650641396433;89.7465678487677
318.672252667239;89.668651493725
318.693863938045;89.5799069904466
318.71547520885;89.4765694035559
318.737086479656;89.3533036122822
318.758697750461;89.2138941846841
318.780309021267;89.0788710216813
318.801920292072;88.9538989671869
318.823531562878;88.838869614444
318.845142833683;88.7389926288227
318.866754104489;88.6571956580951
318.888365375294;88.5812761523714
318.9099766461;88.5016611168434
318.931587916905;88.4145935754528
318.953199187711;88.3258746213935
318.974810458517;88.2365913668987
318.996421729322;88.1403722728451
319.018033000128;88.0255114470086
319.039644270933;87.8839719626839
319.061255541739;87.7144897585357
319.082866812544;87.5120755849154
319.10447808335;87.2722285531339
319.126089354155;86.9898713599748
319.147700624961;86.6575669489333
319.169311895766;86.2685775605207
319.190923166572;85.8481327203656
319.212534437378;85.4152445660451
319.234145708183;84.9516377078789
319.255756978989;84.4414267579279
319.277368249794;83.8722310131773
319.2989795206;83.2546174189807
319.320590791405;82.6042971032563
319.342202062211;81.9462725026861
319.363813333016;81.2620298554349
319.385424603822;80.5964848654451
319.407035874627;79.9760930321738
319.428647145433;79.392992722383
319.450258416239;78.8357630608693
319.471869687044;78.2858632866907
319.49348095785;77.7452054300379
319.515092228655;77.2130540975914
319.536703499461;76.6847637159399
319.558314770266;76.1964427357898
319.579926041072;75.7641458830954
319.601537311877;75.3800016083602
319.623148582683;75.0332593779656
319.644759853488;74.7104661795021
319.666371124294;74.4185638492815
319.6879823951;74.1666547563542
319.709593665905;73.9500013986981
319.731204936711;73.7724259498278
319.752816207516;73.6471136718316
319.774427478322;73.56819123636
319.796038749127;73.51671483619
319.817650019933;73.4915936660724
319.839261290738;73.4896971141786
319.860872561544;73.4991224362922
319.882483832349;73.4961731349008
319.904095103155;73.4742691075165
319.925706373961;73.4368004787275
319.947317644766;73.3838177422729
319.968928915572;73.3116032699036
319.990540186377;73.2260890686952
320.012151457183;73.1422317418714
320.033762727988;73.071586577837
320.055373998794;73.0234840535416
320.076985269599;73.0052544206071
320.098596540405;73.0237678676619
320.12020781121;73.0829493849953
320.141819082016;73.1852447433739
320.163430352821;73.3248747653723
320.185041623627;73.4919769920821
320.206652894433;73.6846111432559
320.228264165238;73.8971021757685
320.249875436044;74.1032331256723
320.271486706849;74.2905927784957
320.293097977655;74.4671432289433
320.31470924846;74.6204110962651
320.336320519266;74.7284033908996
320.357931790071;74.7864157244596
320.379543060877;74.803244645358
320.401154331682;74.779577930855
320.422765602488;74.7023560851862
320.444376873294;74.5672417847544
320.465988144099;74.3648522612549
320.487599414905;74.0714232745269
320.50921068571;73.6698167004559
320.530821956516;73.1784080585595
320.552433227321;72.6121210337118
320.574044498127;71.9705551137561
320.595655768932;71.2589382177688
320.617267039738;70.4859756759642
320.638878310543;69.6616649047728
320.660489581349;68.7937954296378
320.682100852155;67.8959788837109
320.70371212296;66.9695893544789
320.725323393766;66.0235811346341
320.746934664571;65.0785826764469
320.768545935377;64.18096570471
320.790157206182;63.372716069582
320.811768476988;62.6464756036706
320.833379747793;61.9843347953037
320.854991018599;61.3929925804206
320.876602289404;60.8790111861941
320.89821356021;60.4377337557454
320.919824831015;60.0591973351605
320.941436101821;59.7239752530284
320.963047372627;59.4064951496174
320.984658643432;59.0981996002854
321.006269914238;58.8085356498397
321.027881185043;58.5414434507755
321.049492455849;58.2892147832595
321.071103726654;58.0335490568868
321.09271499746;57.7620480644519
321.114326268265;57.4990338665214
321.135937539071;57.2776564629286
321.157548809877;57.1137675509405
321.179160080682;57.0055299661624
321.200771351488;56.9527726669881
321.222382622293;56.9648084441983
321.243993893099;57.0610221352448
321.265605163904;57.250759028486
321.28721643471;57.5309265327564
321.308827705515;57.8868155235955
321.330438976321;58.2997302671256
321.352050247126;58.7653593594349
321.373661517932;59.2909162526275
321.395272788737;59.8593969962894
321.416884059543;60.4395420475469
321.438495330349;61.0327423877313
321.460106601154;61.6500454669871
321.48171787196;62.307404056586
321.503329142765;63.0094445643678
321.524940413571;63.7355163310775
321.546551684376;64.4690390823708
321.568162955182;65.2151265304554
321.589774225987;65.9956099425792
321.611385496793;66.8113367635099
321.632996767598;67.6244306936277
321.654608038404;68.4147952714689
321.67621930921;69.1822296850429
321.697830580015;69.926761350281
321.719441850821;70.63330844033
321.741053121626;71.2969736208779
321.762664392432;71.9166683964459
321.784275663237;72.4872692221558
321.805886934043;73.0160004885494
321.827498204848;73.5146307376279
321.849109475654;73.98425125025
321.870720746459;74.4406609560576
321.892332017265;74.9198931438245
321.913943288071;75.4314349104471
321.935554558876;75.9705831425809
321.957165829682;76.5240564907655
321.978777100487;77.0983847988577
322.000388371293;77.7194359551198
322.021999642098;78.4052709174314
322.043610912904;79.1286271869251
322.065222183709;79.8408727508706
322.086833454515;80.532531867992
322.10844472532;81.206491100536
322.130055996126;81.8502983567956
322.151667266932;82.4572961932676
322.173278537737;83.0245496297305
322.194889808543;83.5533523974998
322.216501079348;84.0516425746807
322.238112350154;84.519965687647
322.259723620959;84.9581512255243
322.281334891765;85.3713624203984
322.30294616257;85.7709246457868
322.324557433376;86.1688795076241
322.346168704181;86.5688737214953
322.367779974987;86.9656257411088
322.389391245792;87.3526637512966
322.411002516598;87.7294565560145
322.432613787404;88.0860274755795
322.454225058209;88.399994512205
322.475836329015;88.6662209579326
322.49744759982;88.8806055002582
322.519058870626;89.0343383749076
322.540670141431;89.1287724942414
322.562281412237;89.1689925168954
322.583892683042;89.1620575630473
322.605503953848;89.1141453382471
322.627115224653;89.0437895641517
322.648726495459;88.9740177468728
322.670337766265;88.9173419519795
322.69194903707;88.8834532221357
322.713560307876;88.8795076417123
322.735171578681;88.9123253353141
322.756782849487;88.9833887611299
322.778394120292;89.096935895403
322.800005391098;89.2576257303964
322.821616661903;89.4612530312205
322.843227932709;89.6920135521645
322.864839203514;89.9393428271105
322.88645047432;90.2003137477798
322.908061745126;90.4667303040008
322.929673015931;90.7304656333706
322.951284286737;90.9891072641883
322.972895557542;91.2410438105565
322.994506828348;91.4922696248602
323.016118099153;91.742570612259
323.037729369959;91.9868216351733
323.059340640764;92.2235576658505
323.08095191157;92.4531228139077
323.102563182375;92.6767794205691
323.124174453181;92.888715349171
323.145785723986;93.079988871618
323.167396994792;93.2534597454277
323.189008265598;93.4165781479164
323.210619536403;93.5716289920351
323.232230807209;93.7238179216494
323.253842078014;93.8891026937798
323.27545334882;94.0760452561053
323.297064619625;94.2734777979352
323.318675890431;94.4796843544015
323.340287161236;94.6990316538022
323.361898432042;94.940149406021
323.383509702848;95.2160866824652
323.405120973653;95.5350974186861
323.426732244459;95.8848056187514
323.448343515264;96.2522313180062
323.46995478607;96.6499810811289
323.491566056875;97.0761704549565
323.513177327681;97.5057859278292
323.534788598486;97.9216660126896
323.556399869292;98.3469761154529
323.578011140097;98.8040652448738
323.599622410903;99.2833281738625
323.621233681708;99.7592168572662
323.642844952514;100.225824869225
323.66445622332;100.687108998922
323.686067494125;101.143549092714
323.707678764931;101.591345067371
323.729290035736;102.025940225266
323.750901306542;102.453086593154
323.772512577347;102.883922248889
323.794123848153;103.300046830393
323.815735118958;103.667502196276
323.837346389764;103.983948865733
323.858957660569;104.264128819049
323.880568931375;104.504503085433
323.902180202181;104.696900343787
323.923791472986;104.851118849085
323.945402743792;104.973783571312
323.967014014597;105.061211983753
323.988625285403;105.110080718115
324.010236556208;105.126400794516
324.031847827014;105.107842650024
324.053459097819;105.040498484987
324.075070368625;104.937511515173
324.09668163943;104.814354448027
324.118292910236;104.680209390982
324.139904181042;104.534858276879
324.161515451847;104.385238538824
324.183126722653;104.236091627281
324.204737993458;104.072879607716
324.226349264264;103.875809093793
324.247960535069;103.666496267531
324.269571805875;103.466229577238
324.29118307668;103.26225851297
324.312794347486;103.042334174528
324.334405618291;102.798201600037
324.356016889097;102.519749534913
324.377628159902;102.195613803971
324.399239430708;101.831020721425
324.420850701514;101.440699503419
324.442461972319;101.022040087788
324.464073243125;100.580398149133
324.48568451393;100.126245658847
324.507295784736;99.6540962473987
324.528907055541;99.1485752560402
324.550518326347;98.6016715486114
324.572129597152;98.0226919331463
324.593740867958;97.4333332348293
324.615352138763;96.8275536794958
324.636963409569;96.1859866167711
324.658574680375;95.5154587443765
324.68018595118;94.8423802702374
324.701797221986;94.169650358851
324.723408492791;93.4860730416981
324.745019763597;92.8008466231594
