Name;BF_ESR_01_900s_Z_gon_160dg_result

Recipe
Accumulations;5;Number of accumulations
RetryCount;0;Number of retries on error
AbortOnError;True;Abort on error
EnableQFactorMeasurement;False;Enable/Disable q-Factor measurement
Bfrom;313;B from
Bto;363;B to
SweepTime;60;Sweep time
Modulation;0.2;Modulation
ModulationFreq;100;Modulation
BHoldEnabled;False;B hold enabled
BHold;0;B hold
MicrowavePower;2;Microwave power
MarkerEnabled;False;
MarkerStartField;0;
MarkerEndField;0;
Mode;;
KineticGFact;0;
KineticTotalTransientTime;0;
KineticTimeResolution;0;
TempFrom;5;
TempUseSlope;False;
TempTo;5;
TempdT;1;
TempSetupTime;0;
GonFrom;0;
GonTo;180;
GonSteps;20;
XRayEnabled;False;
XRayTime;3;
XRayVoltage;40;
XRayCurrent;0.5;
UVEnabled;False;
UVIntensity;0;
UVTime;0;
UVLeadTime;0;
UVWavelength;0;
PowSweepFrom;1;
PowSweepTo;5;
PowSweepSteps;5;
AmpModSweepFrom;0;
AmpModSweepTo;1;
AmpModSweepSteps;10;
ExtTriggerEnabled;False;
ExtTrigLeadTime;0;
ExtTrigOnTime;5;

Meas
BField [mT];MW_Absorption []
313.014647903442;65.342835732976
313.036264924958;65.4869444558415
313.057881946473;65.6182227775214
313.079498967988;65.7358268729537
313.101115989503;65.8337420549463
313.122733011019;65.9131507664259
313.144350032534;65.982781287523
313.165967054049;66.0460182643363
313.187584075565;66.1076478472975
313.20920109708;66.1564144070076
313.230818118595;66.1726357242264
313.25243514011;66.1563467454532
313.274052161626;66.1201044309926
313.295669183141;66.0664317839151
313.317286204656;65.9922293151299
313.338903226172;65.8990184152948
313.360520247687;65.7894256565603
313.382137269202;65.6671354712968
313.403754290717;65.5338963232878
313.425371312233;65.3914623152104
313.446988333748;65.2504430178725
313.468605355263;65.1252474878821
313.490222376778;65.0235962012748
313.511839398294;64.9399996513442
313.533456419809;64.8737529258578
313.555073441324;64.8293954024174
313.57669046284;64.8082289312524
313.598307484355;64.8016578196522
313.61992450587;64.8032710024358
313.641541527385;64.8212497820785
313.663158548901;64.8682095458483
313.684775570416;64.9351231538052
313.706392591931;65.0084273139806
313.728009613446;65.0878653614249
313.749626634962;65.1761110758755
313.771243656477;65.2735188137455
313.792860677992;65.3796341029062
313.814477699508;65.4929899675674
313.836094721023;65.6148476133511
313.857711742538;65.7484190883861
313.879328764053;65.8929999481514
313.900945785569;66.0510484844211
313.922562807084;66.2078250432503
313.944179828599;66.3452814608735
313.965796850114;66.4610309837671
313.98741387163;66.5581410298335
314.009030893145;66.6398065732418
314.03064791466;66.7111540067969
314.052264936176;66.7773872563189
314.073881957691;66.8341826103468
314.095498979206;66.87001694061
314.117116000721;66.8920253755129
314.138733022237;66.9182684109261
314.160350043752;66.9529266498823
314.181967065267;66.9953934688057
314.203584086783;67.0437515172822
314.225201108298;67.0975535023761
314.246818129813;67.1508099292602
314.268435151328;67.1994482504162
314.290052172844;67.2422459993665
314.311669194359;67.2796014504175
314.333286215874;67.3036897478009
314.354903237389;67.3014072009458
314.376520258905;67.2727030077833
314.39813728042;67.219545048394
314.419754301935;67.1323247423751
314.441371323451;67.0070448899636
314.462988344966;66.857392669429
314.484605366481;66.6894502927079
314.506222387996;66.4968509243101
314.527839409512;66.271479295881
314.549456431027;66.0162456411
314.571073452542;65.7522929664788
314.592690474058;65.4938431059383
314.614307495573;65.2471968121568
314.635924517088;65.0273913189671
314.657541538603;64.8420994271375
314.679158560119;64.6930274695682
314.700775581634;64.5856866603214
314.722392603149;64.5304750173849
314.744009624664;64.5369486656633
314.76562664618;64.6132380372552
314.787243667695;64.7482743637153
314.80886068921;64.9039968443808
314.830477710726;65.0533362933256
314.852094732241;65.1964837359801
314.873711753756;65.3344697737853
314.895328775271;65.4495142490033
314.916945796787;65.5243865301261
314.938562818302;65.5586708000355
314.960179839817;65.5634802145941
314.981796861332;65.5515766811114
315.003413882848;65.5299940816795
315.025030904363;65.4932775793066
315.046647925878;65.4443161287956
315.068264947394;65.4157301806368
315.089881968909;65.4391108025542
315.111498990424;65.5117784226942
315.133116011939;65.631685289436
315.154733033455;65.7927308086277
315.17635005497;65.9938226827217
315.197967076485;66.2272119390896
315.219584098001;66.4917547503894
315.241201119516;66.7879294046532
315.262818141031;67.1075102775587
315.284435162546;67.4321998886963
315.306052184062;67.7484895459821
315.327669205577;68.054415962714
315.349286227092;68.3405664064006
315.370903248607;68.5993198066173
315.392520270123;68.8302448031333
315.414137291638;69.0395287460081
315.435754313153;69.2325706672218
315.457371334668;69.4059547809562
315.478988356184;69.5564337525133
315.500605377699;69.6784904508411
315.522222399214;69.769441758007
315.54383942073;69.830817232476
315.565456442245;69.8629989903942
315.58707346376;69.8546431920116
315.608690485275;69.8060361353684
315.630307506791;69.7211391884032
315.651924528306;69.6027379953574
315.673541549821;69.4517351732878
315.695158571337;69.2622755435567
315.716775592852;69.0265657078352
315.738392614367;68.7457924753249
315.760009635882;68.425506926518
315.781626657398;68.0675533339238
315.803243678913;67.6995044486591
315.824860700428;67.3344062094042
315.846477721943;66.9639160147551
315.868094743459;66.5911275062392
315.889711764974;66.2314333247105
315.911328786489;65.8866795715093
315.932945808005;65.5433412733023
315.95456282952;65.1935556524425
315.976179851035;64.8414370641583
315.99779687255;64.4988819073528
316.019413894066;64.1900682350744
316.041030915581;63.9169740866798
316.062647937096;63.6827539088084
316.084264958612;63.4906995563258
316.105881980127;63.3360784081382
316.127499001642;63.2086520437384
316.149116023157;63.1059367283881
316.170733044673;63.0315838272508
316.192350066188;62.9880661656168
316.213967087703;62.9746175672099
316.235584109218;62.9907564098241
316.257201130734;63.0383362589388
316.278818152249;63.1050390948629
316.300435173764;63.1886872760829
316.32205219528;63.2992033940962
316.343669216795;63.4482263716066
316.36528623831;63.6395021721326
316.386903259825;63.857304714067
316.408520281341;64.0804284657792
316.430137302856;64.2992205444519
316.451754324371;64.5104847755478
316.473371345886;64.6978684571542
316.494988367402;64.8402118983084
316.516605388917;64.9279480615488
316.538222410432;64.9578274723038
316.559839431948;64.9242921816358
316.581456453463;64.8240054602435
316.603073474978;64.6608840908247
316.624690496493;64.4469127041239
316.646307518009;64.1930606672121
316.667924539524;63.9190628363179
316.689541561039;63.6712821208315
316.711158582555;63.4752362984562
316.73277560407;63.3235936140328
316.754392625585;63.2202721273728
316.7760096471;63.1949793298734
316.797626668616;63.2752794865632
316.819243690131;63.458038076631
316.840860711646;63.7191335898569
316.862477733161;64.0574703946578
316.884094754677;64.4609964724528
316.905711776192;64.8936913957955
316.927328797707;65.3394813890869
316.948945819223;65.7926974010843
316.970562840738;66.2474735148025
316.992179862253;66.6876172589006
317.013796883768;67.0861010253455
317.035413905284;67.4355909813959
317.057030926799;67.749911955795
317.078647948314;68.0456778198094
317.100264969829;68.3324961470993
317.121881991345;68.609600089695
317.14349901286;68.8665927910428
317.165116034375;69.0977975097588
317.186733055891;69.3095215761477
317.208350077406;69.508974399777
317.229967098921;69.7004934674807
317.251584120436;69.8828542739252
317.273201141952;70.0496228906096
317.294818163467;70.1996028089439
317.316435184982;70.3347337019198
317.338052206497;70.4546055882755
317.359669228013;70.5561102363511
317.381286249528;70.6364228678221
317.402903271043;70.7036269877578
317.424520292559;70.7622251778864
317.446137314074;70.8119008916462
317.467754335589;70.8559796868018
317.489371357104;70.8984470684207
317.51098837862;70.9448389518111
317.532605400135;70.9949148690526
317.55422242165;71.047882454974
317.575839443166;71.1025494678518
317.597456464681;71.1588752907406
317.619073486196;71.2180450589075
317.640690507711;71.2789468308031
317.662307529227;71.3388065229737
317.683924550742;71.3949217074566
317.705541572257;71.4403260717638
317.727158593772;71.462553084773
317.748775615288;71.4553604143087
317.770392636803;71.413693780974
317.792009658318;71.3305033201598
317.813626679834;71.1981717917838
317.835243701349;71.0021101279236
317.856860722864;70.7414169368248
317.878477744379;70.4175349585793
317.900094765895;70.0265128970755
317.92171178741;69.5720205777726
317.943328808925;69.0777766593806
317.96494583044;68.5532645582704
317.986562851956;67.9899110862714
318.008179873471;67.400087905104
318.029796894986;66.7954006967538
318.051413916502;66.1919668059247
318.073030938017;65.6175002659186
318.094647959532;65.0587004846101
318.116264981047;64.514381773752
318.137882002563;64.0006509064703
318.159499024078;63.531583866544
318.181116045593;63.1303694883597
318.202733067109;62.8081643479119
318.224350088624;62.566259911914
318.245967110139;62.4075592717041
318.267584131654;62.3292308576192
318.28920115317;62.3275588100133
318.310818174685;62.3984432498644
318.3324351962;62.5372086232491
318.354052217715;62.7432434248702
318.375669239231;63.0177933032158
318.397286260746;63.3483510090276
318.418903282261;63.7113998095332
318.440520303777;64.0931281360413
318.462137325292;64.475757710652
318.483754346807;64.8555315058605
318.505371368322;65.2430543529411
318.526988389838;65.6407849910132
318.548605411353;66.0252053172445
318.570222432868;66.3637329300425
318.591839454383;66.6458091777272
318.613456475899;66.8752936185928
318.635073497414;67.0456291093361
318.656690518929;67.1407362062829
318.678307540445;67.1554727685505
318.69992456196;67.1041391130619
318.721541583475;67.0000928977902
318.74315860499;66.8562978995278
318.764775626506;66.6887202298614
318.786392648021;66.5084996516571
318.808009669536;66.3115053814446
318.829626691051;66.0975503505553
318.851243712567;65.8726964726497
318.872860734082;65.6371981948662
318.894477755597;65.3850273303746
318.916094777113;65.1211847271824
318.937711798628;64.8541779811543
318.959328820143;64.5857565678638
318.980945841658;64.3089088661801
319.002562863174;64.0242880292314
319.024179884689;63.7388979472103
319.045796906204;63.453257031168
319.06741392772;63.1662678326664
319.089030949235;62.8919015124115
319.11064797075;62.6532794577156
319.132264992265;62.453645544379
319.153882013781;62.2884742501255
319.175499035296;62.1676748582931
319.197116056811;62.1021064163675
319.218733078326;62.0929893515511
319.240350099842;62.1383371693595
319.261967121357;62.2357638556484
319.283584142872;62.3835812561935
319.305201164388;62.5668980092372
319.326818185903;62.7634292605702
319.348435207418;62.9539863861964
319.370052228933;63.131483885355
319.391669250449;63.2875265891607
319.413286271964;63.4118389726103
319.434903293479;63.4978391867225
319.456520314994;63.5451607499989
319.47813733651;63.5517093964871
319.499754358025;63.5187642828503
319.52137137954;63.4478407869675
319.542988401056;63.3493886559213
319.564605422571;63.2379768125123
319.586222444086;63.1313405759628
319.607839465601;63.0374778440227
319.629456487117;62.9607919204936
319.651073508632;62.9048827947709
319.672690530147;62.8677862224684
319.694307551663;62.8405276677743
319.715924573178;62.8266520635975
319.737541594693;62.8385497569397
319.759158616208;62.8734345726934
319.780775637724;62.9146790243808
319.802392659239;62.9438320181049
319.824009680754;62.9482450147183
319.845626702269;62.9238255601632
319.867243723785;62.8715437770848
319.8888607453;62.7952794511999
319.910477766815;62.6959839367105
319.932094788331;62.5697691928201
319.953711809846;62.4099715601309
319.975328831361;62.2187450667841
319.996945852876;62.0053088477041
320.018562874392;61.7730072835041
320.040179895907;61.5302279592586
320.061796917422;61.304059613745
320.083413938938;61.1135116074709
320.105030960453;60.9559574384338
320.126647981968;60.8344633703735
320.148265003483;60.756144761211
320.169882024999;60.7324469568579
320.191499046514;60.770325472399
320.213116068029;60.8705513510499
320.234733089544;61.0414754146048
320.25635011106;61.2976786145433
320.277967132575;61.6312915604318
320.29958415409;62.0069229449262
320.321201175605;62.4064243465261
320.342818197121;62.8186436276684
320.364435218636;63.2297600422281
320.386052240151;63.6328998681626
320.407669261667;64.0158927297697
320.429286283182;64.3783876368356
320.450903304697;64.7277377821773
320.472520326212;65.0514992458388
320.494137347728;65.3384662507044
320.515754369243;65.587804395021
320.537371390758;65.7900503123746
320.558988412274;65.9394964471674
320.580605433789;66.0396060612395
320.602222455304;66.0915876459602
320.623839476819;66.0902354816178
320.645456498335;66.0319218544514
320.66707351985;65.9281236711415
320.688690541365;65.7902535868069
320.71030756288;65.6118265276466
320.731924584396;65.3966093618133
320.753541605911;65.1608888557007
320.775158627426;64.9118077440614
320.796775648942;64.6430185489549
320.818392670457;64.3547682646356
320.840009691972;64.0589964656878
320.861626713487;63.7580263271119
320.883243735003;63.4671648180847
320.904860756518;63.2047821677743
320.926477778033;62.962833984975
320.948094799549;62.7281105718727
320.969711821064;62.4960279628858
320.991328842579;62.269269421743
321.012945864094;62.0477652014335
321.03456288561;61.8267028989782
321.056179907125;61.6000230139683
321.07779692864;61.3632496453112
321.099413950155;61.1112042405334
321.121030971671;60.8279496657155
321.142647993186;60.4951282161651
321.164265014701;60.101757879744
321.185882036217;59.655526140233
321.207499057732;59.1768655616413
321.229116079247;58.6723428778166
321.250733100762;58.1506567929699
321.272350122278;57.6173654162668
321.293967143793;57.0716284723641
321.315584165308;56.5233275822765
321.337201186823;56.0026112368648
321.358818208339;55.5236071473067
321.380435229854;55.0785466882335
321.402052251369;54.6694462605409
321.423669272885;54.3197129961964
321.4452862944;54.0387035032539
321.466903315915;53.8311892307296
321.48852033743;53.7062950105998
321.510137358946;53.659175647429
321.531754380461;53.6830464843422
321.553371401976;53.7734253113865
321.574988423492;53.919205438239
321.596605445007;54.1025899876167
321.618222466522;54.3103257332307
321.639839488037;54.5412674011899
321.661456509553;54.7871245008713
321.683073531068;55.0348135918545
321.704690552583;55.2657782165936
321.726307574098;55.4773217827238
321.747924595614;55.6711888771668
321.769541617129;55.841045828314
321.791158638644;55.9985189836861
321.81277566016;56.1571469589956
321.834392681675;56.3222962182967
321.85600970319;56.4867891867846
321.877626724705;56.6441521127319
321.899243746221;56.7911744779776
321.920860767736;56.9246123904346
321.942477789251;57.044737701812
321.964094810766;57.142157620322
321.985711832282;57.2065068257041
322.007328853797;57.2330355873024
322.028945875312;57.2248597226228
322.050562896828;57.1810173548549
322.072179918343;57.1072499660472
322.093796939858;57.0094431508489
322.115413961373;56.8819703008655
322.137030982889;56.7292958188806
322.158648004404;56.5777422827001
322.180265025919;56.4479315139161
322.201882047434;56.3436727289498
322.22349906895;56.2673358201747
322.245116090465;56.2217017467491
322.26673311198;56.210245420254
322.288350133496;56.2402292360439
322.309967155011;56.314596862027
322.331584176526;56.4293930128822
322.353201198041;56.578287775012
322.374818219557;56.7564982332344
322.396435241072;56.9493685478746
322.418052262587;57.1329382175149
322.439669284103;57.2981029244064
322.461286305618;57.4407629805134
322.482903327133;57.5505845561201
322.504520348648;57.6144223365285
322.526137370164;57.6303143345228
322.547754391679;57.603985037126
322.569371413194;57.5369596834054
322.590988434709;57.4269964845276
322.612605456225;57.2695209055683
322.63422247774;57.0779366814751
322.655839499255;56.8647556703515
322.677456520771;56.6317474957432
322.699073542286;56.3735555665968
322.720690563801;56.0982527906202
322.742307585316;55.8297336073968
322.763924606832;55.5753311108656
322.785541628347;55.3265007154928
322.807158649862;55.083708809208
322.828775671377;54.8574405197184
322.850392692893;54.6593067249776
322.872009714408;54.492935880945
322.893626735923;54.353192094442
322.915243757439;54.2353195493515
322.936860778954;54.1427659680611
322.958477800469;54.08154957487
322.980094821984;54.0573475688855
323.0017118435;54.0659941485578
323.023328865015;54.1053823903598
323.04494588653;54.1797677182901
323.066562908046;54.2874658489472
323.088179929561;54.4203026707477
323.109796951076;54.5710814560464
323.131413972591;54.7358042705809
323.153030994107;54.9068956076186
323.174648015622;55.0745431746437
323.196265037137;55.2305010990595
323.217882058652;55.3689013564404
323.239499080168;55.4888174226976
323.261116101683;55.5842079233335
323.282733123198;55.6516850969002
323.304350144714;55.7059407931794
323.325967166229;55.7528101639846
323.347584187744;55.7828666725248
323.369201209259;55.7918904794435
323.390818230775;55.7817892227019
323.41243525229;55.7576621413893
323.434052273805;55.7249803015841
323.45566929532;55.6847650299563
323.477286316836;55.637128162307
323.498903338351;55.5875796515934
323.520520359866;55.5370366614677
323.542137381382;55.4831015275009
323.563754402897;55.4267199969224
323.585371424412;55.3677386099354
323.606988445927;55.3042819059445
323.628605467443;55.2350028262486
323.650222488958;55.1576419354494
323.671839510473;55.071960196183
323.693456531988;54.9779591005539
323.715073553504;54.8792612474607
323.736690575019;54.7808073306883
323.758307596534;54.6836596669185
323.77992461805;54.5890252716963
323.801541639565;54.4964003112783
323.82315866108;54.4037420272617
323.844775682595;54.318158606024
323.866392704111;54.2436987569412
323.888009725626;54.1794944972058
323.909626747141;54.1217283735091
323.931243768657;54.0683279072259
323.952860790172;54.0180708824324
323.974477811687;53.9656717169559
323.996094833202;53.9070709069272
324.017711854718;53.8407680649453
324.039328876233;53.7625216188805
324.060945897748;53.6627125049937
324.082562919263;53.5336479750637
324.104179940779;53.385554177603
324.125796962294;53.2323011892576
324.147413983809;53.081806554531
324.169031005325;52.939527181772
324.19064802684;52.8027708588494
324.212265048355;52.66124008014
324.23388206987;52.511164468186
324.255499091386;52.3627025364558
324.277116112901;52.2241200027762
324.298733134416;52.100242206157
324.320350155931;51.9907048659021
324.341967177447;51.8897639072762
324.363584198962;51.7957785832564
324.385201220477;51.7075797957194
324.406818241993;51.6215177656718
324.428435263508;51.531324073019
324.450052285023;51.4361807766024
324.471669306538;51.3417203287093
324.493286328054;51.2343066165299
324.514903349569;51.0919750851318
324.536520371084;50.9056038606684
324.5581373926;50.6677940561076
324.579754414115;50.3774234726063
324.60137143563;50.044508613927
324.622988457145;49.683652118083
324.644605478661;49.3035589816256
324.666222500176;48.9073240377891
324.687839521691;48.4964637242698
324.709456543206;48.0720770313868
324.731073564722;47.6399609763403
324.752690586237;47.2017860015335
324.774307607752;46.7658306818225
