Name;BF_ESR_01_14400s_Z_gon_80dg_result

Recipe
Accumulations;5;Number of accumulations
RetryCount;0;Number of retries on error
AbortOnError;True;Abort on error
EnableQFactorMeasurement;False;Enable/Disable q-Factor measurement
Bfrom;313;B from
Bto;363;B to
SweepTime;60;Sweep time
Modulation;0.2;Modulation
ModulationFreq;100;Modulation
BHoldEnabled;False;B hold enabled
BHold;0;B hold
MicrowavePower;2;Microwave power
MarkerEnabled;False;
MarkerStartField;0;
MarkerEndField;0;
Mode;;
KineticGFact;0;
KineticTotalTransientTime;0;
KineticTimeResolution;0;
TempFrom;5;
TempUseSlope;False;
TempTo;5;
TempdT;1;
TempSetupTime;0;
GonFrom;0;
GonTo;180;
GonSteps;20;
XRayEnabled;False;
XRayTime;3;
XRayVoltage;40;
XRayCurrent;0.5;
UVEnabled;False;
UVIntensity;0;
UVTime;0;
UVLeadTime;0;
UVWavelength;0;
PowSweepFrom;1;
PowSweepTo;5;
PowSweepSteps;5;
AmpModSweepFrom;0;
AmpModSweepTo;1;
AmpModSweepSteps;10;
ExtTriggerEnabled;False;
ExtTrigLeadTime;0;
ExtTrigOnTime;5;

Meas
BField [mT];MW_Absorption []
313.017432785034;52.470515881014
313.039053141661;52.1094323140782
313.060673498288;51.6495231481198
313.082293854915;51.1753800184425
313.103914211542;50.6927853543936
313.125534568169;50.236166741002
313.147154924796;49.8285334769375
313.168775281423;49.4838391151999
313.19039563805;49.2003296435889
313.212015994677;48.9649391364918
313.233636351304;48.7824975818991
313.255256707931;48.6924825163721
313.276877064558;48.6956590837835
313.298497421185;48.7820781372533
313.320117777812;48.9388341386531
313.341738134439;49.1370499712957
313.363358491066;49.3652787771601
313.384978847694;49.6257706289457
313.406599204321;49.915649406562
313.428219560948;50.2258760325216
313.449839917575;50.5541857953451
313.471460274202;50.897603658355
313.493080630829;51.2462366453428
313.514700987456;51.5937860196458
313.536321344083;51.9390308395323
313.55794170071;52.2803475284223
313.579562057337;52.6146132106608
313.601182413964;52.9398924233305
313.622802770591;53.2577305279019
313.644423127218;53.5653275515676
313.666043483845;53.8478194671165
313.687663840472;54.0886205109374
313.709284197099;54.2911569025905
313.730904553726;54.4733841749601
313.752524910353;54.6337123503533
313.77414526698;54.7606116749163
313.795765623607;54.8505908226371
313.817385980234;54.9116839131736
313.839006336861;54.9471772952941
313.860626693488;54.9442079727408
313.882247050115;54.8946400631956
313.903867406742;54.800953297979
313.925487763369;54.6873454307011
313.947108119996;54.5786814314003
313.968728476623;54.4786458612426
313.99034883325;54.3773142454393
314.011969189877;54.2825775191543
314.033589546504;54.2000710497203
314.055209903131;54.1404317477362
314.076830259758;54.1175033652341
314.098450616385;54.1327071441838
314.120070973012;54.1751164965727
314.141691329639;54.2375970280101
314.163311686266;54.3217890737634
314.184932042893;54.4268607938826
314.20655239952;54.527907516128
314.228172756147;54.610197674554
314.249793112774;54.6792326234879
314.271413469401;54.7317548040409
314.293033826028;54.755488731616
314.314654182655;54.7406852123123
314.336274539282;54.6811216370278
314.357894895909;54.5816045508246
314.379515252536;54.460096385133
314.401135609163;54.3210273060714
314.42275596579;54.1689808915664
314.444376322417;54.0128057608588
314.465996679044;53.8553309245223
314.487617035671;53.6878153546539
314.509237392298;53.5096890713349
314.530857748925;53.3270105429696
314.552478105553;53.1461130465357
314.57409846218;52.9774332644328
314.595718818807;52.8227443366593
314.617339175434;52.6693584979728
314.638959532061;52.5151072654642
314.660579888688;52.3775850881433
314.682200245315;52.264857698469
314.703820601942;52.1696564008017
314.725440958569;52.0896421974462
314.747061315196;52.0302787751653
314.768681671823;51.9888523741272
314.79030202845;51.9618170271546
314.811922385077;51.9548097160885
314.833542741704;51.9795712293786
314.855163098331;52.0364501106199
314.876783454958;52.118819045049
314.898403811585;52.2232831240682
314.920024168212;52.3528931206348
314.941644524839;52.5091814884351
314.963264881466;52.6936577176928
314.984885238093;52.8927492127737
315.00650559472;53.0904659190973
315.028125951347;53.2753207732773
315.049746307974;53.4394330441715
315.071366664601;53.5781030693306
315.092987021228;53.6865380246716
315.114607377855;53.756745015735
315.136227734482;53.7846343490495
315.157848091109;53.7653380441979
315.179468447736;53.7062977730625
315.201088804363;53.6175920633048
315.22270916099;53.5006785282802
315.244329517617;53.3511961181999
315.265949874244;53.171094965582
315.287570230871;52.9708127856308
315.309190587498;52.7597210537166
315.330810944125;52.5356311459238
315.352431300752;52.3089184050807
315.374051657379;52.0951689580373
315.395672014006;51.8950772995615
315.417292370633;51.704999916014
315.43891272726;51.5244042467418
315.460533083887;51.3595916464576
315.482153440514;51.2206132912439
315.503773797141;51.1134375848846
315.525394153768;51.036626571788
315.547014510395;50.9926162433124
315.568634867022;50.9904778994788
315.590255223649;51.0296896415956
315.611875580276;51.1006948331759
315.633495936903;51.199554598476
315.65511629353;51.3328701136614
315.676736650157;51.499376438178
315.698357006784;51.6816305776569
315.719977363411;51.8638568431973
315.741597720039;52.0364714552648
315.763218076666;52.1902188971401
315.784838433293;52.3104144082975
315.80645878992;52.379644733313
315.828079146547;52.4012968621028
315.849699503174;52.3866125313679
315.871319859801;52.337974130795
315.892940216428;52.2482905092234
315.914560573055;52.127497728804
315.936180929682;51.9917281455179
315.957801286309;51.8566195641199
315.979421642936;51.7233311697462
316.001041999563;51.5964911948699
316.02266235619;51.4891098835375
316.044282712817;51.4139500929512
316.065903069444;51.3828027752371
316.087523426071;51.3770572052912
316.109143782698;51.3917840330304
316.130764139325;51.4349016327642
316.152384495952;51.5027899941455
316.174004852579;51.5873913625344
316.195625209206;51.6847903853693
316.217245565833;51.7964237079068
316.23886592246;51.915983634885
316.260486279087;52.0362241592465
316.282106635714;52.1599749748975
316.303726992341;52.288967335861
316.325347348968;52.4200014006104
316.346967705595;52.5409663832474
316.368588062222;52.6406234788573
316.390208418849;52.7153662463758
316.411828775476;52.7642002733268
316.433449132103;52.7897211184453
316.45506948873;52.7966460844947
316.476689845357;52.7875280571009
316.498310201984;52.7584046485096
316.519930558611;52.7088102554296
316.541550915238;52.6525416115433
316.563171271865;52.6013220453126
316.584791628492;52.5512154617182
316.606411985119;52.4975350339626
316.628032341746;52.4438859279835
316.649652698373;52.3908365954919
316.671273055;52.326932997257
316.692893411627;52.2453879161956
316.714513768254;52.1446592265385
316.736134124881;52.022397853667
316.757754481508;51.8716976009038
316.779374838135;51.6908735070178
316.800995194762;51.4880786335033
316.822615551389;51.2723167663273
316.844235908016;51.0476652936763
316.865856264643;50.8198191904049
316.88747662127;50.5935627688463
316.909096977897;50.3750870182077
316.930717334525;50.1814127779163
316.952337691152;50.0317013483726
316.973958047779;49.9234517239566
316.995578404406;49.848219462689
317.017198761033;49.8079242936248
317.03881911766;49.8101602842926
317.060439474287;49.8481057950365
317.082059830914;49.9107633985972
317.103680187541;49.9931171674335
317.125300544168;50.0923284181308
317.146920900795;50.2111666317597
317.168541257422;50.3448896218708
317.190161614049;50.4751408435798
317.211781970676;50.6027448447924
317.233402327303;50.7336300677974
317.25502268393;50.863650158715
317.276643040557;50.9851664398644
317.298263397184;51.10512629349
317.319883753811;51.2216198969102
317.341504110438;51.3266650188508
317.363124467065;51.4173004194722
317.384744823692;51.4922621079117
317.406365180319;51.5415996114942
317.427985536946;51.5487547258009
317.449605893573;51.5175645086197
317.4712262502;51.4589748218677
317.492846606827;51.3774841995815
317.514466963454;51.2757685567847
317.536087320081;51.1514477716674
317.557707676708;50.9980851632848
317.579328033335;50.8230336352224
317.600948389962;50.6439432666161
317.622568746589;50.4763777400876
317.644189103216;50.3224672016562
317.665809459843;50.1789218157852
317.68742981647;50.049506174101
317.709050173097;49.9445811175174
317.730670529724;49.8592924199417
317.752290886351;49.7970228935494
317.773911242978;49.7535632336431
317.795531599605;49.7248984844018
317.817151956232;49.7130278509824
317.838772312859;49.717344024831
317.860392669486;49.7201958642717
317.882013026113;49.6996875225808
317.90363338274;49.6393158115894
317.925253739367;49.5359331382685
317.946874095994;49.39535073818
317.968494452621;49.2115569298293
317.990114809248;48.9842624122246
318.011735165875;48.7217237043985
318.033355522502;48.4251287218313
318.054975879129;48.0829643479351
318.076596235756;47.6988731938194
318.098216592383;47.3076769977222
318.119836949011;46.9304662359953
318.141457305638;46.5771042896946
318.163077662265;46.2703509907262
318.184698018892;46.021645317068
318.206318375519;45.8214864067476
318.227938732146;45.6625519323084
318.249559088773;45.5466278771932
318.2711794454;45.4717369558599
318.292799802027;45.4370585347982
318.314420158654;45.4453243949307
318.336040515281;45.4960474346908
318.357660871908;45.572719830657
318.379281228535;45.6552645738917
318.400901585162;45.7371801870482
318.422521941789;45.8204802012187
318.444142298416;45.908616530048
318.465762655043;46.0087866077489
318.48738301167;46.1233949372114
318.509003368297;46.2518748170625
318.530623724924;46.3947494536577
318.552244081551;46.5524113526729
318.573864438178;46.7319162782396
318.595484794805;46.9346283318157
318.617105151432;47.1564447763975
318.638725508059;47.3877906120939
318.660345864686;47.6300755364531
318.681966221313;47.8751246224895
318.70358657794;48.1089296962962
318.725206934567;48.3173387194697
318.746827291194;48.493482999514
318.768447647821;48.6290096407512
318.790068004448;48.7112141573335
318.811688361075;48.7336575623875
318.833308717702;48.7000324955849
318.854929074329;48.6200582875996
318.876549430956;48.5055575838576
318.898169787583;48.3686087121821
318.91979014421;48.2194490541688
318.941410500837;48.0591386138207
318.963030857464;47.8843165977182
318.984651214091;47.7239390713923
319.006271570718;47.6072726770233
319.027891927345;47.5259878538693
319.049512283972;47.4747531508973
319.071132640599;47.4507637429915
319.092752997226;47.4501616263709
319.114373353853;47.4631928920583
319.13599371048;47.4843118517195
319.157614067107;47.5185318987046
319.179234423734;47.5677474158051
319.200854780361;47.6216568099712
319.222475136988;47.6756565014055
319.244095493615;47.73411848874
319.265715850242;47.7996237706679
319.28733620687;47.8768587737831
319.308956563497;47.9784711672975
319.330576920124;48.1084574488045
319.352197276751;48.2565471341943
319.373817633378;48.4076007274113
319.395437990005;48.5538919675503
319.417058346632;48.6918180744377
319.438678703259;48.8146557204924
319.460299059886;48.9137275526293
319.481919416513;48.9788865935193
319.50353977314;49.0054999578959
319.525160129767;48.9951787970885
319.546780486394;48.9465229530781
319.568400843021;48.8620079743272
319.590021199648;48.7588926466262
319.611641556275;48.6435103062554
319.633261912902;48.5175140703647
319.654882269529;48.3870454734984
319.676502626156;48.2583252806644
319.698122982783;48.1237363967946
319.71974333941;47.9793735914438
319.741363696037;47.8293980803494
319.762984052664;47.6776997340077
319.784604409291;47.5278973803479
319.806224765918;47.3753229262147
319.827845122545;47.2221121733627
319.849465479172;47.0688751749678
319.871085835799;46.9075404959584
319.892706192426;46.7423513711161
319.914326549053;46.5848090623131
319.93594690568;46.4348942380478
319.957567262307;46.279184596566
319.979187618934;46.1091563620563
320.000807975561;45.9405607181527
320.022428332188;45.788063870119
320.044048688815;45.6628042565768
320.065669045442;45.5655035294539
320.087289402069;45.4928353889299
320.108909758696;45.4577942026227
320.130530115323;45.4677890283555
320.15215047195;45.5148630776548
320.173770828577;45.5870074046476
320.195391185204;45.6883611143983
320.217011541831;45.8272411292085
320.238631898458;46.0118700752189
320.260252255085;46.2497805584978
320.281872611712;46.5412515457992
320.303492968339;46.8713038890741
320.325113324966;47.2211350068402
320.346733681593;47.592370896302
320.36835403822;47.9925823994524
320.389974394847;48.4190251697264
320.411594751474;48.8441601918844
320.433215108101;49.2514750187732
320.454835464728;49.6371869520613
320.476455821356;49.9920244632783
320.498076177983;50.3257450212785
320.51969653461;50.6409092958671
320.541316891237;50.9347232381769
320.562937247864;51.1980793139206
320.584557604491;51.4104019940606
320.606177961118;51.568260360194
320.627798317745;51.6823749241851
320.649418674372;51.7570488019255
320.671039030999;51.7861859223531
320.692659387626;51.7764274317888
320.714279744253;51.7460366505731
320.73590010088;51.7036444176022
320.757520457507;51.6411077885627
320.779140814134;51.5620058986941
320.800761170761;51.4829291692031
320.822381527388;51.414626251965
320.844001884015;51.3556791460662
320.865622240642;51.3028050719782
320.887242597269;51.2562207074502
320.908862953896;51.2169317082689
320.930483310523;51.1741463593605
320.95210366715;51.1083309033189
320.973724023777;51.0062787083076
320.995344380404;50.8736176239169
321.016964737031;50.718526050286
321.038585093658;50.5352642595216
321.060205450285;50.3158254073123
321.081825806912;50.0499987906579
321.103446163539;49.7546165206628
321.125066520166;49.4504028787641
321.146686876793;49.1331287283404
321.16830723342;48.7906185882407
321.189927590047;48.4221299554456
321.211547946674;48.0468313616218
321.233168303301;47.6829655220573
321.254788659928;47.3353981749256
321.276409016555;46.9972059758429
321.298029373182;46.6597840790679
321.319649729809;46.3263551546204
321.341270086436;46.012005117277
321.362890443063;45.7258065696132
321.38451079969;45.4611903848165
321.406131156317;45.2139254259063
321.427751512944;44.984554773669
321.449371869571;44.7694595042495
321.470992226198;44.569242705138
321.492612582825;44.3895862426205
321.514232939452;44.2321280988621
321.535853296079;44.0921937727109
321.557473652706;43.9653462709603
321.579094009333;43.8430101784183
321.60071436596;43.7153979226958
321.622334722587;43.5753134716146
321.643955079214;43.4125795448185
321.665575435842;43.2207976207945
321.687195792469;43.0008449936989
321.708816149096;42.7439690163298
321.730436505723;42.4445869418117
321.75205686235;42.1168819620104
321.773677218977;41.7648709291255
321.795297575604;41.3901755792198
321.816917932231;41.0032362623248
321.838538288858;40.6158375707621
321.860158645485;40.2326956141269
321.881779002112;39.8542473124001
321.903399358739;39.4812637541337
321.925019715366;39.1254624415718
321.946640071993;38.8019801756649
321.96826042862;38.5046894176989
321.989880785247;38.2281309636108
322.011501141874;37.9872391251979
322.033121498501;37.7943669398068
322.054741855128;37.6374589942556
322.076362211755;37.5090182168267
322.097982568382;37.4183911111661
322.119602925009;37.3827582697048
322.141223281636;37.4009460685628
322.162843638263;37.4719149181402
322.18446399489;37.599654904858
322.206084351517;37.7802104979937
322.227704708144;38.0004141933404
322.249325064771;38.246397794791
322.270945421398;38.5079031310538
322.292565778025;38.7840496778105
322.314186134652;39.079989140294
322.335806491279;39.3872930424437
322.357426847906;39.6762816287878
322.379047204533;39.9300585984765
322.40066756116;40.1464898889976
322.422287917787;40.3301579906441
322.443908274414;40.4871477056054
322.465528631041;40.6265828089117
322.487148987668;40.7481765666536
322.508769344295;40.8505960074376
322.530389700922;40.9311140845225
322.552010057549;40.9908464478815
322.573630414176;41.0348359869169
322.595250770803;41.0686009465496
322.61687112743;41.0943689738383
322.638491484057;41.112861894284
322.660111840684;41.1230526833241
322.681732197311;41.1277568431916
322.703352553938;41.1285687096794
322.724972910565;41.1310562455075
322.746593267192;41.1354070878656
322.768213623819;41.1366593227319
322.789833980446;41.132683337327
322.811454337073;41.1336694283178
322.8330746937;41.1549020657805
322.854695050327;41.2013854851997
322.876315406955;41.2649492804439
322.897935763582;41.3336134507018
322.919556120209;41.3999909215108
322.941176476836;41.4689953040331
322.962796833463;41.5409333242481
322.98441719009;41.6033477324149
323.006037546717;41.6509485503021
323.027657903344;41.6822697981595
323.049278259971;41.7016055416091
323.070898616598;41.7170356273844
323.092518973225;41.732519366882
323.114139329852;41.7503412354112
323.135759686479;41.7759233063359
323.157380043106;41.8136750154288
323.179000399733;41.8667046239219
323.20062075636;41.9362119964776
323.222241112987;42.0254943884849
323.243861469614;42.1389616238511
323.265481826241;42.2694102792115
323.287102182868;42.3985148804616
323.308722539495;42.5122242936629
323.330342896122;42.6062596542143
323.351963252749;42.6741220691061
323.373583609376;42.7053793366907
323.395203966003;42.7019777907903
323.41682432263;42.6716494022906
323.438444679257;42.6160777861987
323.460065035884;42.5383307703184
323.481685392511;42.4486622497422
323.503305749138;42.3599582846059
323.524926105765;42.2796904792898
323.546546462392;42.2160463499382
323.568166819019;42.1842856728038
323.589787175646;42.1891091613006
323.611407532273;42.2233996258964
323.6330278889;42.2881030444838
323.654648245527;42.388079475322
323.676268602154;42.5143814009363
323.697888958781;42.6520854391613
323.719509315408;42.7936099395171
323.741129672035;42.9283870809873
323.762750028662;43.0513973862317
323.784370385289;43.1599737418202
323.805990741916;43.2496014922139
323.827611098543;43.3242967747843
323.84923145517;43.3834234478628
323.870851811797;43.4171662697554
323.892472168424;43.433501695582
323.914092525051;43.4417347639497
323.935712881678;43.4472645408169
323.957333238305;43.4446253256192
323.978953594932;43.4305748735509
324.000573951559;43.4112562162849
324.022194308186;43.38869058715
324.043814664813;43.3512355163463
324.065435021441;43.2996010902159
324.087055378068;43.2375074480761
324.108675734695;43.1597371655011
324.130296091322;43.0629579280397
324.151916447949;42.9467514276071
324.173536804576;42.8161331998921
324.195157161203;42.6670042174689
324.21677751783;42.5115343821743
324.238397874457;42.3632717853561
324.260018231084;42.2193457115881
324.281638587711;42.0682245413171
324.303258944338;41.9051824730164
324.324879300965;41.7394315269124
324.346499657592;41.5983227267857
324.368120014219;41.4945996881303
324.389740370846;41.4133316918588
324.411360727473;41.3399430012241
324.4329810841;41.2740100940144
324.454601440727;41.2224261804143
324.476221797354;41.182891293977
324.497842153981;41.1435089907693
324.519462510608;41.0952126769694
324.541082867235;41.0340754335419
324.562703223862;40.9674026560199
324.584323580489;40.9036401218715
324.605943937116;40.8356675737076
324.627564293743;40.7582119771015
324.64918465037;40.6667238571144
324.670805006997;40.5479758393063
324.692425363624;40.3915757227046
324.714045720251;40.1884142399603
324.735666076878;39.9324799113975
324.757286433505;39.6162457507674
