Name;BF_ESR_01_14400s_Z_gon_40dg_result

Recipe
Accumulations;5;Number of accumulations
RetryCount;0;Number of retries on error
AbortOnError;True;Abort on error
EnableQFactorMeasurement;False;Enable/Disable q-Factor measurement
Bfrom;313;B from
Bto;363;B to
SweepTime;60;Sweep time
Modulation;0.2;Modulation
ModulationFreq;100;Modulation
BHoldEnabled;False;B hold enabled
BHold;0;B hold
MicrowavePower;2;Microwave power
MarkerEnabled;False;
MarkerStartField;0;
MarkerEndField;0;
Mode;;
KineticGFact;0;
KineticTotalTransientTime;0;
KineticTimeResolution;0;
TempFrom;5;
TempUseSlope;False;
TempTo;5;
TempdT;1;
TempSetupTime;0;
GonFrom;0;
GonTo;180;
GonSteps;20;
XRayEnabled;False;
XRayTime;3;
XRayVoltage;40;
XRayCurrent;0.5;
UVEnabled;False;
UVIntensity;0;
UVTime;0;
UVLeadTime;0;
UVWavelength;0;
PowSweepFrom;1;
PowSweepTo;5;
PowSweepSteps;5;
AmpModSweepFrom;0;
AmpModSweepTo;1;
AmpModSweepSteps;10;
ExtTriggerEnabled;False;
ExtTrigLeadTime;0;
ExtTrigOnTime;5;

Meas
BField [mT];MW_Absorption []
313.021807479858;77.0687855560703
313.04342367287;76.9763603920167
313.065039865881;76.8945624467773
313.086656058892;76.8364280935266
313.108272251903;76.8176972999375
313.129888444915;76.8452691872207
313.151504637926;76.8973964808302
313.173120830937;76.9601864069708
313.194737023948;77.0296509848558
313.216353216959;77.0990138087312
313.237969409971;77.1499724372131
313.259585602982;77.1785685413728
313.281201795993;77.1937078663352
313.302817989004;77.1863182744798
313.324434182016;77.144720992182
313.346050375027;77.0592809278787
313.367666568038;76.9316841025605
313.389282761049;76.7780730093023
313.41089895406;76.6166398303587
313.432515147072;76.4550295575353
313.454131340083;76.2864260675282
313.475747533094;76.1092295918922
313.497363726105;75.9255154850791
313.518979919117;75.7398610467326
313.540596112128;75.559897159927
313.562212305139;75.3855996617451
313.58382849815;75.2087268377483
313.605444691162;75.018586139429
313.627060884173;74.8107290068805
313.648677077184;74.5767441015049
313.670293270195;74.3151278069535
313.691909463206;74.0353849939666
313.713525656218;73.7506054330457
313.735141849229;73.4678865952796
313.75675804224;73.185677605531
313.778374235251;72.9088006812856
313.799990428263;72.6605571612093
313.821606621274;72.4549188574487
313.843222814285;72.2919875326964
313.864839007296;72.1785106103256
313.886455200308;72.1201037354229
313.908071393319;72.1113304756147
313.92968758633;72.14505501521
313.951303779341;72.2194877434252
313.972919972352;72.3366412437202
313.994536165364;72.4936465565673
314.016152358375;72.6759258897111
314.037768551386;72.868532521332
314.059384744397;73.0629639128104
314.081000937409;73.2466885080742
314.10261713042;73.4135542961555
314.124233323431;73.5665358111771
314.145849516442;73.7104098852994
314.167465709454;73.8460362435796
314.189081902465;73.9700143156525
314.210698095476;74.0768513007231
314.232314288487;74.1587653725721
314.253930481498;74.2172834141277
314.27554667451;74.2598859442842
314.297162867521;74.2894584480108
314.318779060532;74.3016440397414
314.340395253543;74.2966313710523
314.362011446555;74.2828235143938
314.383627639566;74.264120595708
314.405243832577;74.2372928033628
314.426860025588;74.2040820341213
314.448476218599;74.1748602801423
314.470092411611;74.1683816857106
314.491708604622;74.1895719953246
314.513324797633;74.2348658040165
314.534940990644;74.302923275177
314.556557183656;74.4009977358991
314.578173376667;74.5383352677153
314.599789569678;74.7189887149072
314.621405762689;74.9195199393414
314.643021955701;75.1107216366115
314.664638148712;75.2748190421084
314.686254341723;75.4130092739432
314.707870534734;75.5196156356428
314.729486727745;75.5919021272393
314.751102920757;75.6326984880548
314.772719113768;75.6418703714294
314.794335306779;75.6212415160061
314.81595149979;75.5741220756241
314.837567692802;75.5035872243331
314.859183885813;75.4113370256857
314.880800078824;75.311530849276
314.902416271835;75.2094354762449
314.924032464847;75.0943783114457
314.945648657858;74.9455574727768
314.967264850869;74.7748738685873
314.98888104388;74.6104266157574
315.010497236891;74.4596795436053
315.032113429903;74.3151417537113
315.053729622914;74.1730009938459
315.075345815925;74.0353216808458
315.096962008936;73.9084595782738
315.118578201948;73.808812148198
315.140194394959;73.7438717058184
315.16181058797;73.7010101318302
315.183426780981;73.6772576121847
315.205042973992;73.6756066919527
315.226659167004;73.6905179612676
315.248275360015;73.7194553330826
315.269891553026;73.7565445796598
315.291507746037;73.7899711088567
315.313123939049;73.8095767380015
315.33474013206;73.811055049846
315.356356325071;73.7967823736317
315.377972518082;73.7731002249119
315.399588711094;73.7394911433228
315.421204904105;73.6946343469226
315.442821097116;73.6400491828862
315.464437290127;73.5758209725584
315.486053483138;73.4961219284546
315.50766967615;73.3992863024821
315.529285869161;73.2912661144405
315.550902062172;73.1851646942831
315.572518255183;73.0870273222852
315.594134448195;72.991147222555
315.615750641206;72.896119496768
315.637366834217;72.8008694089311
315.658983027228;72.6949599471859
315.68059922024;72.5688647010615
315.702215413251;72.4326350341893
315.723831606262;72.2864314428258
315.745447799273;72.1149069497032
315.767063992284;71.9096125117568
315.788680185296;71.6663897375601
315.810296378307;71.3787445350703
315.831912571318;71.0452374514955
315.853528764329;70.6755657166868
315.875144957341;70.2783104233227
315.896761150352;69.8563615259465
315.918377343363;69.4199096810433
315.939993536374;68.9890285916739
315.961609729385;68.5746938030744
315.983225922397;68.2055710752783
316.004842115408;67.9046757806524
316.026458308419;67.6704861031662
316.04807450143;67.499795316518
316.069690694442;67.3962234714716
316.091306887453;67.3561315251981
316.112923080464;67.3742201140545
316.134539273475;67.4504590571447
316.156155466487;67.5728980417307
316.177771659498;67.7250120242215
316.199387852509;67.9017564345083
316.22100404552;68.1002704970825
316.242620238531;68.3027078340917
316.264236431543;68.4870127961766
316.285852624554;68.6560749876754
316.307468817565;68.8174912570754
316.329085010576;68.9682620124518
316.350701203588;69.0994416399806
316.372317396599;69.2096157874623
316.39393358961;69.3034071202076
316.415549782621;69.3785249968321
316.437165975633;69.4263008268499
316.458782168644;69.4454726167973
316.480398361655;69.4401771460071
316.502014554666;69.4120952738462
316.523630747677;69.3679809280907
316.545246940689;69.3158296824703
316.5668631337;69.2631163810792
316.588479326711;69.214175814482
316.610095519722;69.1721042109324
316.631711712734;69.1515468995696
316.653327905745;69.1642077985268
316.674944098756;69.2070184053771
316.696560291767;69.2728659220438
316.718176484779;69.3534797787218
316.73979267779;69.4442987893777
316.761408870801;69.551438851275
316.783025063812;69.6754978926383
316.804641256823;69.7980734524998
316.826257449835;69.9022245728471
316.847873642846;69.9830748865257
316.869489835857;70.0405613997546
316.891106028868;70.0745342685476
316.91272222188;70.0763085540004
316.934338414891;70.0444906410838
316.955954607902;69.99031924638
316.977570800913;69.9197446819192
316.999186993924;69.8283537042699
317.020803186936;69.7199663279884
317.042419379947;69.6015478451997
317.064035572958;69.4851664272718
317.085651765969;69.3832137832389
317.107267958981;69.2961969630276
317.128884151992;69.2176534003275
317.150500345003;69.1420219862422
317.172116538014;69.0676564740355
317.193732731026;68.9970646057219
317.215348924037;68.922201656037
317.236965117048;68.83566066058
317.258581310059;68.7386795506269
317.28019750307;68.6295843243459
317.301813696082;68.5010785971348
317.323429889093;68.3465428923951
317.345046082104;68.1749583999217
317.366662275115;68.0014958082632
317.388278468127;67.8313151088889
317.409894661138;67.6782151892458
317.431510854149;67.5463940081651
317.45312704716;67.4336007631854
317.474743240172;67.3387748106375
317.496359433183;67.262856901576
317.517975626194;67.208854542548
317.539591819205;67.1799173218589
317.561208012216;67.1697355153398
317.582824205228;67.1756143198821
317.604440398239;67.1964469437065
317.62605659125;67.229695824512
317.647672784261;67.2732713210204
317.669288977273;67.3237590872787
317.690905170284;67.3783029096717
317.712521363295;67.4372401170079
317.734137556306;67.4939452528646
317.755753749317;67.5417851509649
317.777369942329;67.5775299563888
317.79898613534;67.595457013358
317.820602328351;67.5919194052516
317.842218521362;67.5631106970113
317.863834714374;67.5107751383053
317.885450907385;67.4343518364848
317.907067100396;67.3281221597183
317.928683293407;67.1902549441873
317.950299486419;67.0208195777689
317.97191567943;66.8218047084735
317.993531872441;66.6012619343566
318.015148065452;66.3654897685386
318.036764258464;66.1114072036006
318.058380451475;65.8318314424129
318.079996644486;65.5396527912647
318.101612837497;65.2625062947898
318.123229030508;65.0017013167598
318.14484522352;64.7498847908877
318.166461416531;64.5077263322759
318.188077609542;64.2852869439288
318.209693802553;64.0931017674407
318.231309995565;63.9315163635802
318.252926188576;63.8035314985085
318.274542381587;63.7134677452031
318.296158574598;63.6609786087954
318.317774767609;63.6454594510573
318.339390960621;63.6635610603999
318.361007153632;63.7072158850629
318.382623346643;63.7690044858463
318.404239539654;63.8482320404192
318.425855732666;63.9446050114046
318.447471925677;64.0455589105329
318.469088118688;64.1326323947748
318.490704311699;64.192485750047
318.512320504711;64.2202239959059
318.533936697722;64.2105558442775
318.555552890733;64.1586182020829
318.577169083744;64.0658640318033
318.598785276755;63.9337032930854
318.620401469767;63.7562603061098
318.642017662778;63.5327146641047
318.663633855789;63.2716175052859
318.6852500488;62.9981409623688
318.706866241812;62.7391131893749
318.728482434823;62.5033691147636
318.750098627834;62.2902998778471
318.771714820845;62.0997898290671
318.793331013857;61.9385475650305
318.814947206868;61.8109356668729
318.836563399879;61.7203630259564
318.85817959289;61.668485242081
318.879795785901;61.6536852994229
318.901411978913;61.6720078039347
318.923028171924;61.7153733428914
318.944644364935;61.7742413120842
318.966260557946;61.843244652218
318.987876750958;61.9169759091087
319.009492943969;61.9893839610362
319.03110913698;62.0477920483244
319.052725329991;62.0830704968271
319.074341523002;62.0939060082539
319.095957716014;62.0854969265543
319.117573909025;62.0609313677014
319.139190102036;62.025171016965
319.160806295047;61.9813195553816
319.182422488059;61.9315531665881
319.20403868107;61.8807553927647
319.225654874081;61.8316564357937
319.247271067092;61.7862594590728
319.268887260104;61.7514343388463
319.290503453115;61.7296999081037
319.312119646126;61.7151216317494
319.333735839137;61.7043247159591
319.355352032148;61.6979020049118
319.37696822516;61.7013639881182
319.398584418171;61.7130761080159
319.420200611182;61.7203108529354
319.441816804193;61.713391441836
319.463432997205;61.6948784651954
319.485049190216;61.6698447147869
319.506665383227;61.6356471518896
319.528281576238;61.5807513247863
319.54989776925;61.5101101424762
319.571513962261;61.4329224296534
319.593130155272;61.3450215557638
319.614746348283;61.2374341755085
319.636362541294;61.1081921029264
319.657978734306;60.9606398291308
319.679594927317;60.8051663837787
319.701211120328;60.6486965481754
319.722827313339;60.4866239156103
319.744443506351;60.3073845240325
319.766059699362;60.1125322435986
319.787675892373;59.9111016356273
319.809292085384;59.7093962726668
319.830908278396;59.5140557410428
319.852524471407;59.3343535160332
319.874140664418;59.1773862157557
319.895756857429;59.0477897611072
319.91737305044;58.9458852272359
319.938989243452;58.8665911267424
319.960605436463;58.8098182996677
319.982221629474;58.7805527128565
320.003837822485;58.7765489809502
320.025454015497;58.7919212520641
320.047070208508;58.8255021036198
320.068686401519;58.8728536846593
320.09030259453;58.9307369230727
320.111918787541;58.9917634704013
320.133534980553;59.0487648403946
320.155151173564;59.0970980949055
320.176767366575;59.1371747319014
320.198383559586;59.1646828151659
320.219999752598;59.1752055394892
320.241615945609;59.1741775964042
320.26323213862;59.1707455238941
320.284848331631;59.1691571916245
320.306464524643;59.1759634145106
320.328080717654;59.2016518389068
320.349696910665;59.2470873377097
320.371313103676;59.3169523512011
320.392929296687;59.4221654540645
320.414545489699;59.5706480789236
320.43616168271;59.7605248554803
320.457777875721;59.9785293571787
320.479394068732;60.2173436766299
320.501010261744;60.4749056572661
320.522626454755;60.7448831880187
320.544242647766;61.0103623097554
320.565858840777;61.254242723737
320.587475033789;61.459324264882
320.6090912268;61.6066077744117
320.630707419811;61.6890156683944
320.652323612822;61.7124897395093
320.673939805833;61.6787205626225
320.695555998845;61.5842499786167
320.717172191856;61.4316920189495
320.738788384867;61.2269462002311
320.760404577878;60.9874257739077
320.78202077089;60.7313895968382
320.803636963901;60.4725742731152
320.825253156912;60.2204875672831
320.846869349923;59.9779358424796
320.868485542934;59.7399979126581
320.890101735946;59.5034204413177
320.911717928957;59.2793069129272
320.933334121968;59.0756145836409
320.954950314979;58.8840726429143
320.976566507991;58.7058802717381
320.998182701002;58.542195469729
321.019798894013;58.379474628675
321.041415087024;58.2081970904579
321.063031280036;58.0331299766543
321.084647473047;57.8620929867186
321.106263666058;57.6925955673013
321.127879859069;57.518104409707
321.14949605208;57.335195636295
321.171112245092;57.1472386607825
321.192728438103;56.9535222370951
321.214344631114;56.7455543436432
321.235960824125;56.5181089111906
321.257577017137;56.2752120956521
321.279193210148;56.0245505765469
321.300809403159;55.7693881749782
321.32242559617;55.5077479206839
321.344041789182;55.2341375364778
321.365657982193;54.9440893469805
321.387274175204;54.6442367696431
321.408890368215;54.3463274570124
321.430506561226;54.0539828404662
321.452122754238;53.7667449336427
321.473738947249;53.4959136487682
321.49535514026;53.266178117655
321.516971333271;53.0871115320153
321.538587526283;52.9504945661665
321.560203719294;52.8504207231003
321.581819912305;52.79971720915
321.603436105316;52.8086941244711
321.625052298327;52.8566052505759
321.646668491339;52.9313553585182
321.66828468435;53.0318701277205
321.689900877361;53.1525044229998
321.711517070372;53.2793292948321
321.733133263384;53.3953304720333
321.754749456395;53.482667793446
321.776365649406;53.5301098552193
321.797981842417;53.5352419989295
321.819598035429;53.4930814707363
321.84121422844;53.3926340115425
321.862830421451;53.2288560067851
321.884446614462;53.0023214202997
321.906062807473;52.7083118419976
321.927679000485;52.3497486482712
321.949295193496;51.9339547065752
321.970911386507;51.4553392297326
321.992527579518;50.9232015248888
322.01414377253;50.3784594706931
322.035759965541;49.8435886740559
322.057376158552;49.3144048796404
322.078992351563;48.8053572505426
322.100608544575;48.3170614602102
322.122224737586;47.8462139530272
322.143840930597;47.3996943797258
322.165457123608;46.9853095270307
322.187073316619;46.6056893669408
322.208689509631;46.2691393385392
322.230305702642;45.9817888704615
322.251921895653;45.7421101248804
322.273538088664;45.5471949061555
322.295154281676;45.3836415548871
322.316770474687;45.2437616419276
322.338386667698;45.1261049805708
322.360002860709;45.0275958576744
322.381619053721;44.9424605091728
322.403235246732;44.8672224320693
322.424851439743;44.7979655330602
322.446467632754;44.7258808333817
322.468083825765;44.6465895383894
322.489700018777;44.5612649904134
322.511316211788;44.47355826628
322.532932404799;44.383129663002
322.55454859781;44.2837761717271
322.576164790822;44.1798045832233
322.597780983833;44.0756970015227
322.619397176844;43.9765975618862
322.641013369855;43.8904515112922
322.662629562866;43.8259302472073
322.684245755878;43.7944471096039
322.705861948889;43.7976915380819
322.7274781419;43.8398480257907
322.749094334911;43.9175233264249
322.770710527923;44.0172077346827
322.792326720934;44.1331712618061
322.813942913945;44.2654756478444
322.835559106956;44.4088806315292
322.857175299968;44.5445976492173
322.878791492979;44.6589548658824
322.90040768599;44.7498268551436
322.922023879001;44.8169809943517
322.943640072012;44.8597400939846
322.965256265024;44.8747050527201
322.986872458035;44.8617818552732
323.008488651046;44.8269878874944
323.030104844057;44.7807629580429
323.051721037069;44.7330044608858
323.07333723008;44.6908086076594
323.094953423091;44.6548559705539
323.116569616102;44.6251854445159
323.138185809114;44.6074569285109
323.159802002125;44.6023531564573
323.181418195136;44.6092339957403
323.203034388147;44.6303941111985
323.224650581158;44.6608108283037
323.24626677417;44.6854263375836
323.267882967181;44.7023438837746
323.289499160192;44.7131918566514
323.311115353203;44.7191528869617
323.332731546215;44.7138487545437
323.354347739226;44.6916243859885
323.375963932237;44.6503558269424
323.397580125248;44.5897277811954
323.419196318259;44.5078994876592
323.440812511271;44.4034923076983
323.462428704282;44.2795424424032
323.484044897293;44.1469095526929
323.505661090304;44.0149827463396
323.527277283316;43.8786223578902
323.548893476327;43.7180535048734
323.570509669338;43.5284911088183
323.592125862349;43.3071055429293
323.613742055361;43.0571886723378
323.635358248372;42.8068444831078
323.656974441383;42.5661760583604
323.678590634394;42.331481814917
323.700206827406;42.1004859261921
323.721823020417;41.868019487151
323.743439213428;41.6387185635792
323.765055406439;41.4289473841022
323.78667159945;41.2376369076952
323.808287792462;41.0519857794339
323.829903985473;40.861739835128
323.851520178484;40.6608340443217
323.873136371495;40.4538110723924
323.894752564507;40.246377095508
323.916368757518;40.0453972296967
323.937984950529;39.8629937826815
323.95960114354;39.7023617624449
323.981217336551;39.563717379174
324.002833529563;39.4541420242217
324.024449722574;39.3745884981983
324.046065915585;39.3205450457918
324.067682108596;39.2932228923362
324.089298301608;39.2983619243288
324.110914494619;39.3320675240046
324.13253068763;39.391874702346
324.154146880641;39.4714175749921
324.175763073653;39.5602238128176
324.197379266664;39.651231295706
324.218995459675;39.7443033965145
324.240611652686;39.8400684710198
324.262227845697;39.9362025115565
324.283844038709;40.0263723869457
324.30546023172;40.1059096885365
324.327076424731;40.1713745469255
324.348692617742;40.2227311968984
324.370308810754;40.2618070877258
324.391925003765;40.2889507843042
324.413541196776;40.2992027460439
324.435157389787;40.2900136608745
324.456773582799;40.2603323036179
324.47838977581;40.2097361572381
324.500005968821;40.1349515171633
324.521622161832;40.0351014962532
324.543238354843;39.9128969233365
324.564854547855;39.7761363522659
324.586470740866;39.6263460269359
324.608086933877;39.4555670317787
324.629703126888;39.2538447098439
324.6513193199;39.0157586624881
324.672935512911;38.7360304673914
324.694551705922;38.3938291910608
324.716167898933;37.9802542544785
324.737784091944;37.5093732924229
324.759400284956;37.00775321409
