Name;BF_ESR_01_90s_X_gon_0dg_result

Recipe
Accumulations;5;Number of accumulations
RetryCount;0;Number of retries on error
AbortOnError;True;Abort on error
EnableQFactorMeasurement;False;Enable/Disable q-Factor measurement
Bfrom;313;B from
Bto;363;B to
SweepTime;60;Sweep time
Modulation;0.2;Modulation
ModulationFreq;100;Modulation
BHoldEnabled;False;B hold enabled
BHold;0;B hold
MicrowavePower;2;Microwave power
MarkerEnabled;False;
MarkerStartField;0;
MarkerEndField;0;
Mode;;
KineticGFact;0;
KineticTotalTransientTime;0;
KineticTimeResolution;0;
TempFrom;5;
TempUseSlope;False;
TempTo;5;
TempdT;1;
TempSetupTime;0;
GonFrom;0;
GonTo;180;
GonSteps;20;
XRayEnabled;False;
XRayTime;3;
XRayVoltage;40;
XRayCurrent;0.5;
UVEnabled;False;
UVIntensity;0;
UVTime;0;
UVLeadTime;0;
UVWavelength;0;
PowSweepFrom;1;
PowSweepTo;5;
PowSweepSteps;5;
AmpModSweepFrom;0;
AmpModSweepTo;1;
AmpModSweepSteps;10;
ExtTriggerEnabled;False;
ExtTrigLeadTime;0;
ExtTrigOnTime;5;

Meas
BField [mT];MW_Absorption []
313.028315582275;144.303714991502
313.049934003591;144.150660168842
313.071552424908;143.977135561456
313.093170846224;143.797129809298
313.11478926754;143.609311445659
313.136407688856;143.406125041916
313.158026110172;143.183222462017
313.179644531488;142.945042770692
313.201262952804;142.690570277298
313.22288137412;142.425529756857
313.244499795436;142.153343515019
313.266118216752;141.879287385481
313.287736638068;141.628374158796
313.309355059384;141.413371210805
313.3309734807;141.241630587907
313.352591902016;141.104066354572
313.374210323332;140.981623059107
313.395828744648;140.864296612261
313.417447165964;140.755293014629
313.43906558728;140.664682260314
313.460684008596;140.580401763704
313.482302429912;140.481325823181
313.503920851228;140.353528503586
313.525539272544;140.19302496532
313.54715769386;139.996526048676
313.568776115176;139.760906948275
313.590394536493;139.499890589368
313.612012957809;139.216587045536
313.633631379125;138.909086152201
313.655249800441;138.58809973537
313.676868221757;138.25948885616
313.698486643073;137.934579338448
313.720105064389;137.625384624213
313.741723485705;137.348627559848
313.763341907021;137.121053407078
313.784960328337;136.943014344045
313.806578749653;136.810959755144
313.828197170969;136.726206968919
313.849815592285;136.693883839124
313.871434013601;136.704427362167
313.893052434917;136.74665029916
313.914670856233;136.814780237651
313.936289277549;136.90619604984
313.957907698865;137.005175991159
313.979526120181;137.089723259852
314.001144541497;137.160633150564
314.022762962813;137.222493808507
314.044381384129;137.277389906891
314.065999805446;137.322171530016
314.087618226762;137.365840878907
314.109236648078;137.421551856176
314.130855069394;137.497735838096
314.15247349071;137.60484756106
314.174091912026;137.747944188134
314.195710333342;137.93002271096
314.217328754658;138.155352035212
314.238947175974;138.420886550233
314.26056559729;138.715880478459
314.282184018606;139.029894657027
314.303802439922;139.355679076686
314.325420861238;139.685332097685
314.347039282554;140.00051082674
314.36865770387;140.28260198012
314.390276125186;140.526914934519
314.411894546502;140.738856053807
314.433512967818;140.912883712986
314.455131389134;141.038391609804
314.47674981045;141.112917646286
314.498368231766;141.135054584227
314.519986653082;141.097099804107
314.541605074398;141.008900890108
314.563223495715;140.887591053517
314.584841917031;140.731573846851
314.606460338347;140.554594361791
314.628078759663;140.379759640624
314.649697180979;140.219841521938
314.671315602295;140.079474485827
314.692934023611;139.961841747851
314.714552444927;139.875707836922
314.736170866243;139.828746264022
314.757789287559;139.816666833772
314.779407708875;139.838343330623
314.801026130191;139.894655436462
314.822644551507;139.980933770163
314.844262972823;140.085106928729
314.865881394139;140.195885077974
314.887499815455;140.301710042066
314.909118236771;140.394982027353
314.930736658087;140.468707010999
314.952355079403;140.516034535629
314.973973500719;140.536540124886
314.995591922035;140.530983992691
315.017210343351;140.498388454742
315.038828764667;140.44089075966
315.060447185983;140.371943283659
315.0820656073;140.305340562043
315.103684028616;140.244622322327
315.125302449932;140.1969464658
315.146920871248;140.175270484344
315.168539292564;140.182526872976
315.19015771388;140.213387789234
315.211776135196;140.26278634625
315.233394556512;140.328926470517
315.255012977828;140.403769625378
315.276631399144;140.472991881532
315.29824982046;140.531149587532
315.319868241776;140.573194411792
315.341486663092;140.594206876074
315.363105084408;140.594010617551
315.384723505724;140.568494316935
315.40634192704;140.505342633595
315.427960348356;140.402430260613
315.449578769672;140.27575371097
315.471197190988;140.131402427785
315.492815612304;139.966627438002
315.51443403362;139.778109052353
315.536052454936;139.569389672264
315.557670876253;139.350187740912
315.579289297569;139.130322330132
315.600907718885;138.913519336255
315.622526140201;138.699860318739
315.644144561517;138.480386733443
315.665762982833;138.242391266493
315.687381404149;137.992033243974
315.708999825465;137.736503056783
315.730618246781;137.482326793644
315.752236668097;137.240257145299
315.773855089413;137.007058883031
315.795473510729;136.764516415834
315.817091932045;136.505162630561
315.838710353361;136.255548627319
315.860328774677;136.054263323769
315.881947195993;135.903421748432
315.903565617309;135.79269549547
315.925184038625;135.712968611198
315.946802459941;135.658935364162
315.968420881257;135.643407662422
315.990039302573;135.670464977744
316.011657723889;135.72945096432
316.033276145205;135.810345839181
316.054894566522;135.907184985373
316.076512987838;136.013739590335
316.098131409154;136.112323512126
316.11974983047;136.191171259788
316.141368251786;136.248758336893
316.162986673102;136.288775928655
316.184605094418;136.310525410042
316.206223515734;136.31003929301
316.22784193705;136.289628488293
316.249460358366;136.247505548514
316.271078779682;136.183763184379
316.292697200998;136.100345105259
316.314315622314;136.002325390331
316.33593404363;135.902415447698
316.357552464946;135.80452304644
316.379170886262;135.702641507342
316.400789307578;135.590729242538
316.422407728894;135.469316940891
316.44402615021;135.344187325062
316.465644571526;135.217996102932
316.487262992842;135.086745227231
316.508881414158;134.947772564494
316.530499835474;134.80382558932
316.552118256791;134.654166001192
316.573736678107;134.495561225339
316.595355099423;134.326299755617
316.616973520739;134.150547953862
316.638591942055;133.975657487427
316.660210363371;133.801303975331
316.681828784687;133.631494613944
316.703447206003;133.468212102299
316.725065627319;133.304628745697
316.746684048635;133.130286633445
316.768302469951;132.945632834968
316.789920891267;132.752711739009
316.811539312583;132.543395061987
316.833157733899;132.314421864642
316.854776155215;132.059881235665
316.876394576531;131.781127771339
316.898012997847;131.490902650555
316.919631419163;131.206308497636
316.941249840479;130.934561105894
316.962868261795;130.674330583177
316.984486683111;130.427369767878
317.006105104427;130.197947294861
317.027723525744;129.987932479778
317.04934194706;129.793994766368
317.070960368376;129.619335800121
317.092578789692;129.473931938091
317.114197211008;129.356771244708
317.135815632324;129.253179267832
317.15743405364;129.150056409407
317.179052474956;129.047916755584
317.200670896272;128.950899620421
317.222289317588;128.856762214488
317.243907738904;128.772241930534
317.26552616022;128.696552815427
317.287144581536;128.620348539595
317.308763002852;128.53221568795
317.330381424168;128.42835786516
317.351999845484;128.327541430887
317.3736182668;128.249484719416
317.395236688116;128.195667464771
317.416855109432;128.15501896682
317.438473530748;128.125187891006
317.460091952064;128.112698060684
317.48171037338;128.111270231843
317.503328794696;128.110281227974
317.524947216012;128.106803912439
317.546565637329;128.097510114732
317.568184058645;128.077530730417
317.589802479961;128.044967623879
317.611420901277;127.995270280526
317.633039322593;127.922399313237
317.654657743909;127.823612803401
317.676276165225;127.692927046456
317.697894586541;127.519396696254
317.719513007857;127.30277407798
317.741131429173;127.048457989698
317.762749850489;126.755539384129
317.784368271805;126.426470516603
317.805986693121;126.061414935031
317.827605114437;125.656501957875
317.849223535753;125.206410820804
317.870841957069;124.730799787197
317.892460378385;124.247411533197
317.914078799701;123.751664668304
317.935697221017;123.238785240643
317.957315642333;122.729864447629
317.978934063649;122.24876549927
318.000552484965;121.807352161274
318.022170906281;121.397467275611
318.043789327598;121.010111469055
318.065407748914;120.641560325745
318.08702617023;120.296446241636
318.108644591546;119.974771984078
318.130263012862;119.678372765519
318.151881434178;119.420075207657
318.173499855494;119.199489265354
318.19511827681;118.993679576325
318.216736698126;118.793773393006
318.238355119442;118.602949501548
318.259973540758;118.430021811616
318.281591962074;118.278353267501
318.30321038339;118.144774252754
318.324828804706;118.02635977767
318.346447226022;117.920143285545
318.368065647338;117.820021700932
318.389684068654;117.718901622796
318.41130248997;117.606770336604
318.432920911286;117.475169159575
318.454539332602;117.32078248621
318.476157753918;117.141833693263
318.497776175234;116.934880365225
318.519394596551;116.699925994521
318.541013017867;116.444434770363
318.562631439183;116.171652418967
318.584249860499;115.878376578589
318.605868281815;115.564573418919
318.627486703131;115.241720903116
318.649105124447;114.925724027615
318.670723545763;114.62371937784
318.692341967079;114.335249475971
318.713960388395;114.054337063921
318.735578809711;113.781801408887
318.757197231027;113.521319818726
318.778815652343;113.269760793189
318.800434073659;113.023750179653
318.822052494975;112.78086896285
318.843670916291;112.525854664525
318.865289337607;112.251482050977
318.886907758923;111.97312181893
318.908526180239;111.701419209324
318.930144601555;111.438728347428
318.951763022871;111.179493318441
318.973381444187;110.914939288487
318.994999865503;110.651388053378
319.016618286819;110.396995066174
319.038236708136;110.141197973911
319.059855129452;109.876633208087
319.081473550768;109.604219711784
319.103091972084;109.320633229298
319.1247103934;109.018150164151
319.146328814716;108.690904201305
319.167947236032;108.337395081285
319.189565657348;107.948302058919
319.211184078664;107.52017859615
319.23280249998;107.045587499759
319.254420921296;106.532764998429
319.276039342612;106.012932049135
319.297657763928;105.505191897525
319.319276185244;105.008622650597
319.34089460656;104.512738158864
319.362513027876;104.033476981693
319.384131449192;103.582611323566
319.405749870508;103.146681106968
319.427368291824;102.696023124939
319.44898671314;102.223118597795
319.470605134456;101.737200219342
319.492223555772;101.285781732259
319.513841977089;100.867458244841
319.535460398405;100.449171849614
319.557078819721;100.026485588426
319.578697241037;99.6078005085494
319.600315662353;99.2017361224297
319.621934083669;98.8054975269444
319.643552504985;98.3972924883421
319.665170926301;97.9759145161722
319.686789347617;97.5675093515609
319.708407768933;97.18695642339
319.730026190249;96.810264118868
319.751644611565;96.4209111863065
319.773263032881;96.0172121001314
319.794881454197;95.5983862147906
319.816499875513;95.1579254360218
319.838118296829;94.6930520614609
319.859736718145;94.2084215170018
319.881355139461;93.7260908048639
319.902973560777;93.2817191912492
319.924591982093;92.8874124732817
319.946210403409;92.5365897293777
319.967828824725;92.2218582992354
319.989447246041;91.9437411324957
320.011065667358;91.7393577901861
320.032684088674;91.6277924335266
320.05430250999;91.6014442772357
320.075920931306;91.6460571908293
320.097539352622;91.7560645295678
320.119157773938;91.9304256629328
320.140776195254;92.1581910790124
320.16239461657;92.4288273064117
320.184013037886;92.7329921005895
320.205631459202;93.0805633503602
320.227249880518;93.4539005495692
320.248868301834;93.8298856946257
320.27048672315;94.2105475666327
320.292105144466;94.6054227725903
320.313723565782;95.01604965795
320.335341987098;95.4302752382006
320.356960408414;95.839136700517
320.37857882973;96.2407061617026
320.400197251046;96.6418779650721
320.421815672362;97.0321086605644
320.443434093678;97.3735016800384
320.465052514994;97.664915026938
320.48667093631;97.9191562966345
320.508289357627;98.134874705278
320.529907778943;98.3028110776864
320.551526200259;98.4223938634647
320.573144621575;98.487121866186
320.594763042891;98.498975336367
320.616381464207;98.4635917508636
320.637999885523;98.3847201586231
320.659618306839;98.2656648363743
320.681236728155;98.1086777378771
320.702855149471;97.9202142859319
320.724473570787;97.7071647721723
320.746091992103;97.472027279871
320.767710413419;97.2148339454438
320.789328834735;96.9349719175417
320.810947256051;96.6382120229648
320.832565677367;96.3387962140853
320.854184098683;96.0431600997736
320.875802519999;95.755749358747
320.897420941315;95.4793111402047
320.919039362631;95.2073220311274
320.940657783947;94.9328723854119
320.962276205263;94.646599507009
320.983894626579;94.3397720396125
321.005513047896;94.0189813783234
321.027131469212;93.6864888014624
321.048749890528;93.325135153094
321.070368311844;92.9129026811865
321.09198673316;92.4446842354558
321.113605154476;91.9352665735896
321.135223575792;91.3952422737271
321.156841997108;90.8214070108675
321.178460418424;90.2056710804123
321.20007883974;89.5343590526533
321.221697261056;88.8131171178345
321.243315682372;88.072856904151
321.264934103688;87.3326135813266
321.286552525004;86.6133778507383
321.30817094632;85.9221982903452
321.329789367636;85.246568170768
321.351407788952;84.6297731491322
321.373026210268;84.0936390076567
321.394644631584;83.6448823230112
321.4162630529;83.2917912263287
321.437881474216;83.0298347955615
321.459499895532;82.8451801146134
321.481118316848;82.7296975704797
321.502736738165;82.6741168855746
321.524355159481;82.6541392320848
321.545973580797;82.6473946401697
321.567592002113;82.640303473688
321.589210423429;82.6205586340139
321.610828844745;82.5699566914545
321.632447266061;82.4752665564197
321.654065687377;82.3396363273627
321.675684108693;82.156195044695
321.697302530009;81.9211452068134
321.718920951325;81.6461372017268
321.740539372641;81.3377517445855
321.762157793957;81.0003885257889
321.783776215273;80.6553042811306
321.805394636589;80.3270186587005
321.827013057905;80.0385246082159
321.848631479221;79.8058647084262
321.870249900537;79.6315169931455
321.891868321853;79.5191784160583
321.913486743169;79.4743534684956
321.935105164485;79.5006778808708
321.956723585801;79.5886384471983
321.978342007117;79.7288691965691
321.999960428434;79.9127016040073
322.02157884975;80.1274050518125
322.043197271066;80.3632830970107
322.064815692382;80.6152978807978
322.086434113698;80.8701670940183
322.108052535014;81.1166169134312
322.12967095633;81.3510515138481
322.151289377646;81.5737428510037
322.172907798962;81.7824508255569
322.194526220278;81.9727886622218
322.216144641594;82.1439090820583
322.23776306291;82.2947692867625
322.259381484226;82.4209852295332
322.280999905542;82.5166664023386
322.302618326858;82.5799557423155
322.324236748174;82.6136438063084
322.34585516949;82.6240067937875
322.367473590806;82.6157145953893
322.389092012122;82.5917714807124
322.410710433438;82.5567314085173
322.432328854754;82.5181999898675
322.45394727607;82.4769968555304
322.475565697387;82.4310025471912
322.497184118703;82.3711327726461
322.518802540019;82.2920367423617
322.540420961335;82.2025830707775
322.562039382651;82.1081929372952
322.583657803967;82.0021914862132
322.605276225283;81.8679678767232
322.626894646599;81.6948199775036
322.648513067915;81.4845672032234
322.670131489231;81.2389752413802
322.691749910547;80.953968472167
322.713368331863;80.6272473367043
322.734986753179;80.2612491050881
322.756605174495;79.8578932748324
322.778223595811;79.4295416598095
322.799842017127;78.9919904928053
322.821460438443;78.5431480236925
322.843078859759;78.0664926490451
322.864697281075;77.5528647895858
322.886315702391;77.0066771893266
322.907934123707;76.4440731505533
322.929552545023;75.872934820824
322.951170966339;75.2857815858762
322.972789387656;74.674006054863
322.994407808972;74.0485175638194
323.016026230288;73.4428767112714
323.037644651604;72.8793301907986
323.05926307292;72.3491825477017
323.080881494236;71.8384115167616
323.102499915552;71.3540562007788
323.124118336868;70.9117915155725
323.145736758184;70.5182987920645
323.1673551795;70.1650127427046
323.188973600816;69.8373032852477
323.210592022132;69.5207512607281
323.232210443448;69.20905231976
323.253828864764;68.898014390567
323.27544728608;68.5838938457121
323.297065707396;68.2608642000027
323.318684128712;67.9182260651642
323.340302550028;67.5419612628416
323.361920971344;67.1341740819445
323.38353939266;66.7138409006842
323.405157813976;66.3037537204057
323.426776235292;65.9229638261358
323.448394656608;65.5787184323687
323.470013077925;65.2785932558625
323.491631499241;65.0302903997639
323.513249920557;64.8389704190763
323.534868341873;64.7023807385822
323.556486763189;64.6079329351068
323.578105184505;64.5509254352151
323.599723605821;64.5275190278928
323.621342027137;64.5322796869407
323.642960448453;64.5587949768049
323.664578869769;64.597253696131
323.686197291085;64.6319039310073
323.707815712401;64.651305081022
323.729434133717;64.6598226788732
323.751052555033;64.6659708045131
323.772670976349;64.6838462955877
323.794289397665;64.7247607507758
323.815907818981;64.7693316687184
323.837526240297;64.8093441662091
323.859144661613;64.8573514178133
323.880763082929;64.9213276353764
323.902381504245;65.001633928194
323.923999925561;65.0996592251145
323.945618346878;65.2126185814725
323.967236768194;65.3251070267708
323.98885518951;65.425076381577
324.010473610826;65.5148414754502
324.032092032142;65.5901417099996
324.053710453458;65.6354072994841
324.075328874774;65.6400492522287
324.09694729609;65.599752360429
324.118565717406;65.5122164382902
324.140184138722;65.3745878310393
324.161802560038;65.1880866715939
324.183420981354;64.9571902927729
324.20503940267;64.6828708627396
324.226657823986;64.3569242034825
324.248276245302;63.973473158479
324.269894666618;63.5653063678711
324.291513087934;63.1750487226028
324.31313150925;62.8115466280373
324.334749930566;62.4546863466637
324.356368351882;62.0849991954236
324.377986773198;61.7023884118334
324.399605194514;61.3186790356283
324.42122361583;60.9423046845124
324.442842037146;60.5633113430936
324.464460458463;60.1557988212934
324.486078879779;59.7122227979431
324.507697301095;59.2394564879964
324.529315722411;58.7575660534899
324.550934143727;58.2778562713858
324.572552565043;57.7965297406441
324.594170986359;57.2947705064412
324.615789407675;56.7543692218702
324.637407828991;56.1752688638088
324.659026250307;55.5846216189028
324.680644671623;54.9768491693236
324.702263092939;54.3260922547877
324.723881514255;53.6364633448371
324.745499935571;52.9669080151552
324.767118356887;52.3434389628112
324.788736778203;51.7533013276909
