Name;BF_ESR_01_3600s_X_gon_140dg_result

Recipe
Accumulations;5;Number of accumulations
RetryCount;0;Number of retries on error
AbortOnError;True;Abort on error
EnableQFactorMeasurement;False;Enable/Disable q-Factor measurement
Bfrom;313;B from
Bto;363;B to
SweepTime;60;Sweep time
Modulation;0.2;Modulation
ModulationFreq;100;Modulation
BHoldEnabled;False;B hold enabled
BHold;0;B hold
MicrowavePower;2;Microwave power
MarkerEnabled;False;
MarkerStartField;0;
MarkerEndField;0;
Mode;;
KineticGFact;0;
KineticTotalTransientTime;0;
KineticTimeResolution;0;
TempFrom;5;
TempUseSlope;False;
TempTo;5;
TempdT;1;
TempSetupTime;0;
GonFrom;0;
GonTo;180;
GonSteps;20;
XRayEnabled;False;
XRayTime;3;
XRayVoltage;40;
XRayCurrent;0.5;
UVEnabled;False;
UVIntensity;0;
UVTime;0;
UVLeadTime;0;
UVWavelength;0;
PowSweepFrom;1;
PowSweepTo;5;
PowSweepSteps;5;
AmpModSweepFrom;0;
AmpModSweepTo;1;
AmpModSweepSteps;10;
ExtTriggerEnabled;False;
ExtTrigLeadTime;0;
ExtTrigOnTime;5;

Meas
BField [mT];MW_Absorption []
313.017920837402;166.393112872023
313.039522564134;166.25102825365
313.061124290865;166.09418006867
313.082726017597;165.937333136686
313.104327744329;165.772894498485
313.12592947106;165.593096196801
313.147531197792;165.385271782543
313.169132924523;165.147607048594
313.190734651255;164.889044051075
313.212336377986;164.612145545019
313.233938104718;164.31572167046
313.255539831449;163.998867398804
313.277141558181;163.65413584506
313.298743284912;163.278018438706
313.320345011644;162.886608430953
313.341946738375;162.494006846622
313.363548465107;162.101268462106
313.385150191839;161.703388319255
313.40675191857;161.293538523532
313.428353645302;160.871524840805
313.449955372033;160.435572452554
313.471557098765;159.966030360032
313.493158825496;159.451722883644
313.514760552228;158.889136578
313.536362278959;158.276090973797
313.557964005691;157.629199509224
313.579565732422;156.97270741641
313.601167459154;156.300422352958
313.622769185885;155.652201319478
313.644370912617;155.038133665564
313.665972639349;154.421809127466
313.68757436608;153.786569314296
313.709176092812;153.167381308417
313.730777819543;152.605300303961
313.752379546275;152.110347777562
313.773981273006;151.665673097776
313.795582999738;151.255266396745
313.817184726469;150.881476232856
313.838786453201;150.554891725893
313.860388179932;150.281208658794
313.881989906664;150.058422112025
313.903591633396;149.894575531586
313.925193360127;149.802623226927
313.946795086859;149.777340831401
313.96839681359;149.805588165916
313.989998540322;149.87409555271
314.011600267053;149.968467133726
314.033201993785;150.078799305599
314.054803720516;150.190947694969
314.076405447248;150.283587216815
314.098007173979;150.337221950754
314.119608900711;150.344781826433
314.141210627442;150.297368858428
314.162812354174;150.185465148637
314.184414080906;150.014787025622
314.206015807637;149.79697028207
314.227617534369;149.532753966707
314.2492192611;149.212888694104
314.270820987832;148.838501229306
314.292422714563;148.442574934451
314.314024441295;148.028369538177
314.335626168026;147.600757879623
314.357227894758;147.164310605942
314.378829621489;146.714605264267
314.400431348221;146.244667211387
314.422033074952;145.755716652155
314.443634801684;145.255785548884
314.465236528416;144.746301487395
314.486838255147;144.210414862693
314.508439981879;143.630154203981
314.53004170861;143.02014914034
314.551643435342;142.409249662662
314.573245162073;141.788236724055
314.594846888805;141.13831514429
314.616448615536;140.465386406111
314.638050342268;139.778534367407
314.659652068999;139.085485718937
314.681253795731;138.384700308425
314.702855522463;137.678321751637
314.724457249194;136.982590762813
314.746058975926;136.303179632434
314.767660702657;135.630372092273
314.789262429389;134.958471044586
314.81086415612;134.280406593841
314.832465882852;133.588557847895
314.854067609583;132.892429889457
314.875669336315;132.209011647452
314.897271063046;131.537533535099
314.918872789778;130.870925734906
314.940474516509;130.215437024993
314.962076243241;129.599212641293
314.983677969973;129.042514583676
315.005279696704;128.522901983861
315.026881423436;128.021288104151
315.048483150167;127.565992135942
315.070084876899;127.1861206794
315.09168660363;126.859918268745
315.113288330362;126.565286844947
315.134890057093;126.297028042597
315.156491783825;126.057444141213
315.178093510556;125.853882798098
315.199695237288;125.684358667788
315.22129696402;125.526147964188
315.242898690751;125.35832441226
315.264500417483;125.174803396601
315.286102144214;124.983225865178
315.307703870946;124.784663626703
315.329305597677;124.557189638617
315.350907324409;124.274472836887
315.37250905114;123.945635068523
315.394110777872;123.556894672774
315.415712504603;123.091105907207
315.437314231335;122.554912312695
315.458915958066;121.968043694136
315.480517684798;121.337114884906
315.50211941153;120.658156916646
315.523721138261;119.906978172601
315.545322864993;119.055224286307
315.566924591724;118.092785158397
315.588526318456;117.06117322676
315.610128045187;116.040456065595
315.631729771919;115.058904390759
315.65333149865;114.123444388619
315.674933225382;113.226234413163
315.696534952113;112.350595912735
315.718136678845;111.478530530216
315.739738405576;110.606655744168
315.761340132308;109.789790906604
315.78294185904;109.043735956434
315.804543585771;108.335430381121
315.826145312503;107.647413097384
315.847747039234;107.011924716224
315.869348765966;106.449623645384
315.890950492697;105.955880379827
315.912552219429;105.526222147083
315.93415394616;105.17183816282
315.955755672892;104.896080314797
315.977357399623;104.699588787921
315.998959126355;104.584107023622
316.020560853087;104.55272233759
316.042162579818;104.615841956755
316.06376430655;104.774948584883
316.085366033281;105.009392997989
316.106967760013;105.303051538415
316.128569486744;105.645474430472
316.150171213476;106.023255356399
316.171772940207;106.423761693005
316.193374666939;106.847284813281
316.21497639367;107.298751924287
316.236578120402;107.775580778326
316.258179847133;108.281146565102
316.279781573865;108.833732988745
316.301383300597;109.433822491708
316.322985027328;110.069412648448
316.34458675406;110.742231528358
316.366188480791;111.448771082432
316.387790207523;112.172450624293
316.409391934254;112.90956676986
316.430993660986;113.680558255975
316.452595387717;114.486482715537
316.474197114449;115.306010328197
316.49579884118;116.125600726098
316.517400567912;116.935790193224
316.539002294644;117.729693767625
316.560604021375;118.516409554274
316.582205748107;119.297736773868
316.603807474838;120.052682813701
316.62540920157;120.743555997022
316.647010928301;121.371575886342
316.668612655033;121.956271504392
316.690214381764;122.506697186647
316.711816108496;123.010966894883
316.733417835227;123.458966835747
316.755019561959;123.854818312861
316.77662128869;124.20268855918
316.798223015422;124.490780201558
316.819824742154;124.696546857279
316.841426468885;124.828531051869
316.863028195617;124.900018688368
316.884629922348;124.91604403807
316.90623164908;124.8694741232
316.927833375811;124.761657316659
316.949435102543;124.606340974298
316.971036829274;124.399037016256
316.992638556006;124.138807337028
317.014240282737;123.837971009515
317.035842009469;123.514642830178
317.0574437362;123.180115810237
317.079045462932;122.835060962877
317.100647189664;122.482506346048
317.122248916395;122.140044885909
317.143850643127;121.821145971163
317.165452369858;121.530930914539
317.18705409659;121.280104960727
317.208655823321;121.072082402917
317.230257550053;120.900954421422
317.251859276784;120.758692324233
317.273461003516;120.639058170757
317.295062730247;120.538055469774
317.316664456979;120.439297586142
317.338266183711;120.334842495975
317.359867910442;120.220060010033
317.381469637174;120.082480094911
317.403071363905;119.912443850853
317.424673090637;119.719278158828
317.446274817368;119.508494611204
317.4678765441;119.2768339559
317.489478270831;119.019239478416
317.511079997563;118.738713402113
317.532681724294;118.452744192869
317.554283451026;118.180085592315
317.575885177757;117.928698289255
317.597486904489;117.696460957915
317.619088631221;117.476920494336
317.640690357952;117.259257738086
317.662292084684;117.041685694708
317.683893811415;116.837680000182
317.705495538147;116.670268398398
317.727097264878;116.553156014735
317.74869899161;116.487138645584
317.770300718341;116.463326477776
317.791902445073;116.475254100073
317.813504171804;116.521575700745
317.835105898536;116.602609611791
317.856707625267;116.71701448689
317.878309351999;116.860237185041
317.899911078731;117.027201879903
317.921512805462;117.203525417052
317.943114532194;117.372632806881
317.964716258925;117.524391422497
317.986317985657;117.654737340802
318.007919712388;117.756486496901
318.02952143912;117.8134636742
318.051123165851;117.81325717536
318.072724892583;117.772411749027
318.094326619314;117.699936435105
318.115928346046;117.590365292568
318.137530072778;117.43234798345
318.159131799509;117.23465916936
318.180733526241;117.035461476916
318.202335252972;116.852753825088
318.223936979704;116.677521058416
318.245538706435;116.510119219964
318.267140433167;116.360633694494
318.288742159898;116.22200254518
318.31034388663;116.081973117423
318.331945613361;115.932200223559
318.353547340093;115.772800572735
318.375149066824;115.605453880233
318.396750793556;115.414372901945
318.418352520288;115.189394716812
318.439954247019;114.925864227782
318.461555973751;114.627219867331
318.483157700482;114.296427581359
318.504759427214;113.935183400163
318.526361153945;113.552733711602
318.547962880677;113.154452108227
318.569564607408;112.741903232542
318.59116633414;112.327166161811
318.612768060871;111.914449732788
318.634369787603;111.506600080495
318.655971514335;111.113521114683
318.677573241066;110.734381464723
318.699174967798;110.354294002413
318.720776694529;109.966592252957
318.742378421261;109.575013612671
318.763980147992;109.177639115067
318.785581874724;108.765507099546
318.807183601455;108.327610766707
318.828785328187;107.855575603633
318.850387054918;107.346240062006
318.87198878165;106.790295263304
318.893590508381;106.183382521563
318.915192235113;105.536115638287
318.936793961845;104.863818743778
318.958395688576;104.146867506191
318.979997415308;103.368695424506
319.001599142039;102.519281848613
319.023200868771;101.61651286488
319.044802595502;100.702974927564
319.066404322234;99.7882744150889
319.088006048965;98.8669992614759
319.109607775697;97.9318000456951
319.131209502428;96.9909830425051
319.15281122916;96.0747406584731
319.174412955891;95.1848803735973
319.196014682623;94.3042822915476
319.217616409355;93.4021898743915
319.239218136086;92.4921987279212
319.260819862818;91.6223721457915
319.282421589549;90.7972407583533
319.304023316281;89.9652068116941
319.325625043012;89.0885171153962
319.347226769744;88.16267607271
319.368828496475;87.2338406442814
319.390430223207;86.3077770760102
319.412031949938;85.3397136904775
319.43363367667;84.363620766696
319.455235403402;83.419436783052
319.476837130133;82.4891203528945
319.498438856865;81.5553596619859
319.520040583596;80.6629766844822
319.541642310328;79.8412656294448
319.563244037059;79.0961302150434
319.584845763791;78.4164263467131
319.606447490522;77.7555532253663
319.628049217254;77.1206889607512
319.649650943985;76.5396719499034
319.671252670717;76.0151119066804
319.692854397448;75.5180208815596
319.71445612418;75.0213517744011
319.736057850912;74.5186349606053
319.757659577643;74.0032789799582
319.779261304375;73.4747936818559
319.800863031106;72.9409829814265
319.822464757838;72.3964812550357
319.844066484569;71.8321674447947
319.865668211301;71.2542964037859
319.887269938032;70.6709467559365
319.908871664764;70.097648001488
319.930473391495;69.5590515698827
319.952075118227;69.0637500801592
319.973676844958;68.6231291403508
319.99527857169;68.2505378262843
320.016880298422;67.9473802530026
320.038482025153;67.7098786944555
320.060083751885;67.5317471457851
320.081685478616;67.4287755393487
320.103287205348;67.4107375300485
320.124888932079;67.4726087079857
320.146490658811;67.6069175384225
320.168092385542;67.7993083603962
320.189694112274;68.040708411661
320.211295839005;68.3264839738545
320.232897565737;68.6517063107159
320.254499292468;69.0168273972584
320.2761010192;69.4249117563971
320.297702745932;69.8662016815575
320.319304472663;70.3351857068673
320.340906199395;70.8375008070468
320.362507926126;71.3726691332764
320.384109652858;71.9310637120511
320.405711379589;72.4872930545034
320.427313106321;73.0103920757265
320.448914833052;73.4861189024111
320.470516559784;73.9145856144753
320.492118286515;74.297425597683
320.513720013247;74.6305362616735
320.535321739979;74.9091706240703
320.55692346671;75.1362583430349
320.578525193442;75.3205018760035
320.600126920173;75.4720798200436
320.621728646905;75.6007170121321
320.643330373636;75.7227063002412
320.664932100368;75.8572365036817
320.686533827099;76.0170097856575
320.708135553831;76.210540369733
320.729737280562;76.4418285426233
320.751339007294;76.7034961401454
320.772940734026;76.9889896197466
320.794542460757;77.3013230323412
320.816144187489;77.6505455565883
320.83774591422;78.0375849401427
320.859347640952;78.4239383237918
320.880949367683;78.7627390124929
320.902551094415;79.0453204967895
320.924152821146;79.2789271784978
320.945754547878;79.4591178308305
320.967356274609;79.5768316323737
320.988958001341;79.6307779854859
321.010559728072;79.61926530193
321.032161454804;79.552404573555
321.053763181535;79.4432356666786
321.075364908267;79.305540063165
321.096966634999;79.145580460263
321.11856836173;78.965596211977
321.140170088462;78.7717687069552
321.161771815193;78.5885180532984
321.183373541925;78.434950471744
321.204975268656;78.3026120733042
321.226576995388;78.1809170670023
321.248178722119;78.0611519570066
321.269780448851;77.9442355853171
321.291382175582;77.8394364906914
321.312983902314;77.751162815855
321.334585629046;77.6726395420001
321.356187355777;77.5869233820508
321.377789082509;77.4837399045094
321.39939080924;77.3701811100959
321.420992535972;77.2421526022928
321.442594262703;77.0862885827611
321.464195989435;76.895395322066
321.485797716166;76.6734634650733
321.507399442898;76.430089216878
321.529001169629;76.1883952919292
321.550602896361;75.9609316649799
321.572204623092;75.7466133800833
321.593806349824;75.5529796787489
321.615408076556;75.3880411841244
321.637009803287;75.2533501447548
321.658611530019;75.153580364104
321.68021325675;75.0880437913657
321.701814983482;75.0471189622019
321.723416710213;75.0210170535288
321.745018436945;74.994136622032
321.766620163676;74.9517482993316
321.788221890408;74.8873468462095
321.809823617139;74.8038233027607
321.831425343871;74.6982260912242
321.853027070603;74.5566910145379
321.874628797334;74.3782875302522
321.896230524066;74.1875144323591
321.917832250797;74.019976634841
321.939433977529;73.881307962396
321.96103570426;73.7708032119655
321.982637430992;73.6795763432795
322.004239157723;73.6119619596223
322.025840884455;73.5727917642247
322.047442611186;73.5817795476774
322.069044337918;73.6526910201463
322.090646064649;73.7789395996967
322.112247791381;73.9601004900441
322.133849518113;74.2072278134816
322.155451244844;74.5288553082323
322.177052971576;74.9190942698237
322.198654698307;75.3706136161689
322.220256425039;75.8792878496575
322.24185815177;76.4495162026305
322.263459878502;77.0742821514813
322.285061605233;77.7234321871181
322.306663331965;78.3798276886663
322.328265058696;79.0378487243823
322.349866785428;79.693483299413
322.371468512159;80.3358257204246
322.393070238891;80.9500065980321
322.414671965623;81.5330323798332
322.436273692354;82.0881890316677
322.457875419086;82.600078961285
322.479477145817;83.0393931609443
322.501078872549;83.4011817458164
322.52268059928;83.7036814829283
322.544282326012;83.9583378135276
322.565884052743;84.1675680557562
322.587485779475;84.3356019540459
322.609087506206;84.4730548392051
322.630689232938;84.592742293444
322.65229095967;84.7094273292388
322.673892686401;84.8317227061764
322.695494413133;84.9606317282026
322.717096139864;85.0897242015278
322.738697866596;85.2204882358413
322.760299593327;85.356777244861
322.781901320059;85.502468709772
322.80350304679;85.6608111082158
322.825104773522;85.8222677825363
322.846706500253;85.9789675296448
322.868308226985;86.132723478701
322.889909953716;86.2891919529243
322.911511680448;86.4422516859916
322.93311340718;86.5845401341233
322.954715133911;86.7138365281363
322.976316860643;86.829646061042
322.997918587374;86.9276044527786
323.019520314106;87.0025955549285
323.041122040837;87.0534291876347
323.062723767569;87.0800126023719
323.0843254943;87.0804457373418
323.105927221032;87.0529138988235
323.127528947763;86.9892452632108
323.149130674495;86.8860520455176
323.170732401226;86.7447686083828
323.192334127958;86.5693921587675
323.21393585469;86.3695433078819
323.235537581421;86.1481167662156
323.257139308153;85.9068861458312
323.278741034884;85.6626305026122
323.300342761616;85.4290679267973
323.321944488347;85.2109665365105
323.343546215079;84.9995454715805
323.36514794181;84.7891962089965
323.386749668542;84.5931578755813
323.408351395273;84.4172552087735
323.429953122005;84.2616552686982
323.451554848737;84.1212966389784
323.473156575468;83.9954998716016
323.4947583022;83.8802284038544
323.516360028931;83.7727596652849
323.537961755663;83.6756394545732
323.559563482394;83.5955958339144
323.581165209126;83.5306358565383
323.602766935857;83.4624489306568
323.624368662589;83.3866036678292
323.64597038932;83.3390957733632
323.667572116052;83.3318246003202
323.689173842783;83.3440555998149
323.710775569515;83.3686345090889
323.732377296247;83.4179036494588
323.753979022978;83.4858526180669
323.77558074971;83.5589156992252
323.797182476441;83.6337760300442
323.818784203173;83.714025473791
323.840385929904;83.8030125616538
323.861987656636;83.8934438397148
323.883589383367;83.9702410195619
323.905191110099;84.0253203386297
323.92679283683;84.0542000597491
323.948394563562;84.0541087010789
323.969996290294;84.0311193527226
323.991598017025;83.9926164842489
324.013199743757;83.9190869037369
324.034801470488;83.8070305147722
324.05640319722;83.6723440420881
324.078004923951;83.5292691411174
324.099606650683;83.3784225439103
324.121208377414;83.2242501184308
324.142810104146;83.0792590666483
324.164411830877;82.9543715177508
324.186013557609;82.8603626647319
324.20761528434;82.797187239165
324.229217011072;82.7659111076698
324.250818737804;82.765688549582
324.272420464535;82.7901641847001
324.294022191267;82.8318799933341
324.315623917998;82.8847410275723
324.33722564473;82.9366208825513
324.358827371461;82.9740867313027
324.380429098193;82.9827940626444
324.402030824924;82.9442070991623
324.423632551656;82.8444745378966
324.445234278387;82.68676664815
324.466836005119;82.4799501463233
324.48843773185;82.2230331464389
324.510039458582;81.9170349111816
324.531641185314;81.5762300611348
324.553242912045;81.2083709701612
324.574844638777;80.8143794612503
324.596446365508;80.4052173377623
324.61804809224;79.9970261063477
324.639649818971;79.5895603455674
324.661251545703;79.1667606342869
324.682853272434;78.721777762908
324.704454999166;78.2719502168874
324.726056725897;77.8279764903876
324.747658452629;77.405340258044
324.769260179361;77.0120605534967
