Name;BF_ESR_01_1800s_X_gon_20dg_result

Recipe
Accumulations;5;Number of accumulations
RetryCount;0;Number of retries on error
AbortOnError;True;Abort on error
EnableQFactorMeasurement;False;Enable/Disable q-Factor measurement
Bfrom;313;B from
Bto;363;B to
SweepTime;60;Sweep time
Modulation;0.2;Modulation
ModulationFreq;100;Modulation
BHoldEnabled;False;B hold enabled
BHold;0;B hold
MicrowavePower;2;Microwave power
MarkerEnabled;False;
MarkerStartField;0;
MarkerEndField;0;
Mode;;
KineticGFact;0;
KineticTotalTransientTime;0;
KineticTimeResolution;0;
TempFrom;5;
TempUseSlope;False;
TempTo;5;
TempdT;1;
TempSetupTime;0;
GonFrom;0;
GonTo;180;
GonSteps;20;
XRayEnabled;False;
XRayTime;3;
XRayVoltage;40;
XRayCurrent;0.5;
UVEnabled;False;
UVIntensity;0;
UVTime;0;
UVLeadTime;0;
UVWavelength;0;
PowSweepFrom;1;
PowSweepTo;5;
PowSweepSteps;5;
AmpModSweepFrom;0;
AmpModSweepTo;1;
AmpModSweepSteps;10;
ExtTriggerEnabled;False;
ExtTrigLeadTime;0;
ExtTrigOnTime;5;

Meas
BField [mT];MW_Absorption []
313.019850692749;49.035037159849
313.041454657997;48.8642970232034
313.063058623245;48.8554497486051
313.084662588493;49.0044714108963
313.106266553741;49.2876266261179
313.127870518989;49.6863316669576
313.149474484237;50.2016189719633
313.171078449485;50.8383025189824
313.192682414733;51.5810930934093
313.214286379981;52.4050106278684
313.235890345229;53.2964237450532
313.257494310477;54.2753763007058
313.279098275725;55.3718264097776
313.300702240973;56.5424976263085
313.322306206221;57.7613251886776
313.343910171469;59.0561597116245
313.365514136717;60.4432440564501
313.387118101965;61.913918851324
313.408722067213;63.4437836396822
313.430326032461;65.0271431903313
313.451929997709;66.6443682067195
313.473533962957;68.2947574328818
313.495137928205;69.9861845703064
313.516741893453;71.6673128770374
313.538345858701;73.297117804346
313.559949823949;74.9003375651909
313.581553789197;76.5091376064074
313.603157754445;78.1097798777126
313.624761719693;79.6470190777638
313.646365684941;81.1540177360798
313.667969650189;82.6785740799322
313.689573615437;84.2350104173591
313.711177580685;85.7444008968116
313.732781545933;87.1713216378795
313.754385511181;88.5397362802668
313.775989476429;89.8570327363819
313.797593441677;91.1349986690776
313.819197406925;92.3999700148415
313.840801372173;93.6166349690097
313.862405337421;94.7578845531795
313.884009302669;95.8142943571237
313.905613267917;96.7959483759126
313.927217233165;97.7305358712782
313.948821198414;98.5972769072856
313.970425163662;99.3744879334265
313.99202912891;100.072489041987
314.013633094158;100.699361086019
314.035237059406;101.26581100879
314.056841024654;101.783798131337
314.078444989902;102.255249580369
314.10004895515;102.669109721701
314.121652920398;103.020805080231
314.143256885646;103.316832593656
314.164860850894;103.548179945674
314.186464816142;103.706694984634
314.20806878139;103.787535815545
314.229672746638;103.80165117342
314.251276711886;103.764077987878
314.272880677134;103.669791484
314.294484642382;103.511890745557
314.31608860763;103.284256280154
314.337692572878;102.989667335325
314.359296538126;102.641851911547
314.380900503374;102.246171373806
314.402504468622;101.791668671535
314.42410843387;101.258898218159
314.445712399118;100.679612945926
314.467316364366;100.079551984242
314.488920329614;99.4524081416076
314.510524294862;98.7777581085855
314.53212826011;98.0534894925568
314.553732225358;97.2890664476813
314.575336190606;96.5205339566695
314.596940155854;95.788165570987
314.618544121102;95.08430869706
314.64014808635;94.3894320944601
314.661752051598;93.6932217878276
314.683356016846;93.0183783976767
314.704959982094;92.3889588159373
314.726563947342;91.8024844682294
314.74816791259;91.2686526714853
314.769771877838;90.7894706274587
314.791375843086;90.3596731059822
314.812979808334;89.9788376213575
314.834583773582;89.6466980362267
314.85618773883;89.364134909271
314.877791704078;89.1303517850806
314.899395669326;88.9388388927812
314.920999634574;88.7968421608703
314.942603599822;88.7236709541836
314.96420756507;88.704585931586
314.985811530318;88.7106470982087
315.007415495566;88.7425460567535
315.029019460814;88.8060079805551
315.050623426062;88.8982215410968
315.07222739131;89.0048749868174
315.093831356558;89.1216112937719
315.115435321806;89.2585144541011
315.137039287054;89.4231578682446
315.158643252302;89.6168838166707
315.18024721755;89.8254064471097
315.201851182798;90.0227594712076
315.223455148046;90.2125621478807
315.245059113294;90.4042213293685
315.266663078542;90.5980112952417
315.28826704379;90.7948354039309
315.309871009038;90.9954355136512
315.331474974286;91.1955078607153
315.353078939534;91.38680854089
315.374682904782;91.5647964345744
315.39628687003;91.7350931366783
315.417890835278;91.9071873296366
315.439494800526;92.0772592441478
315.461098765774;92.2290844541566
315.482702731022;92.3708148152803
315.50430669627;92.5178147591878
315.525910661518;92.6829831989063
315.547514626766;92.8794733486194
315.569118592014;93.111096270067
315.590722557262;93.3746441467686
315.612326522511;93.673748934075
315.633930487759;94.0288575582908
315.655534453007;94.4336525902697
315.677138418255;94.872511300584
315.698742383503;95.3346743899371
315.720346348751;95.8233566248233
315.741950313999;96.3461810779142
315.763554279247;96.8967099152743
315.785158244495;97.4711346723862
315.806762209743;98.0708411218448
315.828366174991;98.6976306727967
315.849970140239;99.3316117382337
315.871574105487;99.9397087862971
315.893178070735;100.503389839296
315.914782035983;101.040559690216
315.936386001231;101.550926019886
315.957989966479;102.025781493151
315.979593931727;102.4623428776
316.001197896975;102.851922624451
316.022801862223;103.171953530977
316.044405827471;103.400667606398
316.066009792719;103.536830132136
316.087613757967;103.587427002831
316.109217723215;103.553471962
316.130821688463;103.432741229758
316.152425653711;103.233055204136
316.174029618959;102.975649147684
316.195633584207;102.678942492453
316.217237549455;102.345064220958
316.238841514703;101.973100352145
316.260445479951;101.568453892384
316.282049445199;101.133532751896
316.303653410447;100.663841554555
316.325257375695;100.150580496736
316.346861340943;99.5726152095911
316.368465306191;98.9533950123879
316.390069271439;98.3360172481222
316.411673236687;97.7042827991232
316.433277201935;97.029179935264
316.454881167183;96.3255023675762
316.476485132431;95.5977519227655
316.498089097679;94.8155001437563
316.519693062927;93.9469182083398
316.541297028175;92.9907736371173
316.562900993423;91.9712861370075
316.584504958671;90.9300474921216
316.606108923919;89.9040558054076
316.627712889167;88.8917413856457
316.649316854415;87.8764126217597
316.670920819663;86.8570860573551
316.692524784911;85.8401507133811
316.714128750159;84.8514024253988
316.735732715407;83.913126909028
316.757336680655;82.9986520738348
316.778940645903;82.0791967213358
316.800544611151;81.1464854090617
316.822148576399;80.2320200100307
316.843752541647;79.3675332069658
316.865356506895;78.5381852241879
316.886960472143;77.6901251140129
316.908564437391;76.7824501867298
316.930168402639;75.805418667724
316.951772367887;74.7739155929625
316.973376333135;73.6990952280804
316.994980298383;72.5703766346028
317.016584263631;71.4024916791147
317.038188228879;70.1741585782817
317.059792194127;68.8575487241219
317.081396159375;67.4760806006633
317.103000124623;66.0985815104163
317.124604089871;64.7419391592036
317.146208055119;63.4069122351286
317.167812020367;62.1104726596422
317.189415985615;60.8656136237838
317.211019950863;59.663926557531
317.232623916111;58.4871915573051
317.254227881359;57.3132244423363
317.275831846607;56.1547917074576
317.297435811855;55.0368872947915
317.319039777103;53.9787568823942
317.340643742351;52.939590450438
317.362247707599;51.8702976919072
317.383851672847;50.7396547551838
317.405455638095;49.6284937521167
317.427059603343;48.5748541236934
317.448663568592;47.5566478946599
317.47026753384;46.5498378653997
317.491871499088;45.5288091720445
317.513475464336;44.4729026769935
317.535079429584;43.3814416438433
317.556683394832;42.2953642111029
317.57828736008;41.2524471968754
317.599891325328;40.248898778128
317.621495290576;39.2642285713166
317.643099255824;38.3070064102914
317.664703221072;37.3917158927203
317.68630718632;36.5108286673084
317.707911151568;35.6452034818729
317.729515116816;34.8060992449663
317.751119082064;34.0028893833273
317.772723047312;33.2266438523821
317.79432701256;32.4736873026868
317.815930977808;31.7614502375531
317.837534943056;31.0977933226223
317.859138908304;30.4836160445287
317.880742873552;29.9252602601998
317.9023468388;29.4327214447078
317.923950804048;29.0081798591529
317.945554769296;28.6431237431649
317.967158734544;28.3300179848452
317.988762699792;28.0619579663864
318.01036666504;27.8322834899664
318.031970630288;27.6379401439818
318.053574595536;27.4770423069924
318.075178560784;27.3450261000066
318.096782526032;27.231832014132
318.11838649128;27.1244832123104
318.139990456528;27.0142823632867
318.161594421776;26.8913176435068
318.183198387024;26.7478965051934
318.204802352272;26.5828541521363
318.22640631752;26.3900448254751
318.248010282768;26.1603184694125
318.269614248016;25.8951192109147
318.291218213264;25.5955252385431
318.312822178512;25.2601431286654
318.33442614376;24.905332890229
318.356030109008;24.5314445847409
318.377634074256;24.1384148933053
318.399238039504;23.7472672124973
318.420842004752;23.3826248647493
318.44244597;23.0565963559346
318.464049935248;22.7784015618285
318.485653900496;22.5578231883667
318.507257865744;22.4037520801735
318.528861830992;22.3262493870081
318.55046579624;22.3349720983069
318.572069761488;22.442311859461
318.593673726736;22.6464749949573
318.615277691984;22.9265470943666
318.636881657232;23.2610852761507
318.65848562248;23.6490662303595
318.680089587728;24.09684612562
318.701693552976;24.6109017704665
318.723297518224;25.1828007028856
318.744901483472;25.8064786864865
318.76650544872;26.4772808350177
318.788109413968;27.1509148953094
318.809713379216;27.8252354028637
318.831317344464;28.53996153139
318.852921309712;29.3021117428107
318.87452527496;30.0659999474499
318.896129240208;30.8142530508649
318.917733205456;31.5287614904745
318.939337170704;32.2056055475869
318.960941135952;32.8516126797692
318.9825451012;33.4587403762713
319.004149066448;33.985661206312
319.025753031696;34.4249984366632
319.047356996944;34.7974160197754
319.068960962192;35.1128292812115
319.09056492744;35.3637210267548
319.112168892688;35.5508438836467
319.133772857936;35.6836300723127
319.155376823185;35.7844127224271
319.176980788433;35.8603949328116
319.198584753681;35.9139473889177
319.220188718929;35.9508780526563
319.241792684177;35.9751037525472
319.263396649425;35.9873445749548
319.285000614673;35.9873132485032
319.306604579921;35.9774981362197
319.328208545169;35.9624169642349
319.349812510417;35.9409284688312
319.371416475665;35.9143280680149
319.393020440913;35.8865525256389
319.414624406161;35.8612284247515
319.436228371409;35.8459591003734
319.457832336657;35.8505658139476
319.479436301905;35.8863778042394
319.501040267153;35.9614110743266
319.522644232401;36.0749945414201
319.544248197649;36.2269009956601
319.565852162897;36.423987338162
319.587456128145;36.6783249921226
319.609060093393;36.993276988824
319.630664058641;37.3513176596559
319.652268023889;37.7420114494032
319.673871989137;38.1719178227936
319.695475954385;38.6426710822898
319.717079919633;39.1569485660717
319.738683884881;39.7037911964117
319.760287850129;40.2545635145698
319.781891815377;40.7902010003052
319.803495780625;41.3266860130011
319.825099745873;41.8641990912519
319.846703711121;42.391479228691
319.868307676369;42.9171530030955
319.889911641617;43.4684234166731
319.911515606865;44.0563722956483
319.933119572113;44.651960244187
319.954723537361;45.2458234335658
319.976327502609;45.8669631410915
319.997931467857;46.554032694933
320.019535433105;47.3517670438378
320.041139398353;48.2523177615267
320.062743363601;49.1955095786342
320.084347328849;50.1702271986092
320.105951294097;51.2154544334105
320.127555259345;52.3490529331938
320.149159224593;53.5630268752017
320.170763189841;54.8485604610096
320.192367155089;56.2022506386159
320.213971120337;57.5986473578233
320.235575085585;59.0178515805931
320.257179050833;60.4833972881514
320.278783016081;62.0220401121982
320.300386981329;63.5933178229461
320.321990946577;65.1053111825563
320.343594911825;66.5362528090064
320.365198877073;67.8997772648143
320.386802842321;69.1880923896078
320.408406807569;70.3869298659506
320.430010772817;71.4977576144731
320.451614738065;72.527189674648
320.473218703313;73.484785811191
320.494822668561;74.3850128473794
320.516426633809;75.2380398151415
320.538030599057;76.0527676322115
320.559634564305;76.8469396008091
320.581238529553;77.6482335527126
320.602842494801;78.4707340085146
320.624446460049;79.308553295655
320.646050425297;80.1628065915292
320.667654390545;81.0374647624431
320.689258355793;81.9420165333204
320.710862321041;82.8850660926704
320.732466286289;83.8647395019893
320.754070251537;84.8607054962926
320.775674216785;85.8572156278686
320.797278182033;86.8662936467855
320.818882147281;87.9045237613125
320.840486112529;88.9627371632346
320.862090077777;89.9977947146695
320.883694043025;90.9947520661669
320.905298008273;91.9576600911903
320.926901973521;92.8683175755895
320.94850593877;93.7022950731956
320.970109904018;94.4524406961469
320.991713869266;95.1160692180399
321.013317834514;95.685763464095
321.034921799762;96.1559890057624
321.05652576501;96.5341926631965
321.078129730258;96.8281177160916
321.099733695506;97.0390764011943
321.121337660754;97.183017759952
321.142941626002;97.2910894115746
321.16454559125;97.39752165423
321.186149556498;97.5404868941531
321.207753521746;97.7532075196605
321.229357486994;98.0427399840274
321.250961452242;98.415307441512
321.27256541749;98.8912160570304
321.294169382738;99.4981898605811
321.315773347986;100.249658670157
321.337377313234;101.115730230225
321.358981278482;102.080598016241
321.38058524373;103.153457526887
321.402189208978;104.308056469165
321.423793174226;105.515451016247
321.445397139474;106.771302300965
321.467001104722;108.078160888824
321.48860506997;109.42025203189
321.510209035218;110.76555461278
321.531813000466;112.104359490264
321.553416965714;113.448813454101
321.575020930962;114.789732852426
321.59662489621;116.105791097339
321.618228861458;117.38476358925
321.639832826706;118.627731125387
321.661436791954;119.834428925615
321.683040757202;120.987751960237
321.70464472245;122.060551554469
321.726248687698;123.045651413373
321.747852652946;123.958584312931
321.769456618194;124.815649700862
321.791060583442;125.623859741023
321.81266454869;126.394313230926
321.834268513938;127.146773725533
321.855872479186;127.891226699951
321.877476444434;128.622820714322
321.899080409682;129.335177394521
321.92068437493;130.034406310576
321.942288340178;130.722224887049
321.963892305426;131.39972502493
321.985496270674;132.086401088831
322.007100235922;132.807830397195
322.02870420117;133.554519285494
322.050308166418;134.266053050337
322.071912131666;134.895704375835
322.093516096914;135.463881202256
322.115120062162;136.009004132186
322.13672402741;136.55493342688
322.158327992658;137.070859929486
322.179931957906;137.536531702579
322.201535923154;137.980901014923
322.223139888402;138.426200865196
322.24474385365;138.868985159763
322.266347818898;139.287298901306
322.287951784146;139.672643376379
322.309555749394;140.038731896457
322.331159714642;140.385933224898
322.35276367989;140.699057703882
322.374367645138;140.980830852928
322.395971610386;141.244248954423
322.417575575634;141.49073855778
322.439179540882;141.707855656916
322.46078350613;141.888279815387
322.482387471378;142.032355513328
322.503991436626;142.133618956706
322.525595401874;142.189861555709
322.547199367122;142.198945526761
322.56880333237;142.149772973639
322.590407297618;142.039167057699
322.612011262866;141.885547045922
322.633615228114;141.703520892865
322.655219193362;141.495218242605
322.67682315861;141.260554984102
322.698427123858;141.009206608359
322.720031089107;140.758523143609
322.741635054355;140.508959164729
322.763239019603;140.25958768386
322.784842984851;140.021522073725
322.806446950099;139.809024513879
322.828050915347;139.617476369063
322.849654880595;139.432816980093
322.871258845843;139.260818171573
322.892862811091;139.11423832256
322.914466776339;138.990307448781
322.936070741587;138.890135744015
322.957674706835;138.821414886561
322.979278672083;138.784923545198
323.000882637331;138.776891251497
323.022486602579;138.802824405073
323.044090567827;138.871875916866
323.065694533075;138.990168331492
323.087298498323;139.161086249882
323.108902463571;139.393290528102
323.130506428819;139.665221847799
323.152110394067;139.953827295508
323.173714359315;140.26739342869
323.195318324563;140.615036012397
323.216922289811;140.998075541896
323.238526255059;141.411657929125
323.260130220307;141.852609275301
323.281734185555;142.321450608293
323.303338150803;142.810697915763
323.324942116051;143.291342881037
323.346546081299;143.73281312603
323.368150046547;144.149342583288
323.389754011795;144.544557917084
323.411357977043;144.917363418257
323.432961942291;145.274045003742
323.454565907539;145.616352218308
323.476169872787;145.923893577218
323.497773838035;146.192427214439
323.519377803283;146.441810293433
323.540981768531;146.686935052086
323.562585733779;146.917684372377
323.584189699027;147.138111135344
323.605793664275;147.369065823343
323.627397629523;147.630423434939
323.649001594771;147.914734267413
323.670605560019;148.208085064875
323.692209525267;148.49975325734
323.713813490515;148.784524613153
323.735417455763;149.066544633373
323.757021421011;149.355485300673
323.778625386259;149.636095424746
323.800229351507;149.896295748564
323.821833316755;150.121221019209
323.843437282003;150.301121723516
323.865041247251;150.437694279226
323.886645212499;150.536213002041
323.908249177747;150.587196884782
323.929853142995;150.578578076519
323.951457108243;150.508558919643
323.973061073491;150.373292950655
323.994665038739;150.175649168254
324.016269003987;149.917612654464
324.037872969235;149.573600746921
324.059476934483;149.159306914289
324.081080899731;148.664693541646
324.102684864979;148.084850987889
324.124288830227;147.443550742087
324.145892795475;146.73837358586
324.167496760723;145.946607546715
324.189100725971;145.091479420977
324.210704691219;144.186355145239
324.232308656467;143.217630142322
324.253912621715;142.183208218134
324.275516586963;141.112879871404
324.297120552211;140.03767880223
324.318724517459;138.95026435855
324.340328482707;137.823143324073
324.361932447955;136.63827887932
324.383536413203;135.387415553227
324.405140378451;134.132731981251
324.426744343699;132.930302381606
324.448348308948;131.764322591044
324.469952274196;130.582230967684
324.491556239444;129.341950710111
324.513160204692;128.089902928715
324.53476416994;126.900110540739
324.556368135188;125.754412126748
324.577972100436;124.601788970536
324.599576065684;123.388826510019
324.621180030932;122.093608713772
324.64278399618;120.758287854058
324.664387961428;119.433582505055
324.685991926676;118.132573319167
324.707595891924;116.818038255808
324.729199857172;115.482151022783
324.75080382242;114.166731601461
324.772407787668;112.863071162741
