Name;BF_ESR_01_7202s_y_gon_40dg_result

Recipe
Accumulations;5;Number of accumulations
RetryCount;0;Number of retries on error
AbortOnError;True;Abort on error
EnableQFactorMeasurement;False;Enable/Disable q-Factor measurement
Bfrom;313;B from
Bto;363;B to
SweepTime;60;Sweep time
Modulation;0.2;Modulation
ModulationFreq;100;Modulation
BHoldEnabled;False;B hold enabled
BHold;0;B hold
MicrowavePower;2;Microwave power
MarkerEnabled;False;
MarkerStartField;0;
MarkerEndField;0;
Mode;;
KineticGFact;0;
KineticTotalTransientTime;0;
KineticTimeResolution;0;
TempFrom;5;
TempUseSlope;False;
TempTo;5;
TempdT;1;
TempSetupTime;0;
GonFrom;0;
GonTo;180;
GonSteps;20;
XRayEnabled;False;
XRayTime;3;
XRayVoltage;40;
XRayCurrent;0.5;
UVEnabled;False;
UVIntensity;0;
UVTime;0;
UVLeadTime;0;
UVWavelength;0;
PowSweepFrom;1;
PowSweepTo;5;
PowSweepSteps;5;
AmpModSweepFrom;0;
AmpModSweepTo;1;
AmpModSweepSteps;10;
ExtTriggerEnabled;False;
ExtTrigLeadTime;0;
ExtTrigOnTime;5;

Meas
BField [mT];MW_Absorption []
313.019288711548;70.3217982256866
313.040889043086;70.2315763902942
313.062489374625;70.0352377650596
313.084089706164;69.7412930913015
313.105690037702;69.3546857963386
313.127290369241;68.8626117166162
313.148890700779;68.2367887270851
313.170491032318;67.4901713697502
313.192091363857;66.6879717813848
313.213691695395;65.8489501010745
313.235292026934;64.9675013744809
313.256892358472;64.0947681068469
313.278492690011;63.2695559382875
313.30009302155;62.5072457348481
313.321693353088;61.8217325290918
313.343293684627;61.2238736027921
313.364894016165;60.728365137444
313.386494347704;60.3467002370338
313.408094679242;60.0696580520305
313.429695010781;59.8922573876608
313.45129534232;59.8088685611558
313.472895673858;59.8038586551447
313.494496005397;59.8526120749908
313.516096336935;59.9349466777754
313.537696668474;60.0283713569395
313.559297000013;60.1179160837883
313.580897331551;60.1875678419472
313.60249766309;60.2281464862483
313.624097994628;60.2350275085391
313.645698326167;60.2115437137751
313.667298657705;60.1624942556598
313.688898989244;60.0914810195987
313.710499320783;59.9992494600242
313.732099652321;59.8875571956526
313.75369998386;59.758999849219
313.775300315398;59.6236398732666
313.796900646937;59.4874618198023
313.818500978476;59.3536761238767
313.840101310014;59.2339186015352
313.861701641553;59.1442998658469
313.883301973091;59.086692258373
313.90490230463;59.0593157594008
313.926502636169;59.0614376127452
313.948102967707;59.0961735962637
313.969703299246;59.1723812392188
313.991303630784;59.2936723847899
314.012903962323;59.4527240502283
314.034504293862;59.6437117730206
314.0561046254;59.8609571038062
314.077704956939;60.0928905677591
314.099305288477;60.3354716491758
314.120905620016;60.5900011252969
314.142505951554;60.8490850701971
314.164106283093;61.0980232195633
314.185706614632;61.3263558837874
314.20730694617;61.5256715488913
314.228907277709;61.6948821111484
314.250507609247;61.8401796612938
314.272107940786;61.9693005437699
314.293708272325;62.0749832444325
314.315308603863;62.1442080038783
314.336908935402;62.1779530067194
314.35850926694;62.1883522903633
314.380109598479;62.1884560492074
314.401709930017;62.1712039127422
314.423310261556;62.1299667516046
314.444910593095;62.072332114428
314.466510924633;62.0029903635786
314.488111256172;61.922645535866
314.50971158771;61.8257113795112
314.531311919249;61.7075740893576
314.552912250788;61.5637456740555
314.574512582326;61.3930554232067
314.596112913865;61.187543907887
314.617713245403;60.9292667442216
314.639313576942;60.6210757677638
314.660913908481;60.2731092685539
314.682514240019;59.8851511682483
314.704114571558;59.4663883970655
314.725714903096;59.0376837465138
314.747315234635;58.6070798718947
314.768915566174;58.1798038856086
314.790515897712;57.7783864393566
314.812116229251;57.4239329041792
314.833716560789;57.1342585418049
314.855316892328;56.9217044268836
314.876917223866;56.7903995358397
314.898517555405;56.7436814765393
314.920117886944;56.7643080175884
314.941718218482;56.8275244869355
314.963318550021;56.9194837687187
314.984918881559;57.0322396824273
315.006519213098;57.1593682744128
315.028119544637;57.2825455732813
315.049719876175;57.3810625037954
315.071320207714;57.4439893867466
315.092920539252;57.4662960234642
315.114520870791;57.4423991108948
315.136121202329;57.3693117164352
315.157721533868;57.2492639116917
315.179321865407;57.0963544590193
315.200922196945;56.9263381895607
315.222522528484;56.7437125764856
315.244122860022;56.5479733975523
315.265723191561;56.3449174174518
315.2873235231;56.1552803865853
315.308923854638;55.9945954502475
315.330524186177;55.8638744581911
315.352124517715;55.7613359460006
315.373724849254;55.6859183854358
315.395325180793;55.6467561874828
315.416925512331;55.6550161816936
315.43852584387;55.7043148478629
315.460126175408;55.7843785403016
315.481726506947;55.893008850413
315.503326838486;56.0162352381286
315.524927170024;56.1348561614362
315.546527501563;56.2351835497284
315.568127833101;56.3166527065
315.58972816464;56.3810311010308
315.611328496178;56.4309011628343
315.632928827717;56.4724082857317
315.654529159256;56.5053994635222
315.676129490794;56.5316625398697
315.697729822333;56.5633482850546
315.719330153871;56.6090508473503
315.74093048541;56.6692216846037
315.762530816949;56.7470887031668
315.784131148487;56.8420058451301
315.805731480026;56.9481213680419
315.827331811564;57.0703128676389
315.848932143103;57.2109290304007
315.870532474641;57.3607508253125
315.89213280618;57.4914957624623
315.913733137719;57.5755597333112
315.935333469257;57.6047939848182
315.956933800796;57.581231106587
315.978534132334;57.5040851077611
316.000134463873;57.3734042655923
316.021734795412;57.1896979844478
316.04333512695;56.9586028068056
316.064935458489;56.7018712209704
316.086535790027;56.4463405094653
316.108136121566;56.1980936086062
316.129736453105;55.9538213716281
316.151336784643;55.7253089451619
316.172937116182;55.5418137833431
316.19453744772;55.4101226608215
316.216137779259;55.3231375295543
316.237738110798;55.2806313772455
316.259338442336;55.2811009505925
316.280938773875;55.3185125950553
316.302539105413;55.3768838782637
316.324139436952;55.4488116276913
316.34573976849;55.5243423447262
316.367340100029;55.5868263290576
316.388940431568;55.6254053010831
316.410540763106;55.6370566379113
316.432141094645;55.6172169360658
316.453741426183;55.5658483205914
316.475341757722;55.490724764225
316.496942089261;55.4040133273167
316.518542420799;55.3095348592716
316.540142752338;55.2046627967834
316.561743083876;55.0899689006808
316.583343415415;54.970518428471
316.604943746954;54.8530123710513
316.626544078492;54.7386190799535
316.648144410031;54.6182798943787
316.669744741569;54.4824324562366
316.691345073108;54.3280405355919
316.712945404646;54.1560294723531
316.734545736185;53.9573369940754
316.756146067724;53.7359924821714
316.777746399262;53.5181018976864
316.799346730801;53.3109101214501
316.820947062339;53.1108695379297
316.842547393878;52.9143774929442
316.864147725417;52.7255547305038
316.885748056955;52.5538275655998
316.907348388494;52.4216784158235
316.928948720032;52.3456320012323
316.950549051571;52.3172798023109
316.97214938311;52.3374767462346
316.993749714648;52.4093234477682
317.015350046187;52.5402814452158
317.036950377725;52.7230870855434
317.058550709264;52.9492213002678
317.080151040802;53.2096447191214
317.101751372341;53.4780408882641
317.12335170388;53.7431632332392
317.144952035418;54.0095551219083
317.166552366957;54.2737917531328
317.188152698495;54.519759289242
317.209753030034;54.7297399089105
317.231353361573;54.8899120232789
317.252953693111;54.993591730618
317.27455402465;55.0335685453545
317.296154356188;55.0109926461464
317.317754687727;54.9415754743593
317.339355019266;54.8403096939103
317.360955350804;54.711769679798
317.382555682343;54.5590244063519
317.404156013881;54.3985233376067
317.42575634542;54.2448334515818
317.447356676958;54.1020483358688
317.468957008497;53.9617457979706
317.490557340036;53.8298310915575
317.512157671574;53.7074999822189
317.533758003113;53.5858071108534
317.555358334651;53.4600528382611
317.57695866619;53.3283004325708
317.598558997729;53.1841516364642
317.620159329267;53.0205013459281
317.641759660806;52.8363066160486
317.663359992344;52.6381476732613
317.684960323883;52.4349712957467
317.706560655422;52.2382746857935
317.72816098696;52.0553931225123
317.749761318499;51.8855798320437
317.771361650037;51.7311062631846
317.792961981576;51.6052911503825
317.814562313114;51.5193607376752
317.836162644653;51.4750737466569
317.857762976192;51.4714815408324
317.87936330773;51.5093152601447
317.900963639269;51.5832622677137
317.922563970807;51.6855441309962
317.944164302346;51.8051492713341
317.965764633885;51.9307706756435
317.987364965423;52.0502056511916
318.008965296962;52.1454804189067
318.0305656285;52.2023195701064
318.052165960039;52.2141170825373
318.073766291578;52.1738925134439
318.095366623116;52.0723250363642
318.116966954655;51.8991848511936
318.138567286193;51.6527736127754
318.160167617732;51.3523495126948
318.18176794927;51.0191842287359
318.203368280809;50.6550095424391
318.224968612348;50.2647473079058
318.246568943886;49.8851607148634
318.268169275425;49.5337968943337
318.289769606963;49.2172064889967
318.311369938502;48.9523689050396
318.332970270041;48.7531942415021
318.354570601579;48.6230825702329
318.376170933118;48.5689812289363
318.397771264656;48.5872418557811
318.419371596195;48.6744402595952
318.440971927734;48.8235844005658
318.462572259272;49.0283945122961
318.484172590811;49.284573534644
318.505772922349;49.5836220137229
318.527373253888;49.9138010948528
318.548973585427;50.2556861579296
318.570573916965;50.5958049285565
318.592174248504;50.9331195781404
318.613774580042;51.2709437664738
318.635374911581;51.5975248675667
318.656975243119;51.8822497019308
318.678575574658;52.1209022551594
318.700175906197;52.3151679591055
318.721776237735;52.4553853082289
318.743376569274;52.526937326597
318.764976900812;52.5277471987466
318.786577232351;52.463831286772
318.80817756389;52.3329340354929
318.829777895428;52.1306371822104
318.851378226967;51.8678276851294
318.872978558505;51.5797783676647
318.894578890044;51.2702742085575
318.916179221582;50.9460179866406
318.937779553121;50.6353479817007
318.95937988466;50.3650554642769
318.980980216198;50.1410079275355
319.002580547737;49.9642434051504
319.024180879275;49.8385892215999
319.045781210814;49.7716390408442
319.067381542353;49.7715969700219
319.088981873891;49.8303546132061
319.11058220543;49.9419411676007
319.132182536968;50.0945973543907
319.153782868507;50.2655179021161
319.175383200046;50.4409328395572
319.196983531584;50.6111237356129
319.218583863123;50.7676718665414
319.240184194661;50.9043624699881
319.2617845262;51.0122836453266
319.283384857739;51.0689510481681
319.304985189277;51.0695682926001
319.326585520816;51.0154788575823
319.348185852354;50.9163173241668
319.369786183893;50.7771739224232
319.391386515431;50.6076957646509
319.41298684697;50.4178073815336
319.434587178509;50.223249166543
319.456187510047;50.0423765468622
319.477787841586;49.8922989487706
319.499388173124;49.7829585800144
319.520988504663;49.7163506080575
319.542588836202;49.6935214196502
319.56418916774;49.7127616830155
319.585789499279;49.7564197740127
319.607389830817;49.8165796864325
319.628990162356;49.8960936060497
319.650590493894;49.9943843838305
319.672190825433;50.1021687028861
319.693791156972;50.2011656846022
319.71539148851;50.2839408234585
319.736991820049;50.355229981421
319.758592151587;50.4208717460743
319.780192483126;50.4863147748797
319.801792814665;50.5548368921366
319.823393146203;50.6281780302877
319.844993477742;50.712105464329
319.86659380928;50.8113084191205
319.888194140819;50.9247075772037
319.909794472358;51.0524899598689
319.931394803896;51.1963492318715
319.952995135435;51.3537088122498
319.974595466973;51.5127361480374
319.996195798512;51.6535041473592
320.017796130051;51.7577680552252
320.039396461589;51.8196793289531
320.060996793128;51.8408737013943
320.082597124666;51.8249608581497
320.104197456205;51.7689158066837
320.125797787743;51.658809241327
320.147398119282;51.4803666104416
320.168998450821;51.2411757240058
320.190598782359;50.9652889848022
320.212199113898;50.6573759605104
320.233799445436;50.3189967083121
320.255399776975;49.9583598869391
320.277000108514;49.5813107692256
320.298600440052;49.196320114752
320.320200771591;48.8094513617396
320.341801103129;48.4146597512706
320.363401434668;47.9929500750814
320.385001766206;47.5495419312151
320.406602097745;47.1288303990967
320.428202429284;46.75169393882
320.449802760822;46.4138495208274
320.471403092361;46.1177461128265
320.493003423899;45.8802452085502
320.514603755438;45.7096380655903
320.536204086977;45.6041692950678
320.557804418515;45.5645423663511
320.579404750054;45.5884801771439
320.601005081592;45.6715166163587
320.622605413131;45.8124476806891
320.64420574467;46.0099441871765
320.665806076208;46.262444604239
320.687406407747;46.5433363495034
320.709006739285;46.8265052066078
320.730607070824;47.1014378518457
320.752207402363;47.3634866839961
320.773807733901;47.6089645486071
320.79540806544;47.8327690680357
320.817008396978;48.0199817351416
320.838608728517;48.1649992940629
320.860209060055;48.2706694943552
320.881809391594;48.3360978708243
320.903409723133;48.3614448409988
320.925010054671;48.361789957734
320.94661038621;48.3381378092136
320.968210717748;48.2885954359831
320.989811049287;48.226813686939
321.011411380826;48.1673620260612
321.033011712364;48.1279039880481
321.054612043903;48.123078655184
321.076212375441;48.1544731699466
321.09781270698;48.2244439074379
321.119413038518;48.3379858873149
321.141013370057;48.4968828387697
321.162613701596;48.7071452129162
321.184214033134;48.9746346524358
321.205814364673;49.2950226326309
321.227414696211;49.6673272029306
321.24901502775;50.0947435358455
321.270615359289;50.5219486094255
321.292215690827;50.9264311711175
321.313816022366;51.3143948258772
321.335416353904;51.6880781186017
321.357016685443;52.0355103097968
321.378617016982;52.3382946778985
321.40021734852;52.6001972819725
321.421817680059;52.812308705814
321.443418011597;52.9530756687479
321.465018343136;53.0092871682553
321.486618674675;52.9890245854223
321.508219006213;52.8922349720432
321.529819337752;52.7275779949433
321.55141966929;52.5180583308614
321.573020000829;52.2813175476841
321.594620332367;52.0271728216326
321.616220663906;51.7656040795347
321.637820995445;51.5055215552025
321.659421326983;51.2549506433265
321.681021658522;51.0202659778714
321.70262199006;50.8063142176866
321.724222321599;50.6114813275444
321.745822653138;50.4312313736421
321.767422984676;50.2612929697599
321.789023316215;50.1100166268803
321.810623647753;49.9753695301801
321.832223979292;49.8433022587693
321.85382431083;49.6949930627008
321.875424642369;49.5183407329329
321.897024973908;49.3164404372818
321.918625305446;49.1009638352355
321.940225636985;48.8612531089646
321.961825968523;48.5893702064269
321.983426300062;48.2879456729165
322.005026631601;47.9544639729469
322.026626963139;47.5709375191961
322.048227294678;47.1347961499724
322.069827626216;46.6629218847688
322.091427957755;46.1574688704701
322.113028289294;45.6220414492593
322.134628620832;45.0868039684517
322.156228952371;44.5705571219417
322.177829283909;44.0666738767308
322.199429615448;43.5678738672876
322.221029946987;43.0706248185526
322.242630278525;42.599402661864
322.264230610064;42.1844463065926
322.285830941602;41.8416964874329
322.307431273141;41.5776755860299
322.329031604679;41.3724929813192
322.350631936218;41.2126137817197
322.372232267757;41.1116927698747
322.393832599295;41.0909858912505
322.415432930834;41.1474998848882
322.437033262372;41.2568053092134
322.458633593911;41.4092024885138
322.48023392545;41.6039598594089
322.501834256988;41.8165020630488
322.523434588527;42.0254192110437
322.545034920065;42.2340898191678
322.566635251604;42.4436594518093
322.588235583142;42.6424367578126
322.609835914681;42.8152438803145
322.63143624622;42.969245800375
322.653036577758;43.127515194849
322.674636909297;43.2980641560236
322.696237240835;43.4750345360229
322.717837572374;43.6295033618585
322.739437903913;43.7611790497613
322.761038235451;43.8849053337656
322.78263856699;44.0052758614633
322.804238898528;44.1105436384954
322.825839230067;44.1802434441556
322.847439561606;44.2029999848505
322.869039893144;44.17571245722
322.890640224683;44.0935202964581
322.912240556221;43.9618688735102
322.93384088776;43.7935194614173
322.955441219299;43.5958735941127
322.977041550837;43.3639483910231
322.998641882376;43.0944014138005
323.020242213914;42.7987073415532
323.041842545453;42.5017412201468
323.063442876991;42.2112308680843
323.08504320853;41.9250320913212
323.106643540069;41.6423572959839
323.128243871607;41.3615617170278
323.149844203146;41.0956001946584
323.171444534684;40.847900803189
323.193044866223;40.6173962286024
323.214645197762;40.4078271737751
323.2362455293;40.2114380017424
323.257845860839;40.0311138606638
323.279446192377;39.8899372474636
323.301046523916;39.7926937683783
323.322646855454;39.7298549069516
323.344247186993;39.7064345234702
323.365847518532;39.7318544611026
323.38744785007;39.8009158686448
323.409048181609;39.9044657535635
323.430648513147;40.0337000313024
323.452248844686;40.1853246290981
323.473849176225;40.3413414774047
323.495449507763;40.4751380384481
323.517049839302;40.5879799415492
323.53865017084;40.681150335768
323.560250502379;40.7458553884501
323.581850833918;40.7886941990757
323.603451165456;40.8200860618596
323.625051496995;40.8469498772509
323.646651828533;40.8736152979488
323.668252160072;40.9102213081437
323.689852491611;40.9660413473755
323.711452823149;41.0378103024561
323.733053154688;41.1230410318061
323.754653486226;41.2289224704006
323.776253817765;41.358634972641
323.797854149303;41.5161281341358
323.819454480842;41.6933379235359
323.841054812381;41.8536248117438
323.862655143919;41.9889067592474
323.884255475458;42.1136948596357
323.905855806996;42.2217531948738
323.927456138535;42.2829969890591
323.949056470074;42.2794416908759
323.970656801612;42.2170167130915
323.992257133151;42.1044208964168
324.013857464689;41.9406877933411
324.035457796228;41.7188932874906
324.057058127766;41.4343970142507
324.078658459305;41.0927048959267
324.100258790844;40.7060624772989
324.121859122382;40.292714498658
324.143459453921;39.8810913334607
324.165059785459;39.4824931338358
324.186660116998;39.09227038542
324.208260448537;38.7263387485634
324.229860780075;38.4018568970251
324.251461111614;38.1219589710573
324.273061443152;37.8789791391482
324.294661774691;37.6719383357046
324.31626210623;37.5025408362399
324.337862437768;37.3743589372933
324.359462769307;37.2764736439229
324.381063100845;37.2042516863091
324.402663432384;37.1600511295065
324.424263763923;37.1345367969772
324.445864095461;37.1141324606178
324.467464427;37.0929257041625
324.489064758538;37.0665979037898
324.510665090077;37.0264952123469
324.532265421615;36.9796692293569
324.553865753154;36.9272816562024
324.575466084693;36.8625705697007
324.597066416231;36.7974755721097
324.61866674777;36.7466463352178
324.640267079308;36.7135071270115
324.661867410847;36.6962459237457
324.683467742386;36.6981228836873
324.705068073924;36.7296286688669
324.726668405463;36.8030145228892
324.748268737001;36.9193483862752
