Name;BF_ESR_01_Natural_Y_gon_40dg_result

Recipe
Accumulations;5;Number of accumulations
RetryCount;0;Number of retries on error
AbortOnError;True;Abort on error
EnableQFactorMeasurement;False;Enable/Disable q-Factor measurement
Bfrom;313;B from
Bto;363;B to
SweepTime;60;Sweep time
Modulation;0.2;Modulation
ModulationFreq;100;Modulation
BHoldEnabled;False;B hold enabled
BHold;0;B hold
MicrowavePower;2;Microwave power
MarkerEnabled;False;
MarkerStartField;0;
MarkerEndField;0;
Mode;;
KineticGFact;0;
KineticTotalTransientTime;0;
KineticTimeResolution;0;
TempFrom;5;
TempUseSlope;False;
TempTo;5;
TempdT;1;
TempSetupTime;0;
GonFrom;0;
GonTo;180;
GonSteps;20;
XRayEnabled;False;
XRayTime;3;
XRayVoltage;40;
XRayCurrent;0.5;
UVEnabled;False;
UVIntensity;0;
UVTime;0;
UVLeadTime;0;
UVWavelength;0;
PowSweepFrom;1;
PowSweepTo;5;
PowSweepSteps;5;
AmpModSweepFrom;0;
AmpModSweepTo;1;
AmpModSweepSteps;10;
ExtTriggerEnabled;False;
ExtTrigLeadTime;0;
ExtTrigOnTime;5;

Meas
BField [mT];MW_Absorption []
313.017693786621;64.9901907596778
313.039305159658;64.9255468627513
313.060916532695;64.7513693815382
313.082527905731;64.4757756866744
313.104139278768;64.1073709724903
313.125750651805;63.6316154929159
313.147362024842;63.0497618179047
313.168973397879;62.4053536288881
313.190584770915;61.7321673028161
313.212196143952;61.0268190797916
313.233807516989;60.2692897803513
313.255418890026;59.4599792125153
313.277030263063;58.6273517274525
313.298641636099;57.8129970929799
313.320253009136;57.0776420723049
313.341864382173;56.4513159964102
313.36347575521;55.911100359
313.385087128246;55.4373693297373
313.406698501283;55.0696061748619
313.42830987432;54.8447068546185
313.449921247357;54.7347112107752
313.471532620394;54.7174580361441
313.49314399343;54.7928010857469
313.514755366467;54.9471059395482
313.536366739504;55.1505296788061
313.557978112541;55.3786701507973
313.579589485578;55.6065550040881
313.601200858614;55.8187699973246
313.622812231651;56.0246581567946
313.644423604688;56.2160028251437
313.666034977725;56.3591889538905
313.687646350762;56.4416031373422
313.709257723798;56.4660010354122
313.730869096835;56.4301761465529
313.752480469872;56.3451916395947
313.774091842909;56.2322011436806
313.795703215946;56.0940717219915
313.817314588982;55.9346970065235
313.838925962019;55.7630066965146
313.860537335056;55.5907673154504
313.882148708093;55.4273903017679
313.903760081129;55.2789353265642
313.925371454166;55.150557905596
313.946982827203;55.0476621550335
313.96859420024;54.9691498239633
313.990205573277;54.9172491524065
314.011816946313;54.902096396859
314.03342831935;54.9320158590694
314.055039692387;54.9995749743661
314.076651065424;55.1004459020041
314.098262438461;55.2304368482186
314.119873811497;55.3804621463023
314.141485184534;55.5409519519742
314.163096557571;55.6942021269895
314.184707930608;55.8333008848191
314.206319303645;55.9745752294458
314.227930676681;56.122709808289
314.249542049718;56.2611208627942
314.271153422755;56.3773438847772
314.292764795792;56.4695264886712
314.314376168829;56.5381787093022
314.335987541865;56.5860839401763
314.357598914902;56.6153238989308
314.379210287939;56.6353878664023
314.400821660976;56.6497481923351
314.422433034012;56.6622143760668
314.444044407049;56.6814007480538
314.465655780086;56.7082834884274
314.487267153123;56.7335062325732
314.50887852616;56.7612691342073
314.530489899196;56.8031870981132
314.552101272233;56.8542918966381
314.57371264527;56.9125088288086
314.595324018307;56.9692690124856
314.616935391344;57.0240293381355
314.63854676438;57.0799392057065
314.660158137417;57.1385816306897
314.681769510454;57.1950878847489
314.703380883491;57.2455485519243
314.724992256528;57.2914271369675
314.746603629564;57.3399245195503
314.768215002601;57.373898185992
314.789826375638;57.3716581324577
314.811437748675;57.3293926883147
314.833049121711;57.2528486703025
314.854660494748;57.1433636946795
314.876271867785;56.997392123445
314.897883240822;56.8153780074607
314.919494613859;56.6159217425262
314.941105986895;56.4047678387637
314.962717359932;56.1843520652467
314.984328732969;55.9727369008587
315.005940106006;55.7917370205507
315.027551479043;55.6557413912386
315.049162852079;55.5709949299192
315.070774225116;55.5409148762963
315.092385598153;55.5805444314406
315.11399697119;55.6914655171962
315.135608344227;55.8613576990243
315.157219717263;56.0898821334913
315.1788310903;56.3684534666288
315.200442463337;56.6563965863211
315.222053836374;56.9218882936458
315.24366520941;57.1608817627332
315.265276582447;57.3696105775635
315.286887955484;57.5415795502018
315.308499328521;57.6780947544327
315.330110701558;57.7647189966139
315.351722074594;57.7984740182265
315.373333447631;57.7792616436073
315.394944820668;57.7402616351417
315.416556193705;57.6906615924838
315.438167566742;57.615115226939
315.459778939778;57.5099103370989
315.481390312815;57.3811877505626
315.503001685852;57.2432750175774
315.524613058889;57.0982300121334
315.546224431926;56.9401736499773
315.567835804962;56.7713581600279
315.589447177999;56.6041841952748
315.611058551036;56.4430293343903
315.632669924073;56.2853601909879
315.654281297109;56.1439133839369
315.675892670146;56.0319599027987
315.697504043183;55.9460445158225
315.71911541622;55.8795834989885
315.740726789257;55.829419968805
315.762338162293;55.7964453669966
315.78394953533;55.7866555689913
315.805560908367;55.7894342557631
315.827172281404;55.7928033384476
315.848783654441;55.7960380626535
315.870395027477;55.7952142900183
315.892006400514;55.7824272505571
315.913617773551;55.7582672673926
315.935229146588;55.7362962419335
315.956840519625;55.7220861992319
315.978451892661;55.7196222568812
316.000063265698;55.7336941641365
316.021674638735;55.7649836368493
316.043286011772;55.812479572411
316.064897384809;55.8749428362833
316.086508757845;55.9506576427529
316.108120130882;56.038679346993
316.129731503919;56.1322857344245
316.151342876956;56.2209785880123
316.172954249992;56.2975619031603
316.194565623029;56.3584467113368
316.216176996066;56.4030518310527
316.237788369103;56.4318026859736
316.25939974214;56.4472436315504
316.281011115176;56.4603920136045
316.302622488213;56.4812863961108
316.32423386125;56.5148823086919
316.345845234287;56.5637554257509
316.367456607324;56.6343494846612
316.38906798036;56.7335214965664
316.410679353397;56.8561277988927
316.432290726434;56.9895991847199
316.453902099471;57.1299607477674
316.475513472508;57.2715368075103
316.497124845544;57.3974058682531
316.518736218581;57.497802241618
316.540347591618;57.5746120826441
316.561958964655;57.634101290571
316.583570337691;57.6696990262029
316.605181710728;57.6786011316872
316.626793083765;57.6649449456019
316.648404456802;57.6270289362632
316.670015829839;57.5626964155138
316.691627202875;57.4810938551691
316.713238575912;57.397693065276
316.734849948949;57.3141622362859
316.756461321986;57.2240249472327
316.778072695023;57.1201690161542
316.799684068059;56.9986349096869
316.821295441096;56.8703019259486
316.842906814133;56.754069558184
316.86451818717;56.6501218666233
316.886129560207;56.5426804846431
316.907740933243;56.4189309145489
316.92935230628;56.283701462925
316.950963679317;56.1496270280335
316.972575052354;56.0217244719878
316.994186425391;55.8991767181451
317.015797798427;55.7793451370833
317.037409171464;55.650302880545
317.059020544501;55.4965085610542
317.080631917538;55.31624658052
317.102243290574;55.1223169811772
317.123854663611;54.9199828567447
317.145466036648;54.7138927904577
317.167077409685;54.5047936478678
317.188688782722;54.2890188872417
317.210300155758;54.0731237381249
317.231911528795;53.8688444911502
317.253522901832;53.6740291586223
317.275134274869;53.4907031014475
317.296745647906;53.3314652768903
317.318357020942;53.2112233010976
317.339968393979;53.132219961069
317.361579767016;53.0928447784668
317.383191140053;53.0962705276541
317.40480251309;53.1448855286785
317.426413886126;53.2354916447382
317.448025259163;53.3644906572989
317.4696366322;53.534543562388
317.491248005237;53.7501413095979
317.512859378274;54.0145835297803
317.53447075131;54.3151798643146
317.556082124347;54.6247621111159
317.577693497384;54.9248899383351
317.599304870421;55.2129880917351
317.620916243457;55.4749192939141
317.642527616494;55.6971942374163
317.664138989531;55.8715931733758
317.685750362568;55.9950608574672
317.707361735605;56.063233318383
317.728973108641;56.0667196317286
317.750584481678;56.0083398824237
317.772195854715;55.9149975496583
317.793807227752;55.8158530737569
317.815418600789;55.7172340305489
317.837029973825;55.6217578705998
317.858641346862;55.5356099991698
317.880252719899;55.4679035020871
317.901864092936;55.4192375756531
317.923475465973;55.3914820176537
317.945086839009;55.3864498911941
317.966698212046;55.3965974014471
317.988309585083;55.4076268380627
318.00992095812;55.4165558537604
318.031532331156;55.4331862843736
318.053143704193;55.4618791341615
318.07475507723;55.5042641897286
318.096366450267;55.5629927668885
318.117977823304;55.6362509638545
318.13958919634;55.7227415378762
318.161200569377;55.8260024014762
318.182811942414;55.9505077701155
318.204423315451;56.0904331947301
318.226034688488;56.2349746658009
318.247646061524;56.3903827463429
318.269257434561;56.5500797866832
318.290868807598;56.7011029581993
318.312480180635;56.8393264822047
318.334091553672;56.9690950072255
318.355702926708;57.0783358736365
318.377314299745;57.1558423508044
318.398925672782;57.2030584829285
318.420537045819;57.2267282218092
318.442148418855;57.2285771977088
318.463759791892;57.2046265540342
318.485371164929;57.1540206417828
318.506982537966;57.0804509463112
318.528593911003;56.9802222968083
318.550205284039;56.8544928652692
318.571816657076;56.7162563982783
318.593428030113;56.5723033990083
318.61503940315;56.4173146227418
318.636650776187;56.2436222368895
318.658262149223;56.0476902995923
318.67987352226;55.8322796230894
318.701484895297;55.6062740754327
318.723096268334;55.3773763219688
318.744707641371;55.1443722932382
318.766319014407;54.9121566303327
318.787930387444;54.6883799274647
318.809541760481;54.477720819618
318.831153133518;54.2875647548584
318.852764506554;54.1272562837845
318.874375879591;53.9988658343353
318.895987252628;53.9002248249896
318.917598625665;53.8248051195542
318.939209998702;53.764744997114
318.960821371738;53.7136728330499
318.982432744775;53.6593807651747
319.004044117812;53.5951787969109
319.025655490849;53.518279971446
319.047266863886;53.4231683480592
319.068878236922;53.3029780679776
319.090489609959;53.1520640699092
319.112100982996;52.9787637299743
319.133712356033;52.7890222350056
319.15532372907;52.5862048952859
319.176935102106;52.3836680720058
319.198546475143;52.1978525495855
319.22015784818;52.0304819276785
319.241769221217;51.8749020049875
319.263380594254;51.7282375174204
319.28499196729;51.6015804341697
319.306603340327;51.5086134764854
319.328214713364;51.4571877479578
319.349826086401;51.4418177823812
319.371437459437;51.4415920412578
319.393048832474;51.4343514551818
319.414660205511;51.4213918442948
319.436271578548;51.4111485619355
319.457882951585;51.4031243821607
319.479494324621;51.3902107431162
319.501105697658;51.3726661388033
319.522717070695;51.3519570732891
319.544328443732;51.3270519132755
319.565939816769;51.3043415205837
319.587551189805;51.2932925238432
319.609162562842;51.2991870811327
319.630773935879;51.3309348825212
319.652385308916;51.3955476958067
319.673996681953;51.4898528784531
319.695608054989;51.6123158273997
319.717219428026;51.7710722075858
319.738830801063;51.9642583426826
319.7604421741;52.1624452788735
319.782053547136;52.3394505709789
319.803664920173;52.4832231798488
319.82527629321;52.5885615442562
319.846887666247;52.6470994601626
319.868499039284;52.6362227569479
319.89011041232;52.5542531120883
319.911721785357;52.4179810722789
319.933333158394;52.2320722191396
319.954944531431;51.9936875898567
319.976555904468;51.6991261009778
319.998167277504;51.3457769822814
320.019778650541;50.9504189845072
320.041390023578;50.5337934027599
320.063001396615;50.1026660798415
320.084612769652;49.6827583589331
320.106224142688;49.2885606882252
320.127835515725;48.9246075420531
320.149446888762;48.5953255989635
320.171058261799;48.3030856566319
320.192669634836;48.0487612378809
320.214281007872;47.8331955109801
320.235892380909;47.6554445330011
320.257503753946;47.5153676246089
320.279115126983;47.414562053703
320.300726500019;47.350901953609
320.322337873056;47.3107150160214
320.343949246093;47.2799721099693
320.36556061913;47.2555548194827
320.387171992167;47.2341701292548
320.408783365203;47.2100780219259
320.43039473824;47.1785356840569
320.452006111277;47.1313754875586
320.473617484314;47.0635078257086
320.495228857351;46.9774786254636
320.516840230387;46.8769442409571
320.538451603424;46.7691396875381
320.560062976461;46.656954585074
320.581674349498;46.535880662981
320.603285722535;46.3992886674592
320.624897095571;46.246042625844
320.646508468608;46.0850428091114
320.668119841645;45.9140436245774
320.689731214682;45.7271701628229
320.711342587718;45.5282241848389
320.732953960755;45.3182332322169
320.754565333792;45.1008552256296
320.776176706829;44.8785897013358
320.797788079866;44.6489218024845
320.819399452902;44.413904863911
320.841010825939;44.174221021742
320.862622198976;43.9319412168322
320.884233572013;43.6929794311352
320.90584494505;43.4685768454588
320.927456318086;43.2647267480637
320.949067691123;43.075855245682
320.97067906416;42.9103679482755
320.992290437197;42.7824426365632
321.013901810234;42.7046448844363
321.03551318327;42.6849506841834
321.057124556307;42.7233349351304
321.078735929344;42.8198052000183
321.100347302381;42.9805727133137
321.121958675417;43.2112441586657
321.143570048454;43.5115810906619
321.165181421491;43.8761657497411
321.186792794528;44.2925055296454
321.208404167565;44.7350015963421
321.230015540601;45.2000114519538
321.251626913638;45.7008787254374
321.273238286675;46.2272475306711
321.294849659712;46.7332183786561
321.316461032749;47.2012028693753
321.338072405785;47.6128573747288
321.359683778822;47.9486526134813
321.381295151859;48.2012272276788
321.402906524896;48.3750130587131
321.424517897933;48.4585962918365
321.446129270969;48.4373852098965
321.467740644006;48.3174443766788
321.489352017043;48.1182787050596
321.51096339008;47.8582227954121
321.532574763116;47.5500923542322
321.554186136153;47.2177649186553
321.57579750919;46.8832520865449
321.597408882227;46.561896642115
321.619020255264;46.2690543517337
321.6406316283;46.0242583031386
321.662243001337;45.845753959184
321.683854374374;45.7412478847532
321.705465747411;45.7037827228913
321.727077120448;45.7176485455913
321.748688493484;45.7718511502353
321.770299866521;45.8715195870172
321.791911239558;46.0065711842498
321.813522612595;46.1610237793194
321.835133985632;46.3172536745007
321.856745358668;46.4627670821368
321.878356731705;46.5848329848783
321.899968104742;46.6810725787116
321.921579477779;46.7517753325632
321.943190850816;46.78265574426
321.964802223852;46.7655107337066
321.986413596889;46.6910066296343
322.008024969926;46.5606957153081
322.029636342963;46.3853310761481
322.051247715999;46.1664276368901
322.072859089036;45.9088507274275
322.094470462073;45.635350459863
322.11608183511;45.3466141538264
322.137693208147;45.03882823063
322.159304581183;44.708207536615
322.18091595422;44.3580301647327
322.202527327257;44.0137959961719
322.224138700294;43.6969685062121
322.245750073331;43.4144786393744
322.267361446367;43.1682061459504
322.288972819404;42.9553475926264
322.310584192441;42.7773375360253
322.332195565478;42.6318721728106
322.353806938515;42.526448660846
322.375418311551;42.4579795076637
322.397029684588;42.4166521871075
322.418641057625;42.3978166702748
322.440252430662;42.4048338335981
322.461863803699;42.4364589610486
322.483475176735;42.4830946358453
322.505086549772;42.5278204477384
322.526697922809;42.5685595895459
322.548309295846;42.6061264290234
322.569920668882;42.6467688396741
322.591532041919;42.69503487905
322.613143414956;42.7473543787339
322.634754787993;42.7930681500669
322.65636616103;42.8307422097796
322.677977534066;42.8704535837684
322.699588907103;42.9172857286715
322.72120028014;42.9628060287389
322.742811653177;43.0007816015991
322.764423026214;43.0271948186305
322.78603439925;43.0395644526139
322.807645772287;43.0449315093859
322.829257145324;43.0483417960567
322.850868518361;43.0499962032234
322.872479891398;43.0550954514337
322.894091264434;43.0688618100156
322.915702637471;43.0883570125309
322.937314010508;43.1093379989086
322.958925383545;43.1297092718024
322.980536756582;43.1514578260763
323.002148129618;43.1765446478159
323.023759502655;43.2057010785899
323.045370875692;43.2308837775172
323.066982248729;43.2404897986338
323.088593621765;43.2316959616834
323.110204994802;43.2055534449501
323.131816367839;43.1663341689724
323.153427740876;43.1169873060451
323.175039113913;43.0548144609529
323.196650486949;42.9668265202381
323.218261859986;42.8549419284236
323.239873233023;42.727549333001
323.26148460606;42.5958032079618
323.283095979097;42.4558845714213
323.304707352133;42.3055328401105
323.32631872517;42.1388022163449
323.347930098207;41.9513944782695
323.369541471244;41.7444353891077
323.391152844281;41.5202289133315
323.412764217317;41.2797884919005
323.434375590354;41.028487245102
323.455986963391;40.7671653708262
323.477598336428;40.4874634813213
323.499209709464;40.1924975270355
323.520821082501;39.909344760965
323.542432455538;39.6452844078221
323.564043828575;39.3948656512183
323.585655201612;39.1462621642519
323.607266574648;38.8920387121108
323.628877947685;38.6271528665237
323.650489320722;38.3550646112463
323.672100693759;38.0731333724701
323.693712066796;37.7685236625307
323.715323439832;37.4397945308299
323.736934812869;37.0934024387981
323.758546185906;36.7321570590993
323.780157558943;36.3561901366084
323.80176893198;35.9690702353116
323.823380305016;35.5809447309518
323.844991678053;35.1955352131205
323.86660305109;34.8014781973133
323.888214424127;34.4017070941581
323.909825797163;34.0192987144831
323.9314371702;33.6723737537979
323.953048543237;33.3418709490725
323.974659916274;33.0208950593282
323.996271289311;32.7412001813317
324.017882662347;32.5130723229459
324.039494035384;32.3298848394852
324.061105408421;32.1824084156227
324.082716781458;32.0751893570203
324.104328154495;32.0258458951982
324.125939527531;32.0459687939537
324.147550900568;32.1307509391584
324.169162273605;32.2860533784025
324.190773646642;32.5114031407559
324.212385019679;32.8057446028179
324.233996392715;33.1642989854752
324.255607765752;33.5718973761197
324.277219138789;34.018122181788
324.298830511826;34.4984826611746
324.320441884862;34.9948158653639
324.342053257899;35.4749210995306
324.363664630936;35.9216261552865
324.385276003973;36.3345303190042
324.40688737701;36.710936263732
324.428498750046;37.0336519993911
324.450110123083;37.2923515840337
324.47172149612;37.4680304261722
324.493332869157;37.5769059697377
324.514944242194;37.6377635432949
324.53655561523;37.6472355559085
324.558166988267;37.5940256199918
324.579778361304;37.4763905928379
324.601389734341;37.3114419483276
324.623001107378;37.1360203336118
324.644612480414;36.9607749681234
324.666223853451;36.7830222043565
324.687835226488;36.6037973826951
324.709446599525;36.4264598944728
324.731057972562;36.2553276547756
324.752669345598;36.0959453735856
