Name;BF_ESR_01_900s_Z_gon_60dg_result

Recipe
Accumulations;5;Number of accumulations
RetryCount;0;Number of retries on error
AbortOnError;True;Abort on error
EnableQFactorMeasurement;False;Enable/Disable q-Factor measurement
Bfrom;313;B from
Bto;363;B to
SweepTime;60;Sweep time
Modulation;0.2;Modulation
ModulationFreq;100;Modulation
BHoldEnabled;False;B hold enabled
BHold;0;B hold
MicrowavePower;2;Microwave power
MarkerEnabled;False;
MarkerStartField;0;
MarkerEndField;0;
Mode;;
KineticGFact;0;
KineticTotalTransientTime;0;
KineticTimeResolution;0;
TempFrom;5;
TempUseSlope;False;
TempTo;5;
TempdT;1;
TempSetupTime;0;
GonFrom;0;
GonTo;180;
GonSteps;20;
XRayEnabled;False;
XRayTime;3;
XRayVoltage;40;
XRayCurrent;0.5;
UVEnabled;False;
UVIntensity;0;
UVTime;0;
UVLeadTime;0;
UVWavelength;0;
PowSweepFrom;1;
PowSweepTo;5;
PowSweepSteps;5;
AmpModSweepFrom;0;
AmpModSweepTo;1;
AmpModSweepSteps;10;
ExtTriggerEnabled;False;
ExtTrigLeadTime;0;
ExtTrigOnTime;5;

Meas
BField [mT];MW_Absorption []
313.00722328186;73.1887431893821
313.028835611211;73.121613097438
313.050447940562;72.8602241836687
313.072060269913;72.5779519123614
313.093672599264;72.3036374845511
313.115284928616;72.0396886345887
313.136897257967;71.808445669038
313.158509587318;71.6218088980404
313.180121916669;71.4832141876634
313.20173424602;71.4059005821292
313.223346575371;71.3891817344525
313.244958904722;71.4200124987724
313.266571234073;71.4737197603222
313.288183563424;71.5309677424816
313.309795892775;71.5795746803036
313.331408222126;71.6155188335658
313.353020551477;71.646114473033
313.374632880828;71.6766620693517
313.396245210179;71.7093540503886
313.41785753953;71.7452196191324
313.439469868881;71.7780894518265
313.461082198232;71.8078871321067
313.482694527583;71.8417113859239
313.504306856934;71.8810027732388
313.525919186285;71.9182157919878
313.547531515636;71.9468250455827
313.569143844987;71.9618226759958
313.590756174338;71.9686153413067
313.612368503689;71.9605103577137
313.63398083304;71.9301033812539
313.655593162391;71.8705880385893
313.677205491742;71.7730390940873
313.698817821094;71.6359184815189
313.720430150445;71.4645148817603
313.742042479796;71.2623622134392
313.763654809147;71.0387054398957
313.785267138498;70.8073165199741
313.806879467849;70.5820226759247
313.8284917972;70.3767263036723
313.850104126551;70.2061140626882
313.871716455902;70.0885637968915
313.893328785253;70.0303487207721
313.914941114604;70.0273467375502
313.936553443955;70.0823909624282
313.958165773306;70.2005523106467
313.979778102657;70.3744608198023
314.001390432008;70.5914037629921
314.023002761359;70.8418821374645
314.04461509071;71.1176789390402
314.066227420061;71.4112284373152
314.087839749412;71.7046226075881
314.109452078763;71.973292983029
314.131064408114;72.1945232216708
314.152676737465;72.3594998021131
314.174289066816;72.4806374151806
314.195901396167;72.5632731484039
314.217513725518;72.5914889251351
314.239126054869;72.5606899040549
314.26073838422;72.484468396442
314.282350713571;72.3725640356211
314.303963042923;72.2295268275396
314.325575372274;72.0595535610391
314.347187701625;71.8594083626614
314.368800030976;71.6283210851394
314.390412360327;71.368805245085
314.412024689678;71.093604509394
314.433637019029;70.8293563878899
314.45524934838;70.5817096452699
314.476861677731;70.3498906290144
314.498474007082;70.1394234448546
314.520086336433;69.9624569993399
314.541698665784;69.8278800804067
314.563310995135;69.7366256888542
314.584923324486;69.6855113374059
314.606535653837;69.6705585211871
314.628147983188;69.6829364040496
314.649760312539;69.713741012397
314.67137264189;69.7647995511523
314.692984971241;69.8310599269551
314.714597300592;69.8983641212803
314.736209629943;69.9532310263856
314.757821959294;69.9917347193583
314.779434288645;70.0206047070389
314.801046617996;70.042812613592
314.822658947347;70.0554019388823
314.844271276698;70.0499802325104
314.865883606049;70.0231369926828
314.8874959354;69.9875324440743
314.909108264752;69.9602668236453
314.930720594103;69.9389790484021
314.952332923454;69.9234687497284
314.973945252805;69.9160439172015
314.995557582156;69.9097261347662
315.017169911507;69.8884605423586
315.038782240858;69.843021004613
315.060394570209;69.7657747260278
315.08200689956;69.6624395014304
315.103619228911;69.5428322005601
315.125231558262;69.3983630790818
315.146843887613;69.2201759464004
315.168456216964;69.000354179437
315.190068546315;68.7587054022135
315.211680875666;68.5249200234591
315.233293205017;68.3111147470975
315.254905534368;68.1107914884418
315.276517863719;67.9280923952274
315.29813019307;67.7663166677413
315.319742522421;67.6269326612733
315.341354851772;67.5249873091158
315.362967181123;67.4591613552394
315.384579510474;67.4224688440907
315.406191839825;67.4036966952082
315.427804169176;67.389198114503
315.449416498527;67.3595358232416
315.471028827878;67.2992886201079
315.49264115723;67.2094236403599
315.514253486581;67.0900971664877
315.535865815932;66.9330303209491
315.557478145283;66.7311398722589
315.579090474634;66.4783965787673
315.600702803985;66.1837557604551
315.622315133336;65.8658712702767
315.643927462687;65.5283422294471
315.665539792038;65.1624616042347
315.687152121389;64.7561442960946
315.70876445074;64.3350835487491
315.730376780091;63.9316242366881
315.751989109442;63.5394427397725
315.773601438793;63.1406398336307
315.795213768144;62.7138114855411
315.816826097495;62.2616271157584
315.838438426846;61.8074939876372
315.860050756197;61.3700630002594
315.881663085548;60.9431937541817
315.903275414899;60.523493013251
315.92488774425;60.1249597348834
315.946500073601;59.7624341184234
315.968112402952;59.4330873911535
315.989724732303;59.1391847455272
316.011337061654;58.88769801148
316.032949391005;58.6797419342353
316.054561720356;58.5146576702661
316.076174049707;58.3991725316368
316.097786379059;58.3370386547712
316.11939870841;58.3277473799966
316.141011037761;58.3688123298729
316.162623367112;58.4517130598139
316.184235696463;58.5605538707314
316.205848025814;58.6845439913548
316.227460355165;58.8206216994188
316.249072684516;58.9658152146533
316.270685013867;59.1158855062855
316.292297343218;59.2690454361326
316.313909672569;59.429988374681
316.33552200192;59.6094962362059
316.357134331271;59.8177504175032
316.378746660622;60.0632649131504
316.400358989973;60.3461050811468
316.421971319324;60.6569415471163
316.443583648675;60.9853565816575
316.465195978026;61.3277886807128
316.486808307377;61.6862886322968
316.508420636728;62.0661058282288
316.530032966079;62.4526693008177
316.55164529543;62.8233879719123
316.573257624781;63.1720527968831
316.594869954132;63.4898277941663
316.616482283483;63.7656944299301
316.638094612834;63.9969231789363
316.659706942185;64.1750124039796
316.681319271536;64.2826829501559
316.702931600888;64.3156738615549
316.724543930239;64.2728555138251
316.74615625959;64.160076221485
316.767768588941;63.9813512476517
316.789380918292;63.7328263163484
316.810993247643;63.4196630314904
316.832605576994;63.0890717194887
316.854217906345;62.7524669332251
316.875830235696;62.3940914491707
316.897442565047;62.0172970165591
316.919054894398;61.6558108969873
316.940667223749;61.3190531374089
316.9622795531;61.0057531892774
316.983891882451;60.7161704023133
317.005504211802;60.461839659082
317.027116541153;60.2560182939149
317.048728870504;60.1083452529784
317.070341199855;60.0249346902948
317.091953529206;60.0078039884522
317.113565858557;60.034198020342
317.135178187908;60.09054629033
317.156790517259;60.1764436620744
317.17840284661;60.2914926899854
317.200015175961;60.4284469963726
317.221627505312;60.5827726899843
317.243239834663;60.752887019596
317.264852164014;60.9188057894596
317.286464493365;61.0710206141447
317.308076822716;61.2149541761035
317.329689152068;61.3365538050239
317.351301481419;61.4251873444906
317.37291381077;61.4960094141881
317.394526140121;61.5549389420136
317.416138469472;61.6045342134203
317.437750798823;61.6578342771494
317.459363128174;61.7240172471595
317.480975457525;61.7822624857489
317.502587786876;61.818688035195
317.524200116227;61.8384997231742
317.545812445578;61.8379301534342
317.567424774929;61.8095517413543
317.58903710428;61.7551888365236
317.610649433631;61.6866604114985
317.632261762982;61.6026141483061
317.653874092333;61.4837237648121
317.675486421684;61.3242051715242
317.697098751035;61.1491997038216
317.718711080386;60.9730813179462
317.740323409737;60.7881034705846
317.761935739088;60.5868394689198
317.783548068439;60.3889305478392
317.80516039779;60.228785169014
317.826772727141;60.1107533624297
317.848385056492;60.0274047792119
317.869997385843;59.973797399791
317.891609715194;59.9472046382249
317.913222044545;59.9449450827555
317.934834373897;59.9660353417349
317.956446703248;60.0062835841648
317.978059032599;60.0505321303421
317.99967136195;60.0801125344697
318.021283691301;60.0995681150027
318.042896020652;60.1136710475877
318.064508350003;60.114740643025
318.086120679354;60.0957754727749
318.107733008705;60.05699892393
318.129345338056;59.9969651930591
318.150957667407;59.9106428252124
318.172569996758;59.797665988389
318.194182326109;59.6685870349689
318.21579465546;59.5375146965358
318.237406984811;59.3953833476643
318.259019314162;59.2376682299189
318.280631643513;59.0867645523779
318.302243972864;58.9646535170689
318.323856302215;58.8621606852766
318.345468631566;58.7626726736156
318.367080960917;58.67820650977
318.388693290268;58.6302143262043
318.410305619619;58.6321285684902
318.43191794897;58.6801139490506
318.453530278321;58.7623669897926
318.475142607672;58.8701989860099
318.496754937023;58.9885200584879
318.518367266374;59.1080481839893
318.539979595726;59.2326584787198
318.561591925077;59.3628316815581
318.583204254428;59.4910570829168
318.604816583779;59.5930627478959
318.62642891313;59.6565075006318
318.648041242481;59.6910152115984
318.669653571832;59.6989663749801
318.691265901183;59.6710524622572
318.712878230534;59.6019568696577
318.734490559885;59.494771515183
318.756102889236;59.352577529794
318.777715218587;59.1795969842785
318.799327547938;58.988613091392
318.820939877289;58.7699453370801
318.84255220664;58.5238285711149
318.864164535991;58.2641985156313
318.885776865342;58.0043807681474
318.907389194693;57.7489917509022
318.929001524044;57.4992903962471
318.950613853395;57.2708469485321
318.972226182746;57.0794036922276
318.993838512097;56.9291204456484
319.015450841448;56.8171240051372
319.037063170799;56.740836009432
319.05867550015;56.7081750151147
319.080287829501;56.7175719269194
319.101900158852;56.7537747018574
319.123512488204;56.8152088683633
319.145124817555;56.8957445009931
319.166737146906;56.9886071858106
319.188349476257;57.0906801823553
319.209961805608;57.1903377288925
319.231574134959;57.277827992992
319.25318646431;57.3467721492804
319.274798793661;57.3935220892203
319.296411123012;57.4232400361436
319.318023452363;57.4442439493096
319.339635781714;57.45440776571
319.361248111065;57.4484520788155
319.382860440416;57.4248916055075
319.404472769767;57.3852323497612
319.426085099118;57.3253440807225
319.447697428469;57.2501349475709
319.46930975782;57.1789492906082
319.490922087171;57.1122080664785
319.512534416522;57.0227406222954
319.534146745873;56.9092527837026
319.555759075224;56.7855028407288
319.577371404575;56.6577134876951
319.598983733926;56.5198875610529
319.620596063277;56.3643198777203
319.642208392628;56.1905612183469
319.663820721979;56.0110608368196
319.68543305133;55.8316527870944
319.707045380681;55.6479133265173
319.728657710033;55.4608280727216
319.750270039384;55.2792084223448
319.771882368735;55.1176850513226
319.793494698086;54.9894072677957
319.815107027437;54.905867527698
319.836719356788;54.8714589405241
319.858331686139;54.8849375284536
319.87994401549;54.9468565926119
319.901556344841;55.0557011519165
319.923168674192;55.2071456417049
319.944781003543;55.3981477579828
319.966393332894;55.6196243059634
319.988005662245;55.8613321196942
320.009617991596;56.1157550832095
320.031230320947;56.3721207906864
320.052842650298;56.6164482804369
320.074454979649;56.8323635260002
320.096067309;57.0036365223306
320.117679638351;57.121716031275
320.139291967702;57.1850493081409
320.160904297053;57.192892419214
320.182516626404;57.1467959014859
320.204128955755;57.0558237613395
320.225741285106;56.9298093529219
320.247353614457;56.7754787120992
320.268965943808;56.5966936486
320.290578273159;56.4004286648987
320.31219060251;56.1978549679435
320.333802931862;55.9953085206579
320.355415261213;55.7970835496729
320.377027590564;55.6088660378489
320.398639919915;55.435011694414
320.420252249266;55.2761545247705
320.441864578617;55.1264896695106
320.463476907968;54.9928809631983
320.485089237319;54.8866966828631
320.50670156667;54.808450386077
320.528313896021;54.7540276551733
320.549926225372;54.7102541608658
320.571538554723;54.6688499524372
320.593150884074;54.6283681478993
320.614763213425;54.5886660736437
320.636375542776;54.5494590306226
320.657987872127;54.5103154820908
320.679600201478;54.4674556724551
320.701212530829;54.4174861204092
320.72282486018;54.3629361370807
320.744437189531;54.3210031611266
320.766049518882;54.3044082716503
320.787661848233;54.3034243931759
320.809274177584;54.3145222933616
320.830886506935;54.3305051767369
320.852498836286;54.352464669272
320.874111165637;54.3837092364038
320.895723494988;54.4170554743992
320.917335824339;54.444237520691
320.93894815369;54.4571027344301
320.960560483042;54.4421935884839
320.982172812393;54.3823156139926
321.003785141744;54.2617044681223
321.025397471095;54.0803925583002
321.047009800446;53.8402661105399
321.068622129797;53.5421964445357
321.090234459148;53.1951829965263
321.111846788499;52.8114031627645
321.13345911785;52.3948256672828
321.155071447201;51.9409335298467
321.176683776552;51.4506495207585
321.198296105903;50.9355351617524
321.219908435254;50.4099307533101
321.241520764605;49.881454472113
321.263133093956;49.3508139283447
321.284745423307;48.8242781578909
321.306357752658;48.3355686091021
321.327970082009;47.8987768910043
321.34958241136;47.4903273922367
321.371194740711;47.0937705028782
321.392807070062;46.7216169276642
321.414419399413;46.400599453428
321.436031728764;46.1421125408034
321.457644058115;45.9314671782961
321.479256387466;45.746269039395
321.500868716817;45.5731068650659
321.522481046168;45.4080336017462
321.544093375519;45.25729307737
321.565705704871;45.119023379556
321.587318034222;44.9854497989841
321.608930363573;44.8453714936626
321.630542692924;44.6963316776031
321.652155022275;44.5452482188898
321.673767351626;44.3937866295171
321.695379680977;44.2365092962394
321.716992010328;44.0714383513428
321.738604339679;43.8973920833547
321.76021666903;43.7155430311391
321.781828998381;43.5288149688528
321.803441327732;43.3468227942577
321.825053657083;43.1726595118986
321.846665986434;43.0111370719212
321.868278315785;42.8666140893422
321.889890645136;42.7455337993061
321.911502974487;42.6671436993992
321.933115303838;42.6372634928446
321.954727633189;42.6354323386117
321.97633996254;42.6566571066462
321.997952291891;42.7071365150456
322.019564621242;42.7968283105917
322.041176950593;42.9288847271639
322.062789279944;43.1067260924132
322.084401609295;43.3167371151619
322.106013938646;43.5428056445588
322.127626267997;43.781068084992
322.149238597348;44.0299573870319
322.1708509267;44.2872901522091
322.192463256051;44.5591330246591
322.214075585402;44.8463219061122
322.235687914753;45.1464769792857
322.257300244104;45.4569106906236
322.278912573455;45.772258180215
322.300524902806;46.0854663066634
322.322137232157;46.3908107105301
322.343749561508;46.6843647487309
322.365361890859;46.9554116429757
322.38697422021;47.2111375741075
322.408586549561;47.4545189291478
322.430198878912;47.6802297995985
322.451811208263;47.8752867838238
322.473423537614;48.0216851709354
322.495035866965;48.1036563035428
322.516648196316;48.1317116123133
322.538260525667;48.1036701102356
322.559872855018;48.0199444828766
322.581485184369;47.8792997633346
322.60309751372;47.6689735462595
322.624709843071;47.4042933734324
322.646322172422;47.0955085839656
322.667934501773;46.7397992497218
322.689546831124;46.3281540784512
322.711159160475;45.8628228793671
322.732771489826;45.3668703205894
322.754383819178;44.8397191242059
322.775996148529;44.2885740433448
322.79760847788;43.7462837337256
322.819220807231;43.2141513634485
322.840833136582;42.6932481936575
322.862445465933;42.2080318916596
322.884057795284;41.7802951981788
322.905670124635;41.3963630767505
322.927282453986;41.064891258385
322.948894783337;40.7965096721379
322.970507112688;40.5857999581686
322.992119442039;40.4328451358219
323.01373177139;40.3333704367842
323.035344100741;40.2719233200078
323.056956430092;40.2355811334893
323.078568759443;40.2131137790813
323.100181088794;40.1915056549424
323.121793418145;40.1650883387735
323.143405747496;40.1425798258524
323.165018076847;40.1214081307518
323.186630406198;40.0912428251949
323.208242735549;40.0432081447513
323.2298550649;39.98551568828
323.251467394251;39.9396319460188
323.273079723602;39.9101993271395
323.294692052953;39.8984961629347
323.316304382304;39.9091759495268
323.337916711655;39.9530626724324
323.359529041007;40.0396422504548
323.381141370358;40.1736550798556
323.402753699709;40.3461793616043
323.42436602906;40.5484709731994
323.445978358411;40.7647358102852
323.467590687762;40.980361103646
323.489203017113;41.1892456374783
323.510815346464;41.3763304904505
323.532427675815;41.5233682366662
323.554040005166;41.6186108248826
323.575652334517;41.6566484389239
323.597264663868;41.6352462245832
323.618876993219;41.5632898252524
323.64048932257;41.4488468470862
323.662101651921;41.2867391665482
323.683713981272;41.0682820770309
323.705326310623;40.8098741936844
323.726938639974;40.5404437302468
323.748550969325;40.275839720987
323.770163298676;40.026315967669
323.791775628027;39.7939252223888
323.813387957378;39.5714740758662
323.835000286729;39.3544951707246
323.85661261608;39.154053236131
323.878224945431;38.9778230335214
323.899837274782;38.8233015721168
323.921449604133;38.6827899886907
323.943061933484;38.5524121651135
323.964674262836;38.4383886847447
323.986286592187;38.3507989164086
324.007898921538;38.2912286240993
324.029511250889;38.2626137699921
324.05112358024;38.2706186397979
324.072735909591;38.3169270610831
324.094348238942;38.3968441357728
324.115960568293;38.5009320145426
324.137572897644;38.6236022297707
324.159185226995;38.765489792852
324.180797556346;38.9263147926907
324.202409885697;39.0742135142858
324.224022215048;39.1814321345343
324.245634544399;39.2466588444052
324.26724687375;39.2672392615488
324.288859203101;39.2389729784768
324.310471532452;39.1669786133256
324.332083861803;39.044683000026
324.353696191154;38.8699980994004
324.375308520505;38.6638938902517
324.396920849856;38.4536416530024
324.418533179207;38.2541473417638
324.440145508558;38.0735327778385
324.461757837909;37.9130576934765
324.48337016726;37.7705124613934
324.504982496611;37.643440892798
324.526594825962;37.5252371318828
324.548207155313;37.4083335315215
324.569819484664;37.2974810066695
324.591431814016;37.1856410222145
324.613044143367;37.058471769586
324.634656472718;36.9039545155596
324.656268802069;36.7178541062928
324.67788113142;36.4968044462714
324.699493460771;36.2351375967129
324.721105790122;35.9369128042516
324.742718119473;35.6122685049362
324.764330448824;35.2661949791564
