Name;BF_ESR_01_90s_X_gon_140dg_result

Recipe
Accumulations;5;Number of accumulations
RetryCount;0;Number of retries on error
AbortOnError;True;Abort on error
EnableQFactorMeasurement;False;Enable/Disable q-Factor measurement
Bfrom;313;B from
Bto;363;B to
SweepTime;60;Sweep time
Modulation;0.2;Modulation
ModulationFreq;100;Modulation
BHoldEnabled;False;B hold enabled
BHold;0;B hold
MicrowavePower;2;Microwave power
MarkerEnabled;False;
MarkerStartField;0;
MarkerEndField;0;
Mode;;
KineticGFact;0;
KineticTotalTransientTime;0;
KineticTimeResolution;0;
TempFrom;5;
TempUseSlope;False;
TempTo;5;
TempdT;1;
TempSetupTime;0;
GonFrom;0;
GonTo;180;
GonSteps;20;
XRayEnabled;False;
XRayTime;3;
XRayVoltage;40;
XRayCurrent;0.5;
UVEnabled;False;
UVIntensity;0;
UVTime;0;
UVLeadTime;0;
UVWavelength;0;
PowSweepFrom;1;
PowSweepTo;5;
PowSweepSteps;5;
AmpModSweepFrom;0;
AmpModSweepTo;1;
AmpModSweepSteps;10;
ExtTriggerEnabled;False;
ExtTrigLeadTime;0;
ExtTrigOnTime;5;

Meas
BField [mT];MW_Absorption []
313.012462158203;111.847328857335
313.034078986029;111.827219117544
313.055695813855;111.927010286802
313.07731264168;112.008414220038
313.098929469506;112.067068237828
313.120546297332;112.121434349056
313.142163125157;112.17878169033
313.163779952983;112.226510518627
313.185396780809;112.260723856483
313.207013608635;112.287137600348
313.22863043646;112.306080107539
313.250247264286;112.321204082017
313.271864092112;112.334049873972
313.293480919937;112.337565313386
313.315097747763;112.320668458842
313.336714575589;112.291168840297
313.358331403415;112.265632974256
313.37994823124;112.241545599928
313.401565059066;112.214396857985
313.423181886892;112.188337548072
313.444798714717;112.163293173459
313.466415542543;112.130107311298
313.488032370369;112.094677846938
313.509649198195;112.067360529896
313.53126602602;112.049750584243
313.552882853846;112.025332386858
313.574499681672;111.974515642269
313.596116509497;111.887969883526
313.617733337323;111.766879843796
313.639350165149;111.621469799196
313.660966992975;111.448065087464
313.6825838208;111.238108656036
313.704200648626;110.992186338429
313.725817476452;110.712055289177
313.747434304277;110.399200133175
313.769051132103;110.054539534435
313.790667959929;109.68683702446
313.812284787754;109.326120196414
313.83390161558;108.988936042267
313.855518443406;108.690005996731
313.877135271232;108.43112319701
313.898752099057;108.20232391267
313.920368926883;107.993918017036
313.941985754709;107.797684214807
313.963602582535;107.60508879973
313.98521941036;107.422196008317
314.006836238186;107.252798858712
314.028453066012;107.065735389722
314.050069893837;106.85144814861
314.071686721663;106.625322137981
314.093303549489;106.387664220189
314.114920377314;106.134112886496
314.13653720514;105.865307367706
314.158154032966;105.589014339286
314.179770860792;105.315291433926
314.201387688617;105.044529383513
314.223004516443;104.779300105347
314.244621344269;104.527170471375
314.266238172095;104.29558569846
314.28785499992;104.095393348887
314.309471827746;103.927353885331
314.331088655572;103.776089383059
314.352705483397;103.633596829067
314.374322311223;103.498014597841
314.395939139049;103.366832655147
314.417555966874;103.213586937451
314.4391727947;103.016052903901
314.460789622526;102.757735431465
314.482406450352;102.43963407229
314.504023278177;102.070298814738
314.525640106003;101.659652496487
314.547256933829;101.22094126842
314.568873761655;100.768515752107
314.59049058948;100.315792150302
314.612107417306;99.8856848165782
314.633724245132;99.4896173825691
314.655341072957;99.1320171808216
314.676957900783;98.8177063470361
314.698574728609;98.5641219899273
314.720191556434;98.3944087166914
314.74180838426;98.3076517250106
314.763425212086;98.2921829841165
314.785042039912;98.3412671767004
314.806658867737;98.4352926041883
314.828275695563;98.5702776145359
314.849892523389;98.7453559110259
314.871509351215;98.9510489755793
314.89312617904;99.1780674059173
314.914743006866;99.4102519365155
314.936359834692;99.6294483743479
314.957976662517;99.836010451618
314.979593490343;100.041197005989
315.001210318169;100.244190157549
315.022827145994;100.438402163092
315.04444397382;100.623971347072
315.066060801646;100.79624950599
315.087677629472;100.953618810959
315.109294457297;101.103085986943
315.130911285123;101.247656851283
315.152528112949;101.381372780312
315.174144940775;101.499480492805
315.1957617686;101.606063824862
315.217378596426;101.711541634994
315.238995424252;101.820505595544
315.260612252077;101.926832386024
315.282229079903;102.024005337484
315.303845907729;102.111486473573
315.325462735554;102.193302102369
315.34707956338;102.270008202689
315.368696391206;102.334598212452
315.390313219032;102.382754723315
315.411930046857;102.41622134508
315.433546874683;102.439916705115
315.455163702509;102.453644570391
315.476780530335;102.448680347135
315.49839735816;102.421689847247
315.520014185986;102.361643915566
315.541631013812;102.258524319561
315.563247841637;102.124224923781
315.584864669463;101.972325397231
315.606481497289;101.797633316114
315.628098325114;101.5869653805
315.64971515294;101.340841139435
315.671331980766;101.081810437237
315.692948808592;100.82224494829
315.714565636417;100.576275746793
315.736182464243;100.358346947003
315.757799292069;100.171854019743
315.779416119894;100.016870841618
315.80103294772;99.8955701986013
315.822649775546;99.802395412787
315.844266603372;99.7309528590094
315.865883431197;99.6770746947097
315.887500259023;99.6356296932768
315.909117086849;99.5982966443128
315.930733914674;99.5543015498917
315.9523507425;99.4923169637698
315.973967570326;99.3970537292353
315.995584398152;99.2703079373638
316.017201225977;99.1120432835712
316.038818053803;98.9247057515228
316.060434881629;98.7130372963677
316.082051709454;98.4750987656394
316.10366853728;98.2114089894797
316.125285365106;97.9199302693706
316.146902192932;97.6180669635265
316.168519020757;97.3392668677994
316.190135848583;97.0891551818725
316.211752676409;96.8603384250628
316.233369504234;96.6568587846213
316.25498633206;96.4932791753729
316.276603159886;96.3694148723098
316.298219987712;96.2811412437051
316.319836815537;96.2338412470166
316.341453643363;96.2317675010466
316.363070471189;96.2723351155085
316.384687299014;96.3523498182072
316.40630412684;96.465311939658
316.427920954666;96.6106345399103
316.449537782492;96.7924084954517
316.471154610317;97.0082628962765
316.492771438143;97.2511939327988
316.514388265969;97.5088475829129
316.536005093794;97.7732797361262
316.55762192162;98.045435784281
316.579238749446;98.3186395129604
316.600855577272;98.572357800025
316.622472405097;98.7750649504321
316.644089232923;98.9060300294649
316.665706060749;98.9576317764124
316.687322888574;98.9293557306094
316.7089397164;98.8270942346427
316.730556544226;98.6560678318148
316.752173372052;98.4088493574441
316.773790199877;98.0710161699183
316.795407027703;97.6462828322764
316.817023855529;97.1654225868101
316.838640683354;96.6490701072502
316.86025751118;96.0956837808572
316.881874339006;95.4954508242746
316.903491166832;94.8478754576811
316.925107994657;94.1793989203687
316.946724822483;93.5175543482477
316.968341650309;92.8865431305853
316.989958478134;92.2661449650499
317.01157530596;91.6345128203748
317.033192133786;91.0033654964762
317.054808961612;90.3939214946992
317.076425789437;89.8100723491028
317.098042617263;89.2593478360288
317.119659445089;88.7504695030965
317.141276272914;88.277045693057
317.16289310074;87.8370013204886
317.184509928566;87.4356338480883
317.206126756392;87.0758696128003
317.227743584217;86.7537233408986
317.249360412043;86.4685469764112
317.270977239869;86.2237178676193
317.292594067694;86.0123472569175
317.31421089552;85.8196626255378
317.335827723346;85.6212684726473
317.357444551172;85.4025674474564
317.379061378997;85.1796460054753
317.400678206823;84.9613573331772
317.422295034649;84.752134542605
317.443911862474;84.5528887619704
317.4655286903;84.3575666177795
317.487145518126;84.1558963687969
317.508762345952;83.9414545086307
317.530379173777;83.7263787511491
317.551996001603;83.5204104376513
317.573612829429;83.3155513526076
317.595229657254;83.0966949002494
317.61684648508;82.8635398275104
317.638463312906;82.6227418535389
317.660080140732;82.3747892339243
317.681696968557;82.1132681355672
317.703313796383;81.8339561779098
317.724930624209;81.540082578177
317.746547452034;81.2427358341747
317.76816427986;80.9375193242781
317.789781107686;80.6015004884183
317.811397935512;80.2310492820571
317.833014763337;79.8503762104989
317.854631591163;79.4684568376331
317.876248418989;79.0814893661946
317.897865246814;78.6930141767161
317.91948207464;78.306500477833
317.941098902466;77.9249640892514
317.962715730292;77.5616455941284
317.984332558117;77.228347457799
318.005949385943;76.9280946452782
318.027566213769;76.6592559844212
318.049183041594;76.4177803868264
318.07079986942;76.2039300523639
318.092416697246;76.0224656445029
318.114033525072;75.871466537599
318.135650352897;75.7462200746497
318.157267180723;75.6503543466921
318.178884008549;75.58777631814
318.200500836374;75.5594323626294
318.2221176642;75.5567964584407
318.243734492026;75.5660393690968
318.265351319852;75.586295659778
318.286968147677;75.622062939114
318.308584975503;75.6724107225873
318.330201803329;75.7342815544536
318.351818631154;75.801587671569
318.37343545898;75.8715355579196
318.395052286806;75.9419514017378
318.416669114632;76.0033732867481
318.438285942457;76.0465720598052
318.459902770283;76.0632306781125
318.481519598109;76.0507968014035
318.503136425934;76.0120528556525
318.52475325376;75.9554018513891
318.546370081586;75.8867623763488
318.567986909412;75.8133534630807
318.589603737237;75.7438291509644
318.611220565063;75.6846512292927
318.632837392889;75.6389721860522
318.654454220714;75.6134825855014
318.67607104854;75.6200250428531
318.697687876366;75.6682817545956
318.719304704192;75.7666683234519
318.740921532017;75.9271642864965
318.762538359843;76.1601649068285
318.784155187669;76.4601745821629
318.805772015494;76.8270802629639
318.82738884332;77.2534619969877
318.849005671146;77.7054570553167
318.870622498972;78.172781741846
318.892239326797;78.6627428957749
318.913856154623;79.171805996918
318.935472982449;79.6793894550257
318.957089810274;80.1714613241418
318.9787066381;80.6581246980645
319.000323465926;81.1539608126101
319.021940293752;81.6694761029966
319.043557121577;82.1903935445518
319.065173949403;82.6984205551697
319.086790777229;83.1874227204654
319.108407605054;83.6610066737279
319.13002443288;84.1327069979202
319.151641260706;84.6175339907224
319.173258088532;85.1119066395023
319.194874916357;85.6004343773764
319.216491744183;86.0641553891505
319.238108572009;86.4912588122493
319.259725399834;86.8746436868971
319.28134222766;87.2191012561175
319.302959055486;87.526214929684
319.324575883312;87.7859452927627
319.346192711137;88.0007228647659
319.367809538963;88.1767691517288
319.389426366789;88.3276293507363
319.411043194614;88.4663947816752
319.43266002244;88.6085114519287
319.454276850266;88.7743222308102
319.475893678092;88.9729886088716
319.497510505917;89.2104720201478
319.519127333743;89.4962865404425
319.540744161569;89.8224148306341
319.562360989394;90.1726453385352
319.58397781722;90.5433418662315
319.605594645046;90.9372678286168
319.627211472872;91.3386302694035
319.648828300697;91.7216538578278
319.670445128523;92.0689532452811
319.692061956349;92.3653039958558
319.713678784174;92.5962510411148
319.735295612;92.7598186217576
319.756912439826;92.8652928061541
319.778529267652;92.9103812617297
319.800146095477;92.8888329692633
319.821762923303;92.809017571256
319.843379751129;92.6892944148879
319.864996578954;92.5388707311863
319.88661340678;92.3625143204485
319.908230234606;92.1691307513722
319.929847062432;91.9789701210975
319.951463890257;91.8080915035243
319.973080718083;91.6629882568879
319.994697545909;91.5444977493729
320.016314373734;91.4598893279514
320.03793120156;91.414692739168
320.059548029386;91.4079629040412
320.081164857212;91.438837836812
320.102781685037;91.50974677074
320.124398512863;91.6197527118135
320.146015340689;91.7724050822443
320.167632168514;91.9832466712497
320.18924899634;92.2722691433354
320.210865824166;92.6369514896116
320.232482651992;93.0552851438921
320.254099479817;93.5195487972782
320.275716307643;94.0370550672337
320.297333135469;94.6142488799368
320.318949963294;95.2441756743549
320.34056679112;95.8972778300735
320.362183618946;96.5463821684157
320.383800446772;97.1730453349314
320.405417274597;97.7443505875835
320.427034102423;98.2323605538919
320.448650930249;98.629140227185
320.470267758074;98.929438428592
320.4918845859;99.124130367891
320.513501413726;99.2103760704974
320.535118241552;99.1912230115639
320.556735069377;99.076047856918
320.578351897203;98.8792080091351
320.599968725029;98.6113057588412
320.621585552854;98.2828869745645
320.64320238068;97.9011939744484
320.664819208506;97.4740974178405
320.686436036332;97.0305522816262
320.708052864157;96.6090379464726
320.729669691983;96.2290659640306
320.751286519809;95.876299305407
320.772903347634;95.5357022465266
320.79452017546;95.2181408109816
320.816137003286;94.9464038695388
320.837753831112;94.7190070587396
320.859370658937;94.5363407176501
320.880987486763;94.4088191805316
320.902604314589;94.3369005671266
320.924221142414;94.3119040039853
320.94583797024;94.3298819858708
320.967454798066;94.3844681078594
320.989071625891;94.4669802124718
321.010688453717;94.5703554324473
321.032305281543;94.6885866793775
321.053922109369;94.8166044384042
321.075538937194;94.9456527790477
321.09715576502;95.0646300100647
321.118772592846;95.1589605935983
321.140389420672;95.2112485051277
321.162006248497;95.2169324546888
321.183623076323;95.1858672839183
321.205239904149;95.1277360696927
321.226856731974;95.037544487548
321.2484735598;94.9186773219386
321.270090387626;94.7895937994506
321.291707215451;94.6647747916316
321.313324043277;94.5540065349398
321.334940871103;94.4643688956889
321.356557698929;94.4041340963728
321.378174526754;94.385943253342
321.39979135458;94.4169863317323
321.421408182406;94.4982885022981
321.443025010232;94.6287823219199
321.464641838057;94.8029111023681
321.486258665883;95.0074593485963
321.507875493709;95.2407351486785
321.529492321534;95.50754716588
321.55110914936;95.810124701239
321.572725977186;96.1418955395555
321.594342805011;96.4890680636653
321.615959632837;96.8469154698001
321.637576460663;97.2210496775959
321.659193288489;97.6102928551618
321.680810116314;98.0069668461976
321.70242694414;98.402815867248
321.724043771966;98.7959534172136
321.745660599792;99.193201741355
321.767277427617;99.5937036736632
321.788894255443;99.9957733496851
321.810511083269;100.406180856122
321.832127911094;100.831622710329
321.85374473892;101.275485060875
321.875361566746;101.729594025364
321.896978394571;102.192925411797
321.918595222397;102.669235755783
321.940212050223;103.144963702655
321.961828878049;103.608877772904
321.983445705874;104.06068048707
322.0050625337;104.501120435189
322.026679361526;104.924574144007
322.048296189352;105.321765740129
322.069913017177;105.685073027886
322.091529845003;106.010496470483
322.113146672829;106.296299992175
322.134763500654;106.543020455938
322.15638032848;106.75069101858
322.177997156306;106.912905461527
322.199613984131;107.031361194468
322.221230811957;107.114392242493
322.242847639783;107.178505437393
322.264464467609;107.251816824592
322.286081295434;107.343412995083
322.30769812326;107.457456115165
322.329314951086;107.594483691061
322.350931778912;107.755102528242
322.372548606737;107.94485573455
322.394165434563;108.170557724531
322.415782262389;108.432330569028
322.437399090214;108.724474101259
322.45901591804;109.034693697082
322.480632745866;109.342471818603
322.502249573691;109.629137639178
322.523866401517;109.891665334486
322.545483229343;110.129861646566
322.567100057169;110.334377227766
322.588716884994;110.490098877006
322.61033371282;110.59207462395
322.631950540646;110.641800103824
322.653567368472;110.652865966414
322.675184196297;110.62644925455
322.696801024123;110.550274644937
322.718417851949;110.418856817719
322.740034679774;110.24713020219
322.7616515076;110.055043532837
322.783268335426;109.853858641458
322.804885163251;109.64914716902
322.826501991077;109.445418197712
322.848118818903;109.250117772375
322.869735646729;109.070633937371
322.891352474554;108.903140761779
322.91296930238;108.744545695494
322.934586130206;108.595661928696
322.956202958031;108.465704205525
322.977819785857;108.345553934358
322.999436613683;108.206836057214
323.021053441509;108.045430408002
323.042670269334;107.882429146415
323.06428709716;107.716112497106
323.085903924986;107.532140631286
323.107520752811;107.338174560082
323.129137580637;107.164860666314
323.150754408463;107.048556662467
323.172371236289;106.975495047244
323.193988064114;106.945215148866
323.21560489194;106.979000852707
323.237221719766;107.081203076873
323.258838547591;107.242274350526
323.280455375417;107.464236573398
323.302072203243;107.753701633895
323.323689031069;108.108967516095
323.345305858894;108.51299194234
323.36692268672;108.950215358705
323.388539514546;109.414867071053
323.410156342371;109.892046692743
323.431773170197;110.363699995461
323.453389998023;110.814433906833
323.475006825849;111.230350719117
323.496623653674;111.606595224209
323.5182404815;111.944758111679
323.539857309326;112.234434800328
323.561474137151;112.472568127105
323.583090964977;112.662596195493
323.604707792803;112.808447365975
323.626324620629;112.914013634178
323.647941448454;112.986245847893
323.66955827628;113.040172221606
323.691175104106;113.08921591279
323.712791931931;113.138284448537
323.734408759757;113.19449080152
323.756025587583;113.274446820511
323.777642415409;113.387300334401
323.799259243234;113.536375000873
323.82087607106;113.723820288618
323.842492898886;113.955374700351
323.864109726711;114.230363649159
323.885726554537;114.553037151845
323.907343382363;114.931345942442
323.928960210189;115.359453191101
323.950577038014;115.824877425006
323.97219386584;116.314809623227
323.993810693666;116.818551811423
324.015427521491;117.32611901162
324.037044349317;117.828776358824
324.058661177143;118.333742072204
324.080278004969;118.845944576397
324.101894832794;119.353165232933
324.12351166062;119.834100888241
324.145128488446;120.280306238065
324.166745316271;120.696325044531
324.188362144097;121.063495586967
324.209978971923;121.372556339092
324.231595799749;121.635354072186
324.253212627574;121.865260364085
324.2748294554;122.056471425157
324.296446283226;122.186945358406
324.318063111051;122.254776192589
324.339679938877;122.267202776256
324.361296766703;122.233686183864
324.382913594529;122.159246968964
324.404530422354;122.032481372071
324.42614725018;121.846753599767
324.447764078006;121.608901617095
324.469380905831;121.324569251688
324.490997733657;120.989407295225
324.512614561483;120.596680973057
324.534231389309;120.138430536193
324.555848217134;119.612579638152
324.57746504496;119.032060187465
324.599081872786;118.402006452603
324.620698700611;117.727438349254
324.642315528437;117.036055790319
324.663932356263;116.338157378198
324.685549184089;115.621886368082
324.707166011914;114.898692054734
324.72878283974;114.215633997746
324.750399667566;113.584686702306
324.772016495391;113.001366025171
324.793633323217;112.452526559564
