Name;BF_ESR_01_90s_X_gon_40dg_result

Recipe
Accumulations;5;Number of accumulations
RetryCount;0;Number of retries on error
AbortOnError;True;Abort on error
EnableQFactorMeasurement;False;Enable/Disable q-Factor measurement
Bfrom;313;B from
Bto;363;B to
SweepTime;60;Sweep time
Modulation;0.2;Modulation
ModulationFreq;100;Modulation
BHoldEnabled;False;B hold enabled
BHold;0;B hold
MicrowavePower;2;Microwave power
MarkerEnabled;False;
MarkerStartField;0;
MarkerEndField;0;
Mode;;
KineticGFact;0;
KineticTotalTransientTime;0;
KineticTimeResolution;0;
TempFrom;5;
TempUseSlope;False;
TempTo;5;
TempdT;1;
TempSetupTime;0;
GonFrom;0;
GonTo;180;
GonSteps;20;
XRayEnabled;False;
XRayTime;3;
XRayVoltage;40;
XRayCurrent;0.5;
UVEnabled;False;
UVIntensity;0;
UVTime;0;
UVLeadTime;0;
UVWavelength;0;
PowSweepFrom;1;
PowSweepTo;5;
PowSweepSteps;5;
AmpModSweepFrom;0;
AmpModSweepTo;1;
AmpModSweepSteps;10;
ExtTriggerEnabled;False;
ExtTrigLeadTime;0;
ExtTrigOnTime;5;

Meas
BField [mT];MW_Absorption []
313.022908554077;76.1096059817133
313.04452469288;75.6845069046307
313.066140831684;75.2771775416287
313.087756970487;74.8726577092334
313.10937310929;74.457187138527
313.130989248093;74.0331173392019
313.152605386897;73.6065560347072
313.1742215257;73.1822508177593
313.195837664503;72.7661107141488
313.217453803306;72.3629729598144
313.23906994211;71.9719019203276
313.260686080913;71.5982195420573
313.282302219716;71.2417002182505
313.303918358519;70.8985571565099
313.325534497323;70.5943066201328
313.347150636126;70.3482476294126
313.368766774929;70.1540261251297
313.390382913732;70.0000075771917
313.411999052536;69.8710128525099
313.433615191339;69.7606107097414
313.455231330142;69.675816303355
313.476847468945;69.6154498844019
313.498463607748;69.5720801553665
313.520079746552;69.5348249994856
313.541695885355;69.4984181144077
313.563312024158;69.4653640853169
313.584928162961;69.4411473002162
313.606544301765;69.4398013730149
313.628160440568;69.4777449497079
313.649776579371;69.5631669676059
313.671392718174;69.687293191285
313.693008856978;69.8453035633285
313.714624995781;70.0410022193262
313.736241134584;70.2773724019097
313.757857273387;70.5475609399351
313.779473412191;70.8323037331644
313.801089550994;71.1106571619641
313.822705689797;71.3879581069941
313.8443218286;71.664086079738
313.865937967404;71.9321820569148
313.887554106207;72.1921988153345
313.90917024501;72.4391789868143
313.930786383813;72.6681829242875
313.952402522617;72.883397948931
313.97401866142;73.0887486672762
313.995634800223;73.284628053188
314.017250939026;73.4779660176542
314.03886707783;73.6668137861584
314.060483216633;73.8421841066912
314.082099355436;73.9998003950178
314.103715494239;74.1418353768091
314.125331633042;74.2778206875494
314.146947771846;74.4191497473466
314.168563910649;74.5716483053362
314.190180049452;74.7350992927835
314.211796188255;74.9154824389108
314.233412327059;75.126041566263
314.255028465862;75.3839357680306
314.276644604665;75.7007598482719
314.298260743468;76.0800035277536
314.319876882272;76.5062149168585
314.341493021075;76.962869660755
314.363109159878;77.4446282945777
314.384725298681;77.9486379246296
314.406341437485;78.4764331730011
314.427957576288;79.0199877848274
314.449573715091;79.5651261788248
314.471189853894;80.0977043674709
314.492805992698;80.6048712149004
314.514422131501;81.0755721587015
314.536038270304;81.503046643624
314.557654409107;81.9021647719458
314.579270547911;82.2840904869026
314.600886686714;82.6284485203387
314.622502825517;82.9390127274423
314.64411896432;83.2261781640189
314.665735103124;83.5000351521004
314.687351241927;83.7731957114479
314.70896738073;84.0568576675436
314.730583519533;84.348914327889
314.752199658337;84.6483662051124
314.77381579714;84.9638427547789
314.795431935943;85.3015472328318
314.817048074746;85.66368389468
314.838664213549;86.0475315431056
314.860280352353;86.4552305977198
314.881896491156;86.8906661887326
314.903512629959;87.346209125142
314.925128768762;87.7988959158934
314.946744907566;88.2368711990573
314.968361046369;88.6536724975738
314.989977185172;89.0464965320378
315.011593323975;89.4274404119626
315.033209462779;89.7993720724134
315.054825601582;90.1427494958911
315.076441740385;90.4238475789237
315.098057879188;90.6461494713902
315.119674017992;90.826046063611
315.141290156795;90.972598815385
315.162906295598;91.0885434219703
315.184522434401;91.1668714058556
315.206138573205;91.20101558915
315.227754712008;91.1889915489533
315.249370850811;91.1313476404274
315.270986989614;91.0404963120816
315.292603128418;90.9284412365139
315.314219267221;90.7913462176039
315.335835406024;90.6199612460551
315.357451544827;90.4216816572038
315.379067683631;90.218357327382
315.400683822434;90.0110527346776
315.422299961237;89.7870077567463
315.44391610004;89.53678119735
315.465532238843;89.2743108586531
315.487148377647;89.0138569967996
315.50876451645;88.7551965868502
315.530380655253;88.4946851206726
315.551996794056;88.2306932902153
315.57361293286;87.9564232160955
315.595229071663;87.6608828668297
315.616845210466;87.3494625428773
315.638461349269;87.0511277210499
315.660077488073;86.7960465570023
315.681693626876;86.5841149104792
315.703309765679;86.4071377208303
315.724925904482;86.2701434179898
315.746542043286;86.1922606332958
315.768158182089;86.1745572963129
315.789774320892;86.2098233997624
315.811390459695;86.2991190298636
315.833006598499;86.4452992618281
315.854622737302;86.6439593017605
315.876238876105;86.8828094318422
315.897855014908;87.141315876854
315.919471153712;87.41487381003
315.941087292515;87.698767353166
315.962703431318;87.9781029100075
315.984319570121;88.2427477377276
316.005935708925;88.4940620476355
316.027551847728;88.7350957399358
316.049167986531;88.9585056181294
316.070784125334;89.1542693482422
316.092400264138;89.3288833097339
316.114016402941;89.4916519134708
316.135632541744;89.6488116500339
316.157248680547;89.80241130195
316.17886481935;89.9520916949523
316.200480958154;90.0963809677258
316.222097096957;90.2368590503839
316.24371323576;90.3877249636425
316.265329374563;90.5580737046979
316.286945513367;90.7421834185911
316.30856165217;90.9367390025834
316.330177790973;91.1399539300122
316.351793929776;91.3471480047509
316.37341006858;91.5584565103323
316.395026207383;91.7736668455555
316.416642346186;91.9711467749779
316.438258484989;92.1431235740714
316.459874623793;92.2969929970723
316.481490762596;92.4217446964599
316.503106901399;92.5048225262319
316.524723040202;92.546576507798
316.546339179006;92.5365719046074
316.567955317809;92.4597619505391
316.589571456612;92.3227618309894
316.611187595415;92.126441063157
316.632803734219;91.8664139677841
316.654419873022;91.5392225215099
316.676036011825;91.1588250478065
316.697652150628;90.739946748801
316.719268289432;90.3023742397639
316.740884428235;89.8509456079533
316.762500567038;89.3780570849829
316.784116705841;88.8856619194075
316.805732844644;88.4006131033943
316.827348983448;87.9429594044647
316.848965122251;87.5171963480315
316.870581261054;87.12555507277
316.892197399857;86.7740611651767
316.913813538661;86.4566134509501
316.935429677464;86.1595842082979
316.957045816267;85.8888498325917
316.97866195507;85.6652514096725
317.000278093874;85.489304019085
317.021894232677;85.3462379198166
317.04351037148;85.2312920482889
317.065126510283;85.1524047516796
317.086742649087;85.1142724380383
317.10835878789;85.1108789381107
317.129974926693;85.1381336126922
317.151591065496;85.200760963004
317.1732072043;85.3024582490858
317.194823343103;85.4414909140554
317.216439481906;85.6218241123758
317.238055620709;85.8463129603096
317.259671759513;86.1147120862398
317.281287898316;86.4264247437984
317.302904037119;86.7745262409198
317.324520175922;87.1546134513351
317.346136314726;87.5730562685559
317.367752453529;88.025508620586
317.389368592332;88.4845276440958
317.410984731135;88.925423246496
317.432600869938;89.3509886501683
317.454217008742;89.7786783199328
317.475833147545;90.1965373091607
317.497449286348;90.5709111162434
317.519065425151;90.8918015016317
317.540681563955;91.159031813437
317.562297702758;91.3752089464916
317.583913841561;91.5466614584089
317.605529980364;91.6782961258374
317.627146119168;91.7750410568075
317.648762257971;91.8428968747496
317.670378396774;91.8869329508274
317.691994535577;91.9133156072678
317.713610674381;91.922451901557
317.735226813184;91.9054251295926
317.756842951987;91.8568465686691
317.77845909079;91.7792030198549
317.800075229594;91.6730895463008
317.821691368397;91.5312644630848
317.8433075072;91.3574159096428
317.864923646003;91.167479629438
317.886539784807;90.9678288216745
317.90815592361;90.7629300836427
317.929772062413;90.5565219919232
317.951388201216;90.3504533706932
317.97300434002;90.1472646632593
317.994620478823;89.9548217807365
318.016236617626;89.7824512861279
318.037852756429;89.6281884263761
318.059468895233;89.4850957904689
318.081085034036;89.3500283118241
318.102701172839;89.2253068287156
318.124317311642;89.1115599486606
318.145933450445;89.0036845951784
318.167549589249;88.8945483709401
318.189165728052;88.783408290461
318.210781866855;88.6745935019758
318.232398005658;88.5656498458979
318.254014144462;88.448097197374
318.275630283265;88.3195624057083
318.297246422068;88.1828917053397
318.318862560871;88.0317643160573
318.340478699675;87.8587052819765
318.362094838478;87.6641490691603
318.383710977281;87.4534399279723
318.405327116084;87.2248835640719
318.426943254888;86.9710962283886
318.448559393691;86.6943896778002
318.470175532494;86.4235788261328
318.491791671297;86.1639776740835
318.513407810101;85.9158099296879
318.535023948904;85.6856856649489
318.556640087707;85.4857135116177
318.57825622651;85.3335826678834
318.599872365314;85.2297504774287
318.621488504117;85.166352620512
318.64310464292;85.1431194333903
318.664720781723;85.1495686537331
318.686336920527;85.1824797300767
318.70795305933;85.2446754420675
318.729569198133;85.3208361093469
318.751185336936;85.3953508985741
318.772801475739;85.4699566449296
318.794417614543;85.5462544813326
318.816033753346;85.6142579749964
318.837649892149;85.6670173421208
318.859266030952;85.7031994119108
318.880882169756;85.7284094304614
318.902498308559;85.7443862110345
318.924114447362;85.753690688529
318.945730586165;85.751273911653
318.967346724969;85.7356073031318
318.988962863772;85.7106033640074
319.010579002575;85.6810329442063
319.032195141378;85.6496597245037
319.053811280182;85.6208169252438
319.075427418985;85.5959744788443
319.097043557788;85.5741992463588
319.118659696591;85.5600223262939
319.140275835395;85.5611898695024
319.161891974198;85.5849756366695
319.183508113001;85.6263065851588
319.205124251804;85.6787783022285
319.226740390608;85.7398990884281
319.248356529411;85.8093607709135
319.269972668214;85.8867266305066
319.291588807017;85.9591705029325
319.313204945821;86.0149177805961
319.334821084624;86.0490266120205
319.356437223427;86.0508444994817
319.37805336223;86.0127722022734
319.399669501033;85.9359910905134
319.421285639837;85.8297586154251
319.44290177864;85.7039235604082
319.464517917443;85.5662805277037
319.486134056247;85.4183540054561
319.50775019505;85.2622442503742
319.529366333853;85.11652080387
319.550982472656;84.997033489902
319.572598611459;84.9148343268167
319.594214750263;84.8734551554144
319.615830889066;84.8746259123549
319.637447027869;84.9231824997778
319.659063166672;85.0210912688897
319.680679305476;85.1604291540689
319.702295444279;85.3242196034978
319.723911583082;85.50167289404
319.745527721885;85.6855045143959
319.767143860689;85.8687047025878
319.788759999492;86.0486925976027
319.810376138295;86.2163084037283
319.831992277098;86.3589424960687
319.853608415902;86.4736824305649
319.875224554705;86.5656528973868
319.896840693508;86.6345545499147
319.918456832311;86.6789527146751
319.940072971115;86.7058738707108
319.961689109918;86.7251094154055
319.983305248721;86.7392447658366
320.004921387524;86.7553196256564
320.026537526328;86.785019804961
320.048153665131;86.8406327099623
320.069769803934;86.9274216864926
320.091385942737;87.0464558690701
320.113002081541;87.1963315577932
320.134618220344;87.3721994549743
320.156234359147;87.575618970847
320.17785049795;87.8137260115586
320.199466636753;88.0846346149922
320.221082775557;88.379591981049
320.24269891436;88.7002795678894
320.264315053163;89.0527763665076
320.285931191966;89.4353248444467
320.30754733077;89.8386254388786
320.329163469573;90.2551989435091
320.350779608376;90.675344716117
320.372395747179;91.0730283263634
320.394011885983;91.441835313262
320.415628024786;91.7994048301858
320.437244163589;92.1444293571439
320.458860302392;92.4550792859797
320.480476441196;92.7321807798585
320.502092579999;92.988160673748
320.523708718802;93.2226703098134
320.545324857605;93.4286771454293
320.566940996409;93.609053235968
320.588557135212;93.7745759602544
320.610173274015;93.9350893641067
320.631789412818;94.0971797992068
320.653405551622;94.2721401092471
320.675021690425;94.4629010214113
320.696637829228;94.66207178077
320.718253968031;94.8654349238733
320.739870106834;95.0754946029718
320.761486245638;95.2937987619464
320.783102384441;95.5189233418433
320.804718523244;95.7486942739339
320.826334662047;95.9833020032998
320.847950800851;96.2197606229421
320.869566939654;96.4392614332867
320.891183078457;96.6282887824137
320.91279921726;96.7874684341704
320.934415356064;96.9173314365809
320.956031494867;97.0131567782451
320.97764763367;97.0642736349634
320.999263772473;97.0574446175375
321.020879911277;96.9801430744374
321.04249605008;96.8435520755308
321.064112188883;96.6505065996025
321.085728327686;96.3938118824503
321.10734446649;96.0711493594588
321.128960605293;95.6827508917188
321.150576744096;95.2575191584309
321.172192882899;94.8255057871005
321.193809021703;94.4011807874292
321.215425160506;93.9958449753363
321.237041299309;93.6420512644964
321.258657438112;93.3717838994121
321.280273576916;93.1947982391652
321.301889715719;93.1191224957969
321.323505854522;93.1584317440153
321.345121993325;93.3194305544094
321.366738132128;93.6009957489903
321.388354270932;93.9986435882621
321.409970409735;94.5017531258768
321.431586548538;95.0832312015952
321.453202687342;95.687999704548
321.474818826145;96.2769908150168
321.496434964948;96.8554608071893
321.518051103751;97.4311879735992
321.539667242554;97.9779602222097
321.561283381358;98.4502860263348
321.582899520161;98.8191228906556
321.604515658964;99.1019730167857
321.626131797767;99.3077698738895
321.647747936571;99.4335446260027
321.669364075374;99.4837206121938
321.690980214177;99.4675531346638
321.71259635298;99.3920020564953
321.734212491784;99.269703681592
321.755828630587;99.1064803466138
321.77744476939;98.9028287983627
321.799060908193;98.6651419055462
321.820677046997;98.400094641015
321.8422931858;98.1100716212435
321.863909324603;97.8048824370675
321.885525463406;97.4964354996196
321.90714160221;97.1801584993331
321.928757741013;96.8529636246732
321.950373879816;96.5240289771482
321.971990018619;96.2100358901373
321.993606157423;95.9187627658578
322.015222296226;95.6518263058235
322.036838435029;95.4217416468661
322.058454573832;95.2347611961193
322.080070712636;95.0979899787272
322.101686851439;95.0140992967306
322.123302990242;94.9886870895296
322.144919129045;95.0362030386438
322.166535267848;95.1503387125013
322.188151406652;95.2897383182682
322.209767545455;95.4441738305775
322.231383684258;95.6076239677611
322.252999823061;95.7627188075391
322.274615961865;95.8883770845817
322.296232100668;95.9649909573121
322.317848239471;95.9776477089292
322.339464378274;95.9157873155463
322.361080517078;95.7735114326913
322.382696655881;95.5380655160971
322.404312794684;95.2010238362933
322.425928933487;94.7684474853832
322.447545072291;94.2230160612851
322.469161211094;93.5815547034504
322.490777349897;92.877962902059
322.5123934887;92.1257778072742
322.534009627504;91.3272625307585
322.555625766307;90.484917844088
322.57724190511;89.6095963206628
322.598858043913;88.733108997064
322.620474182717;87.8855637861996
322.64209032152;87.0671316817889
322.663706460323;86.2946562422979
322.685322599126;85.5800405051396
322.70693873793;84.9257241460666
322.728554876733;84.3359583937763
322.750171015536;83.828437901926
322.771787154339;83.412552495255
322.793403293142;83.0767793571938
322.815019431946;82.8002178871487
322.836635570749;82.5728591641195
322.858251709552;82.3980415133125
322.879867848355;82.271530871003
322.901483987159;82.1876972183201
322.923100125962;82.135742785074
322.944716264765;82.0974500953443
322.966332403568;82.063915619388
322.987948542372;82.0428226165391
323.009564681175;82.035872662548
323.031180819978;82.0317685592438
323.052796958781;82.0130469411994
323.074413097585;81.9811561544394
323.096029236388;81.923497845804
323.117645375191;81.8295358000196
323.139261513994;81.7065896374116
323.160877652798;81.5633907097861
323.182493791601;81.4013517339526
323.204109930404;81.2178194435612
323.225726069207;81.009908085818
323.247342208011;80.7839900118954
323.268958346814;80.5462090912607
323.290574485617;80.2931874571857
323.31219062442;80.0106619063602
323.333806763224;79.7221721395837
323.355422902027;79.4852072613174
323.37703904083;79.3099128586701
323.398655179633;79.1713908425808
323.420271318437;79.0619505047734
323.44188745724;79.0084441314141
323.463503596043;79.0184350066072
323.485119734846;79.0972815328323
323.506735873649;79.2314981931316
323.528352012453;79.4002372621015
323.549968151256;79.6120064957773
323.571584290059;79.8420669904787
323.593200428862;80.0637593860626
323.614816567666;80.2732819254487
323.636432706469;80.4708734377131
323.658048845272;80.633256894029
323.679664984075;80.7333895899945
323.701281122879;80.7611605824488
323.722897261682;80.7163691559788
323.744513400485;80.5930573543983
323.766129539288;80.3766557083583
323.787745678092;80.0556647012825
323.809361816895;79.6582249179404
323.830977955698;79.2235865787112
323.852594094501;78.7659635136086
323.874210233305;78.2581244655783
323.895826372108;77.6957986343144
323.917442510911;77.0776635562297
323.939058649714;76.4446700972934
323.960674788518;75.8527806648209
323.982290927321;75.2994095012194
324.003907066124;74.7673221778466
324.025523204927;74.2417513072897
324.047139343731;73.710662993518
324.068755482534;73.1764098120714
324.090371621337;72.6612379906151
324.11198776014;72.1838856599127
324.133603898943;71.7404660841464
324.155220037747;71.3463955738385
324.17683617655;71.0086377569141
324.198452315353;70.7148083507566
324.220068454156;70.4488262754322
324.24168459296;70.195315114163
324.263300731763;69.9536622870161
324.284916870566;69.7345372348681
324.306533009369;69.5375260763561
324.328149148173;69.3389437296553
324.349765286976;69.1174444813755
324.371381425779;68.8687494217944
324.392997564582;68.596526161987
324.414613703386;68.2994387282794
324.436229842189;67.9705908965653
324.457845980992;67.5934476516535
324.479462119795;67.1669295951776
324.501078258599;66.7161973758472
324.522694397402;66.2590949397168
324.544310536205;65.7925102247475
324.565926675008;65.3149700295953
324.587542813812;64.8291440664889
324.609158952615;64.3302397921311
324.630775091418;63.8289471290046
324.652391230221;63.3367520098764
324.674007369025;62.8617108255746
324.695623507828;62.4050000735756
324.717239646631;61.9602982799241
324.738855785434;61.512790279047
324.760471924237;61.0728798548811
324.782088063041;60.6741479093633
