Name;BF_ESR_01_Natural_Z_gon_40dg_result

Recipe
Accumulations;5;Number of accumulations
RetryCount;0;Number of retries on error
AbortOnError;True;Abort on error
EnableQFactorMeasurement;False;Enable/Disable q-Factor measurement
Bfrom;313;B from
Bto;363;B to
SweepTime;60;Sweep time
Modulation;0.2;Modulation
ModulationFreq;100;Modulation
BHoldEnabled;False;B hold enabled
BHold;0;B hold
MicrowavePower;2;Microwave power
MarkerEnabled;False;
MarkerStartField;0;
MarkerEndField;0;
Mode;;
KineticGFact;0;
KineticTotalTransientTime;0;
KineticTimeResolution;0;
TempFrom;5;
TempUseSlope;False;
TempTo;5;
TempdT;1;
TempSetupTime;0;
GonFrom;0;
GonTo;180;
GonSteps;20;
XRayEnabled;False;
XRayTime;3;
XRayVoltage;40;
XRayCurrent;0.5;
UVEnabled;False;
UVIntensity;0;
UVTime;0;
UVLeadTime;0;
UVWavelength;0;
PowSweepFrom;1;
PowSweepTo;5;
PowSweepSteps;5;
AmpModSweepFrom;0;
AmpModSweepTo;1;
AmpModSweepSteps;10;
ExtTriggerEnabled;False;
ExtTrigLeadTime;0;
ExtTrigOnTime;5;

Meas
BField [mT];MW_Absorption []
313.02029045105;74.771270917134
313.041904428797;74.6428460044677
313.063518406543;74.5404557663098
313.08513238429;74.4609549805404
313.106746362037;74.3999598613349
313.128360339783;74.3462680056793
313.14997431753;74.2987243223048
313.171588295277;74.2516049725283
313.193202273023;74.206399806978
313.21481625077;74.1711203395068
313.236430228517;74.1459226646477
313.258044206264;74.1221933536535
313.27965818401;74.0856307493173
313.301272161757;74.0162251765392
313.322886139504;73.9083562924892
313.34450011725;73.7699506593928
313.366114094997;73.5993626090968
313.387728072744;73.3869431733728
313.40934205049;73.1224103414112
313.430956028237;72.8026212726452
313.452570005984;72.4447711594799
313.474183983731;72.0793384833806
313.495797961477;71.7210872662039
313.517411939224;71.3697165705252
313.539025916971;71.0248373286304
313.560639894717;70.6923979253372
313.582253872464;70.389210447823
313.603867850211;70.1437569195724
313.625481827958;69.9673933487568
313.647095805704;69.8536339885704
313.668709783451;69.8120924032892
313.690323761198;69.8392758033466
313.711937738944;69.925355792614
313.733551716691;70.0624843530467
313.755165694438;70.2401139707926
313.776779672184;70.4476686480194
313.798393649931;70.668783772854
313.820007627678;70.8761820335053
313.841621605425;71.062829056117
313.863235583171;71.234233917906
313.884849560918;71.3803994526358
313.906463538665;71.4960678801743
313.928077516411;71.5868846249586
313.949691494158;71.6530907025802
313.971305471905;71.6800599247454
313.992919449651;71.6615912776623
314.014533427398;71.6040697304281
314.036147405145;71.5099134358687
314.057761382892;71.3754429379049
314.079375360638;71.2003449593496
314.100989338385;70.9916639173066
314.122603316132;70.7617628964349
314.144217293878;70.5176564472596
314.165831271625;70.2689350793995
314.187445249372;70.0237764328348
314.209059227118;69.7903262826231
314.230673204865;69.5835055230495
314.252287182612;69.4154491979924
314.273901160359;69.2938686616075
314.295515138105;69.2181436122864
314.317129115852;69.1799833582847
314.338743093599;69.1749285589166
314.360357071345;69.1992955723731
314.381971049092;69.2288513562775
314.403585026839;69.2523474842492
314.425199004586;69.2677408181617
314.446812982332;69.2743914456228
314.468426960079;69.2616065000832
314.490040937826;69.2214161371267
314.511654915572;69.1528685391731
314.533268893319;69.0448733383166
314.554882871066;68.9046783062689
314.576496848812;68.7481698492863
314.598110826559;68.5915766941216
314.619724804306;68.4420938565984
314.641338782053;68.2981233083261
314.662952759799;68.1654978865807
314.684566737546;68.0577486843878
314.706180715293;67.9805392764731
314.727794693039;67.9325644684239
314.749408670786;67.9062043881521
314.771022648533;67.8994520531211
314.792636626279;67.9114626160779
314.814250604026;67.9297653982593
314.835864581773;67.9400774925209
314.85747855952;67.9327331182336
314.879092537266;67.9025175662205
314.900706515013;67.853536728612
314.92232049276;67.8010470712784
314.943934470506;67.76210660028
314.965548448253;67.7508367169768
314.987162426;67.7747800087891
315.008776403747;67.8407565175442
315.030390381493;67.9472129786027
315.05200435924;68.0902387677684
315.073618336987;68.2649547503167
315.095232314733;68.4600800823997
315.11684629248;68.6708504481479
315.138460270227;68.9029684529073
315.160074247973;69.1468357410352
315.18168822572;69.3646495055605
315.203302203467;69.5220410148446
315.224916181214;69.6208780446026
315.24653015896;69.6854062211087
315.268144136707;69.7215887078127
315.289758114454;69.7293218674055
315.3113720922;69.7173732192399
315.332986069947;69.6992106053279
315.354600047694;69.6835447021179
315.37621402544;69.6730130812422
315.397828003187;69.6652905221192
315.419441980934;69.6624721546537
315.441055958681;69.6722277775405
315.462669936427;69.702021793264
315.484283914174;69.7526950475283
315.505897891921;69.8081883987377
315.527511869667;69.8372750366214
315.549125847414;69.8285739150567
315.570739825161;69.7815507643374
315.592353802908;69.704136243245
315.613967780654;69.5952937121872
315.635581758401;69.4462135965898
315.657195736148;69.2599524518853
315.678809713894;69.0369102657267
315.700423691641;68.7838334349698
315.722037669388;68.5153498868635
315.743651647134;68.247465897419
315.765265624881;67.9931577246448
315.786879602628;67.764213483821
315.808493580375;67.5495955519616
315.830107558121;67.3417060332988
315.851721535868;67.1434947842192
315.873335513615;66.9594721486866
315.894949491361;66.7785691202996
315.916563469108;66.5980750257094
315.938177446855;66.4066632205536
315.959791424601;66.195946381802
315.981405402348;65.9695382175035
316.003019380095;65.7281430625265
316.024633357842;65.4679503179426
316.046247335588;65.1959260110825
316.067861313335;64.9256357810663
316.089475291082;64.6585020667104
316.111089268828;64.3875761299883
316.132703246575;64.1160742474943
316.154317224322;63.8547397912421
316.175931202069;63.6044079128982
316.197545179815;63.3656695744347
316.219159157562;63.1482804877143
316.240773135309;62.9557805896147
316.262387113055;62.7891443031744
316.284001090802;62.6554376632979
316.305615068549;62.557315714119
316.327229046295;62.4919667878168
316.348843024042;62.4591081217348
316.370457001789;62.4603494865492
316.392070979536;62.4980066616909
316.413684957282;62.5623794842668
316.435298935029;62.6439331641315
316.456912912776;62.7435648730308
316.478526890522;62.8538326698003
316.500140868269;62.971216207636
316.521754846016;63.0960435370416
316.543368823762;63.2261893864361
316.564982801509;63.3545621218867
316.586596779256;63.4724179680471
316.608210757003;63.5769674272419
316.629824734749;63.6723758035118
316.651438712496;63.7638264724364
316.673052690243;63.857734054467
316.694666667989;63.9507939924273
316.716280645736;64.0368206862254
316.737894623483;64.1107701366332
316.75950860123;64.1757169345286
316.781122578976;64.2348222593841
316.802736556723;64.2852548801938
316.82435053447;64.3233508436354
316.845964512216;64.3458836290453
316.867578489963;64.3380718682581
316.88919246771;64.300725736036
316.910806445456;64.2407545819271
316.932420423203;64.1665730800726
316.95403440095;64.081139894462
316.975648378697;63.9776460057883
316.997262356443;63.8512543082845
317.01887633419;63.703373055724
317.040490311937;63.5455969461762
317.062104289683;63.3880851105078
317.08371826743;63.2259227734253
317.105332245177;63.0622360929891
317.126946222923;62.9140730483404
317.14856020067;62.7870466835218
317.170174178417;62.6772876393658
317.191788156164;62.5853863400527
317.21340213391;62.5143827840614
317.235016111657;62.481327800977
317.256630089404;62.4758268962935
317.27824406715;62.4932067764623
317.299858044897;62.539521730509
317.321472022644;62.6188576879197
317.34308600039;62.7192099487482
317.364699978137;62.8396710432187
317.386313955884;62.9868032943875
317.407927933631;63.1568403790182
317.429541911377;63.3498671804507
317.451155889124;63.5719307856166
317.472769866871;63.8145173781176
317.494383844617;64.0659210641959
317.515997822364;64.3221592811195
317.537611800111;64.5810877076543
317.559225777858;64.8418223795697
317.580839755604;65.078239788248
317.602453733351;65.2593175504599
317.624067711098;65.3873120443639
317.645681688844;65.4806571953064
317.667295666591;65.5375894003808
317.688909644338;65.5510968443536
317.710523622084;65.5141831937099
317.732137599831;65.4238737385282
317.753751577578;65.2783478814228
317.775365555325;65.0752428480916
317.796979533071;64.8295102878123
317.818593510818;64.5720713326793
317.840207488565;64.3115422958349
317.861821466311;64.0490942360974
317.883435444058;63.8027371072396
317.905049421805;63.5850613023712
317.926663399552;63.4018160951072
317.948277377298;63.2586265704752
317.969891355045;63.1581329575864
317.991505332792;63.1027545242499
318.013119310538;63.0835647645352
318.034733288285;63.0826668704319
318.056347266032;63.0824150202474
318.077961243778;63.0733992464082
318.099575221525;63.0536520182423
318.121189199272;63.0213047239227
318.142803177019;62.9699560938675
318.164417154765;62.8961107076725
318.186031132512;62.8027380189136
318.207645110259;62.6958397624099
318.229259088005;62.5866381153371
318.250873065752;62.4827318628028
318.272487043499;62.3840233366041
318.294101021245;62.2914370871536
318.315714998992;62.2102905211278
318.337328976739;62.1482706937711
318.358942954486;62.1018658459767
318.380556932232;62.057539681696
318.402170909979;62.0083968055491
318.423784887726;61.9529770246021
318.445398865472;61.8838370844482
318.467012843219;61.7941442829738
318.488626820966;61.6828376331875
318.510240798712;61.557161597134
318.531854776459;61.4096220151535
318.553468754206;61.2278988666894
318.575082731953;61.0147659314502
318.596696709699;60.7848238962349
318.618310687446;60.5303574541504
318.639924665193;60.2407470214622
318.661538642939;59.9218983243777
318.683152620686;59.5812855185669
318.704766598433;59.2185772531207
318.72638057618;58.8299671177973
318.747994553926;58.4193032955402
318.769608531673;58.005545656192
318.79122250942;57.6086880535265
318.812836487166;57.242688749491
318.834450464913;56.9129454470295
318.85606444266;56.6240504668509
318.877678420406;56.3867658501924
318.899292398153;56.2073901853624
318.9209063759;56.0871649964761
318.942520353647;56.0338499135869
318.964134331393;56.0488777228921
318.98574830914;56.1099738511376
319.007362286887;56.205211604555
319.028976264633;56.3420091036601
319.05059024238;56.5156559981293
319.072204220127;56.7038494007865
319.093818197873;56.8886149414823
319.11543217562;57.0741190121505
319.137046153367;57.2642656277681
319.158660131114;57.4549308423714
319.18027410886;57.6387199363856
319.201888086607;57.821271184708
319.223502064354;58.0085846869067
319.2451160421;58.2023948664525
319.266730019847;58.3887102439426
319.288343997594;58.5583548525574
319.309957975341;58.7125203941222
319.331571953087;58.8545224651936
319.353185930834;58.980121340332
319.374799908581;59.0774199631584
319.396413886327;59.1353891709998
319.418027864074;59.1534544449763
319.439641841821;59.1300682979496
319.461255819567;59.0653118116364
319.482869797314;58.9552672138693
319.504483775061;58.804557213898
319.526097752808;58.6263066971011
319.547711730554;58.4299869363003
319.569325708301;58.2150881567919
319.590939686048;57.9808964242654
319.612553663794;57.7345211467784
319.634167641541;57.494255619889
319.655781619288;57.2607590687218
319.677395597034;57.0352352187603
319.699009574781;56.8438115306111
319.720623552528;56.6944771734899
319.742237530275;56.5723684369028
319.763851508021;56.4609311020109
319.785465485768;56.3593110624939
319.807079463515;56.3109480011919
319.828693441261;56.3161969831383
319.850307419008;56.3601203693478
319.871921396755;56.4288872791731
319.893535374502;56.5125878298572
319.915149352248;56.609296996862
319.936763329995;56.7151590579483
319.958377307742;56.8243940666124
319.979991285488;56.93389655522
320.001605263235;57.0349251440098
320.023219240982;57.1115461475293
320.044833218728;57.1485162245006
320.066447196475;57.1482369810626
320.088061174222;57.118729148579
320.109675151969;57.0637394708655
320.131289129715;56.9936340412535
320.152903107462;56.9261557181491
320.174517085209;56.8753746740886
320.196131062955;56.8489596583051
320.217745040702;56.8571912331722
320.239359018449;56.9164998488812
320.260972996195;57.0302130217576
320.282586973942;57.1815328692439
320.304200951689;57.3518686212607
320.325814929436;57.5326648378244
320.347428907182;57.7182711047682
320.369042884929;57.9004200541311
320.390656862676;58.0682532459637
320.412270840422;58.2119935885914
320.433884818169;58.3231752663409
320.455498795916;58.3903272181668
320.477112773663;58.4062369698595
320.498726751409;58.3725622905501
320.520340729156;58.2988267397867
320.541954706903;58.1907185948366
320.563568684649;58.0502580187305
320.585182662396;57.8766311656276
320.606796640143;57.6721945084927
320.628410617889;57.4574034949674
320.650024595636;57.2472397355004
320.671638573383;57.0494006007946
320.69325255113;56.8754137354759
320.714866528876;56.739592089892
320.736480506623;56.6482991646681
320.75809448437;56.6116188799823
320.779708462116;56.6462062518242
320.801322439863;56.7528009764373
320.82293641761;56.9132667214569
320.844550395356;57.1137419501211
320.866164373103;57.3541613011633
320.88777835085;57.6348940074448
320.909392328597;57.95333899459
320.931006306343;58.2874480654863
320.95262028409;58.5932624439704
320.974234261837;58.8547691378679
320.995848239583;59.0672355374945
321.01746221733;59.2100837075956
321.039076195077;59.2596461128667
321.060690172824;59.2042389967964
321.08230415057;59.0538805824028
321.103918128317;58.8224024395959
321.125532106064;58.5178869718147
321.14714608381;58.1474807264164
321.168760061557;57.7176413908774
321.190374039304;57.2545214448535
321.21198801705;56.7736333544379
321.233601994797;56.2768493251409
321.255215972544;55.7622672126786
321.276829950291;55.222601101208
321.298443928037;54.6448129184165
321.320057905784;54.0343524303273
321.341671883531;53.4367346649592
321.363285861277;52.8706681519647
321.384899839024;52.3048125324963
321.406513816771;51.7122098945885
321.428127794517;51.0841801926683
321.449741772264;50.4439908435483
321.471355750011;49.8219691204317
321.492969727758;49.2261547643399
321.514583705504;48.6668664396996
321.536197683251;48.1577017363894
321.557811660998;47.7029278539741
321.579425638744;47.3042874013814
321.601039616491;46.9570199143806
321.622653594238;46.6606053160634
321.644267571984;46.4274601296706
321.665881549731;46.2635861419122
321.687495527478;46.1640961871069
321.709109505225;46.1280647474207
321.730723482971;46.1537632450784
321.752337460718;46.2307514747577
321.773951438465;46.3488822621694
321.795565416211;46.5039070449257
321.817179393958;46.7000164811741
321.838793371705;46.9370343090189
321.860407349452;47.2110587318948
321.882021327198;47.5107882594968
321.903635304945;47.8210170562858
321.925249282692;48.1298300937917
321.946863260438;48.4184519252482
321.968477238185;48.6741965339834
321.990091215932;48.8973664058224
322.011705193678;49.089511687132
322.033319171425;49.2399152535116
322.054933149172;49.3361119781591
322.076547126919;49.3782838954212
322.098161104665;49.3715674106337
322.119775082412;49.3178981012814
322.141389060159;49.2170695212214
322.163003037905;49.0733434552732
322.184617015652;48.9030004321618
322.206230993399;48.7186728543202
322.227844971145;48.5252854838547
322.249458948892;48.3068767594587
322.271072926639;48.0614891534761
322.292686904386;47.8190950379694
322.314300882132;47.5951115209219
322.335914859879;47.3888783370849
322.357528837626;47.2021887833806
322.379142815372;47.0380766390096
322.400756793119;46.8951684938126
322.422370770866;46.7649550657311
322.443984748613;46.6436508712163
322.465598726359;46.5279676321184
322.487212704106;46.4113769324918
322.508826681853;46.288349353398
322.530440659599;46.1648754382425
322.552054637346;46.0416540122439
322.573668615093;45.9102904930977
322.595282592839;45.7681647274107
322.616896570586;45.6144931919778
322.638510548333;45.4445166895777
322.66012452608;45.257694824892
322.681738503826;45.0616651740551
322.703352481573;44.8624152671427
322.72496645932;44.6546476310819
322.746580437066;44.4351505588333
322.768194414813;44.2065278584695
322.78980839256;43.9763275350157
322.811422370307;43.7557013000884
322.833036348053;43.5609132179937
322.8546503258;43.4001052570967
322.876264303547;43.2735343830147
322.897878281293;43.1788428026935
322.91949225904;43.1129215360031
322.941106236787;43.0747782385911
322.962720214533;43.0629125415222
322.98433419228;43.0735896815952
323.005948170027;43.1004909319174
323.027562147774;43.1348060300714
323.04917612552;43.1683626353593
323.070790103267;43.1974814473511
323.092404081014;43.2259796940695
323.11401805876;43.2554716588394
323.135632036507;43.2870618592052
323.157246014254;43.317029984448
323.178859992;43.3450819321672
323.200473969747;43.3853048085021
323.222087947494;43.4528423001349
323.243701925241;43.5561884072384
323.265315902987;43.6823886572552
323.286929880734;43.8057263187271
323.308543858481;43.9255871179369
323.330157836227;44.0567306266268
323.351771813974;44.2113941591498
323.373385791721;44.3782695883653
323.394999769467;44.5473096635113
323.416613747214;44.7068119451843
323.438227724961;44.8431370546381
323.459841702708;44.9571967663085
323.481455680454;45.0512041202914
323.503069658201;45.1112816049697
323.524683635948;45.1359272149532
323.546297613694;45.1334711160259
323.567911591441;45.1033556659506
323.589525569188;45.0353395589196
323.611139546935;44.9253561268392
323.632753524681;44.7769887646397
323.654367502428;44.5949879509883
323.675981480175;44.3781017678492
323.697595457921;44.1264392985731
323.719209435668;43.8504592102493
323.740823413415;43.569162392414
323.762437391161;43.3018391952369
323.784051368908;43.0481842408797
323.805665346655;42.8089864386997
323.827279324402;42.5963446572795
323.848893302148;42.4207927756336
323.870507279895;42.2833279807405
323.892121257642;42.1791679217507
323.913735235388;42.1060641233681
323.935349213135;42.0623875229311
323.956963190882;42.0359846409117
323.978577168628;42.002836865558
324.000191146375;41.9493582095029
324.021805124122;41.8686584876943
324.043419101869;41.7448047658977
324.065033079615;41.5646229810206
324.086647057362;41.3303676573757
324.108261035109;41.0488262549923
324.129875012855;40.733118196876
324.151488990602;40.397204325953
324.173102968349;40.0575138528484
324.194716946096;39.7326972166044
324.216330923842;39.4282726332924
324.237944901589;39.1349332232046
324.259558879336;38.8468340469191
324.281172857082;38.5758628524612
324.302786834829;38.3462313586837
324.324400812576;38.1582143923631
324.346014790322;37.994835043363
324.367628768069;37.847388181199
324.389242745816;37.7079039671302
324.410856723563;37.569896920749
324.432470701309;37.4311293832084
324.454084679056;37.288704533064
324.475698656803;37.1375045925869
324.497312634549;36.9745333300635
324.518926612296;36.8051941326379
324.540540590043;36.6356758321846
324.562154567789;36.459926705253
324.583768545536;36.2748486050411
324.605382523283;36.0913035172722
324.62699650103;35.9172971033854
324.648610478776;35.7531942714331
324.670224456523;35.5970637991212
324.69183843427;35.4466988129608
324.713452412016;35.2930637795678
324.735066389763;35.1261526083097
324.75668036751;34.9400634790136
