Name;BF_ESR_01_900s_X_gon_100dg_result

Recipe
Accumulations;5;Number of accumulations
RetryCount;0;Number of retries on error
AbortOnError;True;Abort on error
EnableQFactorMeasurement;False;Enable/Disable q-Factor measurement
Bfrom;313;B from
Bto;363;B to
SweepTime;60;Sweep time
Modulation;0.2;Modulation
ModulationFreq;100;Modulation
BHoldEnabled;False;B hold enabled
BHold;0;B hold
MicrowavePower;2;Microwave power
MarkerEnabled;False;
MarkerStartField;0;
MarkerEndField;0;
Mode;;
KineticGFact;0;
KineticTotalTransientTime;0;
KineticTimeResolution;0;
TempFrom;5;
TempUseSlope;False;
TempTo;5;
TempdT;1;
TempSetupTime;0;
GonFrom;0;
GonTo;180;
GonSteps;20;
XRayEnabled;False;
XRayTime;3;
XRayVoltage;40;
XRayCurrent;0.5;
UVEnabled;False;
UVIntensity;0;
UVTime;0;
UVLeadTime;0;
UVWavelength;0;
PowSweepFrom;1;
PowSweepTo;5;
PowSweepSteps;5;
AmpModSweepFrom;0;
AmpModSweepTo;1;
AmpModSweepSteps;10;
ExtTriggerEnabled;False;
ExtTrigLeadTime;0;
ExtTrigOnTime;5;

Meas
BField [mT];MW_Absorption []
313.02090637207;120.528743026766
313.042529409499;120.87936632911
313.064152446929;121.266577493648
313.085775484358;121.654590898928
313.107398521787;122.031493042306
313.129021559216;122.388998730069
313.150644596645;122.728259535432
313.172267634074;123.053885629495
313.193890671503;123.354967146032
313.215513708932;123.621786617253
313.237136746361;123.856271095641
313.25875978379;124.070486258615
313.280382821219;124.275982743987
313.302005858648;124.479115458849
313.323628896077;124.691030020671
313.345251933507;124.931890726331
313.366874970936;125.229270258087
313.388498008365;125.610627242162
313.410121045794;126.07671373527
313.431744083223;126.616051164545
313.453367120652;127.23099114993
313.474990158081;127.918688137267
313.49661319551;128.6717447376
313.518236232939;129.489259426743
313.539859270368;130.364631782576
313.561482307797;131.282223516897
313.583105345227;132.217705286869
313.604728382656;133.137465229114
313.626351420085;134.029912383303
313.647974457514;134.910509744384
313.669597494943;135.793395913848
313.691220532372;136.687189228247
313.712843569801;137.601893373454
313.73446660723;138.53514303294
313.756089644659;139.479746179818
313.777712682088;140.44164321692
313.799335719517;141.434716757268
313.820958756946;142.470055043829
313.842581794375;143.532389806811
313.864204831805;144.588936205076
313.885827869234;145.62620070475
313.907450906663;146.658166848293
313.929073944092;147.689963401028
313.950696981521;148.705646779668
313.97232001895;149.692120408658
313.993943056379;150.670597606822
314.015566093808;151.644762450958
314.037189131237;152.603618756412
314.058812168666;153.565931923041
314.080435206095;154.567005418883
314.102058243524;155.619466205873
314.123681280954;156.70146260403
314.145304318383;157.789040319998
314.166927355812;158.874513370038
314.188550393241;159.97312702326
314.21017343067;161.09180762751
314.231796468099;162.228612247028
314.253419505528;163.375278907052
314.275042542957;164.531327685434
314.296665580386;165.688250120104
314.318288617815;166.809541737283
314.339911655244;167.878806006866
314.361534692673;168.913299519994
314.383157730103;169.895234962432
314.404780767532;170.808401609337
314.426403804961;171.670919002968
314.44802684239;172.513630750655
314.469649879819;173.353498643178
314.491272917248;174.178880807516
314.512895954677;174.968559230302
314.534518992106;175.727385856512
314.556142029535;176.462849470414
314.577765066964;177.192743429881
314.599388104393;177.932366907267
314.621011141822;178.655561001969
314.642634179252;179.330530216728
314.664257216681;179.945097572061
314.68588025411;180.493985053797
314.707503291539;180.985304961077
314.729126328968;181.435227877313
314.750749366397;181.858339064502
314.772372403826;182.255434124419
314.793995441255;182.623249904805
314.815618478684;182.977988426328
314.837241516113;183.331571038886
314.858864553542;183.686507061112
314.880487590971;184.054061409257
314.902110628401;184.455977257642
314.92373366583;184.89928357052
314.945356703259;185.362406436304
314.966979740688;185.830135613356
314.988602778117;186.312851640078
315.010225815546;186.812407117825
315.031848852975;187.317016073833
315.053471890404;187.818801165383
315.075094927833;188.297628164664
315.096717965262;188.739861576431
315.118341002691;189.161217027852
315.13996404012;189.568577204978
315.16158707755;189.955582497369
315.183210114979;190.312448126792
315.204833152408;190.642287759293
315.226456189837;190.929484132181
315.248079227266;191.172023019715
315.269702264695;191.37893954204
315.291325302124;191.560731382561
315.312948339553;191.725215136567
315.334571376982;191.870941928501
315.356194414411;191.986088086938
315.37781745184;192.069827178017
315.399440489269;192.134541697476
315.421063526699;192.18142879294
315.442686564128;192.209646751519
315.464309601557;192.223333508126
315.485932638986;192.220986236335
315.507555676415;192.196952328335
315.529178713844;192.147319502535
315.550801751273;192.070676630032
315.572424788702;191.967383258136
315.594047826131;191.837113845253
315.61567086356;191.676116817896
315.637293900989;191.478769133854
315.658916938418;191.245331982713
315.680539975848;190.981857777125
315.702163013277;190.696387744516
315.723786050706;190.405433859966
315.745409088135;190.109643383481
315.767032125564;189.810913918776
315.788655162993;189.525912018805
315.810278200422;189.268646543305
315.831901237851;189.049850740732
315.85352427528;188.868618981559
315.875147312709;188.713546293125
315.896770350138;188.585595718643
315.918393387567;188.49483482816
315.940016424997;188.441238072059
315.961639462426;188.412696148791
315.983262499855;188.40068778702
316.004885537284;188.407749997495
316.026508574713;188.430684592426
316.048131612142;188.457949402887
316.069754649571;188.479218006642
316.091377687;188.49089700195
316.113000724429;188.492466491561
316.134623761858;188.491738097302
316.156246799287;188.487351557925
316.177869836716;188.465308004049
316.199492874146;188.419362817408
316.221115911575;188.354725865059
316.242738949004;188.274700054304
316.264361986433;188.179708162772
316.285985023862;188.071967017693
316.307608061291;187.952045799428
316.32923109872;187.820989509219
316.350854136149;187.683449310235
316.372477173578;187.539999684086
316.394100211007;187.386425382171
316.415723248436;187.207096405683
316.437346285865;186.993078449873
316.458969323295;186.759462019103
316.480592360724;186.53395904377
316.502215398153;186.317058060756
316.523838435582;186.09137841393
316.545461473011;185.840797345469
316.56708451044;185.553515226363
316.588707547869;185.226091292834
316.610330585298;184.867666129101
316.631953622727;184.494935096863
316.653576660156;184.122197484383
316.675199697585;183.755525032783
316.696822735014;183.395509789916
316.718445772444;183.040444492901
316.740068809873;182.688785923954
316.761691847302;182.336062541684
316.783314884731;181.978433121347
316.80493792216;181.614290836189
316.826560959589;181.233219997033
316.848183997018;180.823123417577
316.869807034447;180.387250245027
316.891430071876;179.929310216577
316.913053109305;179.436694068623
316.934676146734;178.884832948057
316.956299184163;178.264465666666
316.977922221593;177.593916770916
316.999545259022;176.875074485333
317.021168296451;176.100775613005
317.04279133388;175.27744460663
317.064414371309;174.430734643282
317.086037408738;173.589075830028
317.107660446167;172.749419399361
317.129283483596;171.906160518947
317.150906521025;171.063544494802
317.172529558454;170.211262254577
317.194152595883;169.362251622917
317.215775633312;168.54173222087
317.237398670742;167.760921823182
317.259021708171;167.007269884682
317.2806447456;166.248530350003
317.302267783029;165.45894472398
317.323890820458;164.642740849272
317.345513857887;163.861859798654
317.367136895316;163.142745550513
317.388759932745;162.439855315811
317.410382970174;161.701313736798
317.432006007603;160.917596775975
317.453629045032;160.131058135155
317.475252082461;159.374208808402
317.49687511989;158.637520632349
317.51849815732;157.929019964746
317.540121194749;157.249174308893
317.561744232178;156.589700197882
317.583367269607;155.943899527248
317.604990307036;155.29838079833
317.626613344465;154.642403573487
317.648236381894;153.972723408574
317.669859419323;153.299129883707
317.691482456752;152.619666870202
317.713105494181;151.927086282807
317.73472853161;151.207832111992
317.75635156904;150.4418185056
317.777974606469;149.62917269855
317.799597643898;148.785316012429
317.821220681327;147.906005086662
317.842843718756;146.974587525828
317.864466756185;145.974217875785
317.886089793614;144.942967493123
317.907712831043;143.936038009681
317.929335868472;142.96352049714
317.950958905901;141.99306372734
317.97258194333;141.005305247577
317.994204980759;140.001702779567
318.015828018188;139.007934882234
318.037451055618;138.068640962107
318.059074093047;137.209974438411
318.080697130476;136.412367483993
318.102320167905;135.643162185379
318.123943205334;134.889649197497
318.145566242763;134.164951572907
318.167189280192;133.48458808431
318.188812317621;132.84632520255
318.21043535505;132.227829710344
318.232058392479;131.598445158816
318.253681429908;130.941680681574
318.275304467337;130.276012876674
318.296927504767;129.595003321571
318.318550542196;128.867991048643
318.340173579625;128.085656831532
318.361796617054;127.290302926168
318.383419654483;126.500868882797
318.405042691912;125.712312511587
318.426665729341;124.914092606352
318.44828876677;124.082624152172
318.469911804199;123.213940451504
318.491534841628;122.300876901212
318.513157879057;121.354912275901
318.534780916487;120.38852220481
318.556403953916;119.408169942337
318.578026991345;118.43772700385
318.599650028774;117.494275162303
318.621273066203;116.558817025172
318.642896103632;115.602998908328
318.664519141061;114.64420462942
318.68614217849;113.705510970324
318.707765215919;112.773092096584
318.729388253348;111.867984298741
318.751011290777;111.015211754871
318.772634328206;110.215528352905
318.794257365635;109.451807406415
318.815880403065;108.710487689557
318.837503440494;107.98727332751
318.859126477923;107.279672405905
318.880749515352;106.609095093933
318.902372552781;106.007369966473
318.92399559021;105.460906325282
318.945618627639;104.954629997621
318.967241665068;104.498779546622
318.988864702497;104.111974514285
319.010487739926;103.766196422748
319.032110777355;103.458333572852
319.053733814784;103.186827782103
319.075356852214;102.942474516272
319.096979889643;102.709716586689
319.118602927072;102.477583868279
319.140225964501;102.232382296011
319.16184900193;101.937915672041
319.183472039359;101.566631208114
319.205095076788;101.141684087669
319.226718114217;100.677264280659
319.248341151646;100.166045287729
319.269964189075;99.6042888619135
319.291587226504;99.0080690743232
319.313210263933;98.3848048757662
319.334833301363;97.7463726323474
319.356456338792;97.1122391154836
319.378079376221;96.4674735661667
319.39970241365;95.8009256885199
319.421325451079;95.1491815180939
319.442948488508;94.544898281403
319.464571525937;93.9660370806825
319.486194563366;93.3911834334747
319.507817600795;92.8145464198587
319.529440638224;92.2391576442363
319.551063675653;91.6665126319812
319.572686713082;91.1192116174176
319.594309750512;90.5942029184954
319.615932787941;90.0714775229353
319.63755582537;89.5449552308293
319.659178862799;89.0175226412981
319.680801900228;88.4795741304808
319.702424937657;87.923841704856
319.724047975086;87.3621660203272
319.745671012515;86.7987935843728
319.767294049944;86.2328885853593
319.788917087373;85.6656815285797
319.810540124802;85.1164433059626
319.832163162231;84.5941437662466
319.853786199661;84.0960977228128
319.87540923709;83.6217272989311
319.897032274519;83.1895240554911
319.918655311948;82.8119734370302
319.940278349377;82.4666154353908
319.961901386806;82.1714415031609
319.983524424235;81.9334276703342
320.005147461664;81.7446144896465
320.026770499093;81.5987152521065
320.048393536522;81.4730199407192
320.070016573951;81.3564109669565
320.09163961138;81.2578304333097
320.11326264881;81.1759929184845
320.134885686239;81.0949741806866
320.156508723668;81.0053729070217
320.178131761097;80.9049009724939
320.199754798526;80.7850701328359
320.221377835955;80.6354915492265
320.243000873384;80.4580094508283
320.264623910813;80.2617827254126
320.286246948242;80.0496183851622
320.307869985671;79.8142451512206
320.3294930231;79.5431319601184
320.351116060529;79.2278171444363
320.372739097959;78.8674344495625
320.394362135388;78.4564250312268
320.415985172817;77.9791395876899
320.437608210246;77.4244933245351
320.459231247675;76.8061019676055
320.480854285104;76.1390171426131
320.502477322533;75.4137278602214
320.524100359962;74.6093024620776
320.545723397391;73.738401608215
320.56734643482;72.8390438017929
320.588969472249;71.961511476946
320.610592509678;71.1184678679552
320.632215547108;70.2945971776334
320.653838584537;69.4783936203184
320.675461621966;68.688888324546
320.697084659395;67.966277660799
320.718707696824;67.2799761594978
320.740330734253;66.6025371638831
320.761953771682;65.9535169587537
320.783576809111;65.3434036121725
320.80519984654;64.7475405686706
320.826822883969;64.1336912471293
320.848445921398;63.4773520815287
320.870068958827;62.785840271568
320.891691996257;62.0736688145031
320.913315033686;61.3272001632538
320.934938071115;60.5105413852256
320.956561108544;59.610234777302
320.978184145973;58.6692277071692
320.999807183402;57.7256028196458
321.021430220831;56.7636993148318
321.04305325826;55.752022388946
321.064676295689;54.6869523526275
321.086299333118;53.5760859032895
321.107922370547;52.4477904902548
321.129545407976;51.3368154249543
321.151168445406;50.2506453646676
321.172791482835;49.1807327704436
321.194414520264;48.1419830333484
321.216037557693;47.1908859390506
321.237660595122;46.340771336926
321.259283632551;45.5542106148761
321.28090666998;44.8131970479426
321.302529707409;44.1258910044416
321.324152744838;43.508218606023
321.345775782267;42.9753189407567
321.367398819696;42.5332833035134
321.389021857125;42.1544074116828
321.410644894555;41.815061333403
321.432267931984;41.5119875502922
321.453890969413;41.2507348659273
321.475514006842;41.0248322581993
321.497137044271;40.8201566696859
321.5187600817;40.6237040416436
321.540383119129;40.4251378891105
321.562006156558;40.2202770648753
321.583629193987;40.0118767102056
321.605252231416;39.8107146748186
321.626875268845;39.6179224632161
321.648498306274;39.425740855496
321.670121343704;39.2355251248506
321.691744381133;39.0551503316792
321.713367418562;38.8890594936551
321.734990455991;38.7354560383254
321.75661349342;38.5864591348341
321.778236530849;38.4419150101851
321.799859568278;38.3139674210789
321.821482605707;38.2010428064639
321.843105643136;38.0950833329842
321.864728680565;37.9912193129131
321.886351717994;37.898665582926
321.907974755423;37.8337757401448
321.929597792853;37.8000972890867
321.951220830282;37.7880078740289
321.972843867711;37.7841931608827
321.99446690514;37.7955033759353
322.016089942569;37.8353184293875
322.037712979998;37.9023603300408
322.059336017427;37.9842494783108
322.080959054856;38.0756711111219
322.102582092285;38.1810509485565
322.124205129714;38.3004565251415
322.145828167143;38.4162404774201
322.167451204572;38.5298834450732
322.189074242001;38.6501787794641
322.210697279431;38.7884579133576
322.23232031686;38.9349610383559
322.253943354289;39.0761452644556
322.275566391718;39.2166047179572
322.297189429147;39.3683117535436
322.318812466576;39.5328442119335
322.340435504005;39.697124671163
322.362058541434;39.8416411732172
322.383681578863;39.9487133839775
322.405304616292;40.0092685824892
322.426927653721;40.0247520444364
322.448550691151;39.9856939315952
322.47017372858;39.8669533454704
322.491796766009;39.658752206611
322.513419803438;39.3681978456593
322.535042840867;39.003036167921
322.556665878296;38.5548873269566
322.578288915725;38.0359798305635
322.599911953154;37.4610485953
322.621534990583;36.8275821344643
322.643158028012;36.1511094490122
322.664781065441;35.4365450650779
322.68640410287;34.6898804383603
322.7080271403;33.9476401652248
322.729650177729;33.2768064544476
322.751273215158;32.7033986924621
322.772896252587;32.2207478325485
322.794519290016;31.8123417637067
322.816142327445;31.4829430082925
322.837765364874;31.2525456341742
322.859388402303;31.1239564807044
322.881011439732;31.0836713036427
322.902634477161;31.1252482918853
322.92425751459;31.2315078321385
322.945880552019;31.38751340041
322.967503589448;31.5770691312369
322.989126626878;31.7872550345064
323.010749664307;32.0025235031079
323.032372701736;32.205336288678
323.053995739165;32.3867791155389
323.075618776594;32.5412547774129
323.097241814023;32.6673086545397
323.118864851452;32.7703684045812
323.140487888881;32.8536967044871
323.16211092631;32.9163701176447
323.183733963739;32.9676135245729
323.205357001168;33.0264492353179
323.226980038598;33.1090420598349
323.248603076027;33.2189843258487
323.270226113456;33.359904951872
323.291849150885;33.5452648414821
323.313472188314;33.757643293494
323.335095225743;33.9687450779737
323.356718263172;34.1823839493402
323.378341300601;34.4087507752826
323.39996433803;34.6443039535001
323.421587375459;34.874275273794
323.443210412888;35.081516575044
323.464833450317;35.2508983745312
323.486456487746;35.3812246035661
323.508079525176;35.4702818202025
323.529702562605;35.5175996715375
323.551325600034;35.5209095202217
323.572948637463;35.479259175321
323.594571674892;35.3982103945882
323.616194712321;35.2864132741311
323.63781774975;35.1539713169707
323.659440787179;35.0062085337068
323.681063824608;34.8567548854152
323.702686862037;34.7195800446413
323.724309899466;34.596729784156
323.745932936895;34.4907408870415
323.767555974325;34.4158861923667
323.789179011754;34.3720445659575
323.810802049183;34.3627023137489
323.832425086612;34.3936388809924
323.854048124041;34.4524459052203
323.87567116147;34.5300803620135
323.897294198899;34.621101221032
323.918917236328;34.7074198053074
323.940540273757;34.7742408164287
323.962163311186;34.8183633858536
323.983786348615;34.8426003458047
324.005409386045;34.8550692925902
324.027032423474;34.8622027340701
324.048655460903;34.8666563178882
324.070278498332;34.868648068349
324.091901535761;34.8713298253423
324.11352457319;34.8846705323838
324.135147610619;34.9248195283716
324.156770648048;34.9932152963045
324.178393685477;35.089227438315
324.200016722906;35.2157656370731
324.221639760335;35.3714370760384
324.243262797764;35.556706419061
324.264885835193;35.7745554499412
324.286508872623;36.0186733147989
324.308131910052;36.2816505778761
324.329754947481;36.5665468758921
324.35137798491;36.8650911167127
324.373001022339;37.1557045775801
324.394624059768;37.4346384212131
324.416247097197;37.712786779019
324.437870134626;37.9988541318449
324.459493172055;38.276654730552
324.481116209484;38.5194615394068
324.502739246913;38.7196687908224
324.524362284342;38.8813472365204
324.545985321772;39.0094536107335
324.567608359201;39.1087423416896
324.58923139663;39.1661239920141
324.610854434059;39.1678091207428
324.632477471488;39.1122973564915
324.654100508917;39.0120443417141
324.675723546346;38.8803914955251
324.697346583775;38.719402359203
324.718969621204;38.5435025212893
324.740592658633;38.363676983767
324.762215696062;38.1798646623075
324.783838733491;38.0037425126455
