Name;BF_ESR_01_3602s_Z_gon_120dg_result

Recipe
Accumulations;5;Number of accumulations
RetryCount;0;Number of retries on error
AbortOnError;True;Abort on error
EnableQFactorMeasurement;False;Enable/Disable q-Factor measurement
Bfrom;313;B from
Bto;363;B to
SweepTime;60;Sweep time
Modulation;0.2;Modulation
ModulationFreq;100;Modulation
BHoldEnabled;False;B hold enabled
BHold;0;B hold
MicrowavePower;2;Microwave power
MarkerEnabled;False;
MarkerStartField;0;
MarkerEndField;0;
Mode;;
KineticGFact;0;
KineticTotalTransientTime;0;
KineticTimeResolution;0;
TempFrom;5;
TempUseSlope;False;
TempTo;5;
TempdT;1;
TempSetupTime;0;
GonFrom;0;
GonTo;180;
GonSteps;20;
XRayEnabled;False;
XRayTime;3;
XRayVoltage;40;
XRayCurrent;0.5;
UVEnabled;False;
UVIntensity;0;
UVTime;0;
UVLeadTime;0;
UVWavelength;0;
PowSweepFrom;1;
PowSweepTo;5;
PowSweepSteps;5;
AmpModSweepFrom;0;
AmpModSweepTo;1;
AmpModSweepSteps;10;
ExtTriggerEnabled;False;
ExtTrigLeadTime;0;
ExtTrigOnTime;5;

Meas
BField [mT];MW_Absorption []
313.017191925049;128.752775262179
313.038799828823;128.359723976958
313.060407732597;127.962911517891
313.082015636372;127.576961617631
313.103623540146;127.23844915569
313.12523144392;126.950775349168
313.146839347694;126.709474098502
313.168447251468;126.508651238437
313.190055155243;126.350932217318
313.211663059017;126.224582511377
313.233270962791;126.107771755508
313.254878866565;125.990274184622
313.276486770339;125.878173494647
313.298094674114;125.766320469665
313.319702577888;125.645587025098
313.341310481662;125.516595170374
313.362918385436;125.379693489524
313.384526289211;125.222898751217
313.406134192985;125.045515592319
313.427742096759;124.862804042348
313.449350000533;124.674212096448
313.470957904308;124.483228927167
313.492565808082;124.287689805183
313.514173711856;124.09030148562
313.53578161563;123.908519376078
313.557389519404;123.747765266619
313.578997423179;123.607819974049
313.600605326953;123.486780830518
313.622213230727;123.377882712476
313.643821134501;123.275107989574
313.665429038275;123.175815530835
313.68703694205;123.076055873597
313.708644845824;122.971666883011
313.730252749598;122.858354830263
313.751860653372;122.730021278922
313.773468557147;122.581135616045
313.795076460921;122.410480559949
313.816684364695;122.238698833717
313.838292268469;122.092431610964
313.859900172244;121.971436412382
313.881508076018;121.873601868929
313.903115979792;121.800731398568
313.924723883566;121.74869077231
313.94633178734;121.708165768079
313.967939691115;121.673205691608
313.989547594889;121.640667726727
314.011155498663;121.60468359106
314.032763402437;121.556279778528
314.054371306212;121.491369524036
314.075979209986;121.408295729654
314.09758711376;121.304485885491
314.119195017534;121.176377089405
314.140802921308;121.023300010009
314.162410825083;120.846730326579
314.184018728857;120.648329158576
314.205626632631;120.440337341411
314.227234536405;120.239809424213
314.248842440179;120.044949320073
314.270450343954;119.846726348135
314.292058247728;119.646554895359
314.313666151502;119.447483962844
314.335274055276;119.240740020377
314.356881959051;119.033522680418
314.378489862825;118.846983421614
314.400097766599;118.684097485829
314.421705670373;118.544446571813
314.443313574148;118.422699836368
314.464921477922;118.317351844102
314.486529381696;118.232002881
314.50813728547;118.156287222375
314.529745189244;118.083127173051
314.551353093019;118.018995116536
314.572960996793;117.961601993385
314.594568900567;117.892177258544
314.616176804341;117.795863703352
314.637784708115;117.677563427
314.65939261189;117.542315603227
314.681000515664;117.380746745063
314.702608419438;117.198439227948
314.724216323212;117.005066286165
314.745824226987;116.808977680612
314.767432130761;116.609520026411
314.789040034535;116.413649138211
314.810647938309;116.221662754706
314.832255842084;116.025156638091
314.853863745858;115.816920688389
314.875471649632;115.604491467767
314.897079553406;115.403522822479
314.91868745718;115.206565476294
314.940295360955;115.004732604894
314.961903264729;114.795797594411
314.983511168503;114.587780667869
315.005119072277;114.397842787403
315.026726976051;114.234565046263
315.048334879826;114.093344894614
315.0699427836;113.972042314263
315.091550687374;113.875937139232
315.113158591148;113.802477389771
315.134766494923;113.739083132085
315.156374398697;113.678449194648
315.177982302471;113.628285330062
315.199590206245;113.591439110138
315.221198110019;113.561729121032
315.242806013794;113.542272845521
315.264413917568;113.538959792372
315.286021821342;113.545208240603
315.307629725116;113.552359014783
315.329237628891;113.564463042608
315.350845532665;113.589015382094
315.372453436439;113.61843109076
315.394061340213;113.642990959078
315.415669243987;113.66313792599
315.437277147762;113.680394004903
315.458885051536;113.692187110239
315.48049295531;113.695281893445
315.502100859084;113.687464431531
315.523708762859;113.66170233943
315.545316666633;113.610218623882
315.566924570407;113.532913469795
315.588532474181;113.434168900045
315.610140377955;113.315430303215
315.63174828173;113.172389125756
315.653356185504;113.00164003771
315.674964089278;112.813316210341
315.696571993052;112.61680639874
315.718179896827;112.411516689124
315.739787800601;112.199369949409
315.761395704375;111.984378911606
315.783003608149;111.778872821235
315.804611511924;111.59127583034
315.826219415698;111.413658616667
315.847827319472;111.238570399035
315.869435223246;111.061184981614
315.89104312702;110.88411332204
315.912651030795;110.719619000209
315.934258934569;110.570241477594
315.955866838343;110.430847742915
315.977474742117;110.299197898084
315.999082645891;110.175780308686
316.020690549666;110.0584835608
316.04229845344;109.946544495689
316.063906357214;109.838591461536
316.085514260988;109.739632838145
316.107122164763;109.651946295117
316.128730068537;109.570811055515
316.150337972311;109.491591672301
316.171945876085;109.409222267522
316.193553779859;109.314131028873
316.215161683634;109.204986606064
316.236769587408;109.083952946789
316.258377491182;108.947265666945
316.279985394956;108.791543900143
316.301593298731;108.61872085661
316.323201202505;108.436016567382
316.344809106279;108.239909263205
316.366417010053;108.038938064018
316.388024913827;107.852959446538
316.409632817602;107.690702640392
316.431240721376;107.548788523643
316.45284862515;107.426796257991
316.474456528924;107.33026887769
316.496064432699;107.254698663743
316.517672336473;107.187366595847
316.539280240247;107.11320060569
316.560888144021;107.02484846816
316.582496047795;106.913717035566
316.60410395157;106.76791710391
316.625711855344;106.575456267071
316.647319759118;106.322893056781
316.668927662892;106.005889823078
316.690535566667;105.632007773877
316.712143470441;105.211359216613
316.733751374215;104.764305712231
316.755359277989;104.296851963622
316.776967181763;103.801871022952
316.798575085538;103.272328979213
316.820182989312;102.709435368028
316.841790893086;102.138616528915
316.86339879686;101.588431864492
316.885006700635;101.058712412504
316.906614604409;100.552233284402
316.928222508183;100.075805382268
316.949830411957;99.6298444150858
316.971438315731;99.2116184013481
316.993046219506;98.8245470671616
317.01465412328;98.4823005958608
317.036262027054;98.194658188323
317.057869930828;97.962263962247
317.079477834603;97.7799679458443
317.101085738377;97.6411461422884
317.122693642151;97.5427403009313
317.144301545925;97.4809403334068
317.165909449699;97.4540322857592
317.187517353474;97.4528064113102
317.209125257248;97.4678748491314
317.230733161022;97.4907234492071
317.252341064796;97.5127523294842
317.273948968571;97.5271077738601
317.295556872345;97.5232671086964
317.317164776119;97.5009111647189
317.338772679893;97.4661735833307
317.360380583667;97.413314756778
317.381988487442;97.3349533609859
317.403596391216;97.228269894549
317.42520429499;97.0925299244234
317.446812198764;96.931840181687
317.468420102539;96.7489969077807
317.490028006313;96.5443880656972
317.511635910087;96.3211687045682
317.533243813861;96.0799333236525
317.554851717635;95.8229721810445
317.57645962141;95.552142012716
317.598067525184;95.2694594881939
317.619675428958;94.9832558863579
317.641283332732;94.714741430943
317.662891236507;94.4645014494801
317.684499140281;94.2334856379898
317.706107044055;94.0341738695755
317.727714947829;93.8676762718357
317.749322851603;93.7284760292957
317.770930755378;93.607827735877
317.792538659152;93.4932410749436
317.814146562926;93.3734762789263
317.8357544667;93.2426283910187
317.857362370475;93.0984339150426
317.878970274249;92.9343446786102
317.900578178023;92.7443308016472
317.922186081797;92.5261181605851
317.943793985571;92.2783093236273
317.965401889346;92.0044087888206
317.98700979312;91.708230796628
318.008617696894;91.3916043669937
318.030225600668;91.061936898486
318.051833504443;90.7331920162568
318.073441408217;90.4122076367545
318.095049311991;90.0978870614354
318.116657215765;89.7848457157305
318.138265119539;89.4710632833292
318.159873023314;89.1577961240122
318.181480927088;88.842299124555
318.203088830862;88.5214119262769
318.224696734636;88.1844919287046
318.246304638411;87.8055262192066
318.267912542185;87.3899078743078
318.289520445959;86.9895021010665
318.311128349733;86.6206312952468
318.332736253507;86.2686196906507
318.354344157282;85.9133291919628
318.375952061056;85.5521274119125
318.39755996483;85.2029530217185
318.419167868604;84.8877874634636
318.440775772379;84.6120726141291
318.462383676153;84.3629280566865
318.483991579927;84.1292708012633
318.505599483701;83.912357328695
318.527207387475;83.7075610190958
318.54881529125;83.5095212715002
318.570423195024;83.3120211661551
318.592031098798;83.114311124365
318.613639002572;82.9168380776326
318.635246906347;82.7212528228807
318.656854810121;82.5290795792095
318.678462713895;82.334588961297
318.700070617669;82.127946514192
318.721678521443;81.8998366304136
318.743286425218;81.6480160818153
318.764894328992;81.3787150858877
318.786502232766;81.0931907824492
318.80811013654;80.7860251755354
318.829718040315;80.4535101772017
318.851325944089;80.101646655162
318.872933847863;79.7466203886094
318.894541751637;79.3889850845747
318.916149655411;79.0128550499267
318.937757559186;78.6173475981192
318.95936546296;78.2303973511258
318.980973366734;77.8647507873778
319.002581270508;77.5052578592712
319.024189174283;77.1587233986406
319.045797078057;76.8402398482006
319.067404981831;76.5550738659699
319.089012885605;76.3033407043579
319.110620789379;76.0897783393503
319.132228693154;75.9282110236094
319.153836596928;75.8181159035146
319.175444500702;75.7550255899392
319.197052404476;75.7412977921447
319.218660308251;75.7797406651025
319.240268212025;75.8481984390076
319.261876115799;75.9264251603228
319.283484019573;76.0023400509661
319.305091923347;76.0671720838303
319.326699827122;76.110350845828
319.348307730896;76.1267480643666
319.36991563467;76.107963502135
319.391523538444;76.0520557538728
319.413131442219;75.9523861865142
319.434739345993;75.8095732547019
319.456347249767;75.6318214602825
319.477955153541;75.4105464246685
319.499563057315;75.141381989343
319.52117096109;74.8336598719423
319.542778864864;74.4972425995562
319.564386768638;74.137144098022
319.585994672412;73.7612858934494
319.607602576187;73.3821051441519
319.629210479961;73.0059548926169
319.650818383735;72.6379544493394
319.672426287509;72.2903962938473
319.694034191283;71.9692219210579
319.715642095058;71.6800222596331
319.737249998832;71.4488552711209
319.758857902606;71.2954193120895
319.78046580638;71.2168163130045
319.802073710155;71.2115481806671
319.823681613929;71.2873281768892
319.845289517703;71.4541046876177
319.866897421477;71.7109305736957
319.888505325251;72.0244668805337
319.910113229026;72.3663431686595
319.9317211328;72.7218014793368
319.953329036574;73.0918122548622
319.974936940348;73.4728627056135
319.996544844123;73.8474485316963
320.018152747897;74.1974582603577
320.039760651671;74.5267242380436
320.061368555445;74.8328217354733
320.082976459219;75.10118955825
320.104584362994;75.3193794399302
320.126192266768;75.4886242336011
320.147800170542;75.6157564559552
320.169408074316;75.6990702481814
320.19101597809;75.7312335495815
320.212623881865;75.7159566284743
320.234231785639;75.6640580424816
320.255839689413;75.5771012738798
320.277447593187;75.4542397946327
320.299055496962;75.3050632119726
320.320663400736;75.1404192399742
320.34227130451;74.9570186735913
320.363879208284;74.7537927339589
320.385487112059;74.5355677683217
320.407095015833;74.317424183602
320.428702919607;74.1116933537811
320.450310823381;73.9245808880467
320.471918727155;73.7651365435746
320.49352663093;73.625561929669
320.515134534704;73.4896619068123
320.536742438478;73.357020783798
320.558350342252;73.2396831506311
320.579958246026;73.1397802352646
320.601566149801;73.0480901374418
320.623174053575;72.9473416676336
320.644781957349;72.8280400375265
320.666389861123;72.6893744212725
320.687997764898;72.5310026435004
320.709605668672;72.3524896097406
320.731213572446;72.1533316315977
320.75282147622;71.9359244378164
320.774429379995;71.6985051235182
320.796037283769;71.4353064772478
320.817645187543;71.1496962610568
320.839253091317;70.8537014797152
320.860860995091;70.5531788880481
320.882468898866;70.2580634949592
320.90407680264;69.9884025086034
320.925684706414;69.7563568240527
320.947292610188;69.5602601477973
320.968900513963;69.3959874116258
320.990508417737;69.2612570027424
321.012116321511;69.1543473815756
321.033724225285;69.0683929596098
321.055332129059;68.9974039900036
321.076940032834;68.9298224851252
321.098547936608;68.8494256904091
321.120155840382;68.7402431866047
321.141763744156;68.5819540376093
321.16337164793;68.3633168215971
321.184979551705;68.0862797053746
321.206587455479;67.7467395306219
321.228195359253;67.3330620198864
321.249803263027;66.8496069499408
321.271411166802;66.3090347809435
321.293019070576;65.7160968798948
321.31462697435;65.070403258721
321.336234878124;64.3817646489448
321.357842781899;63.6672148226281
321.379450685673;62.9354148574278
321.401058589447;62.2094268599291
321.422666493221;61.5373415648617
321.444274396995;60.9398187901872
321.46588230077;60.4033212312661
321.487490204544;59.9191046530352
321.509098108318;59.4980624118742
321.530706012092;59.1494245568757
321.552313915866;58.861004008513
321.573921819641;58.6348200778241
321.595529723415;58.478930551131
321.617137627189;58.3862677617173
321.638745530963;58.3422868281267
321.660353434738;58.3324554253797
321.681961338512;58.3448293884641
321.703569242286;58.3790242245368
321.72517714606;58.4385445903526
321.746785049835;58.5187570467073
321.768392953609;58.6123665344466
321.790000857383;58.7208477045693
321.811608761157;58.8465602891332
321.833216664931;58.9816410632091
321.854824568706;59.1181493209151
321.87643247248;59.2572086392958
321.898040376254;59.3999870245623
321.919648280028;59.5479074996893
321.941256183802;59.7106585630027
321.962864087577;59.890427030284
321.984471991351;60.0718575286961
322.006079895125;60.2480468763872
322.027687798899;60.4225248689624
322.049295702674;60.595465380262
322.070903606448;60.7619089710226
322.092511510222;60.9110730195784
322.114119413996;61.0386933764652
322.13572731777;61.1454041849122
322.157335221545;61.2283905978504
322.178943125319;61.2830408512236
322.200551029093;61.3050364237173
322.222158932867;61.2919966971582
322.243766836642;61.2406211578866
322.265374740416;61.1513551206012
322.28698264419;61.0277297003605
322.308590547964;60.8724402659661
322.330198451738;60.6915526662259
322.351806355513;60.4911842074587
322.373414259287;60.2636737633071
322.395022163061;60.0013720740753
322.416630066835;59.7107266156698
322.43823797061;59.4006789537771
322.459845874384;59.0668437741949
322.481453778158;58.7097693761633
322.503061681932;58.3483187469809
322.524669585706;57.9932221298896
322.546277489481;57.6279063284149
322.567885393255;57.2471993928555
322.589493297029;56.8560168662843
322.611101200803;56.4618357062165
322.632709104578;56.0673095439626
322.654317008352;55.6723705398863
322.675924912126;55.2883025521005
322.6975328159;54.9262891580746
322.719140719674;54.59480781168
322.740748623449;54.2918943324332
322.762356527223;54.0067838249516
322.783964430997;53.7261070807511
322.805572334771;53.4396636325665
322.827180238546;53.1461636867863
322.84878814232;52.8489302979019
322.870396046094;52.553810585296
322.892003949868;52.2628752386614
322.913611853642;51.9669759238121
322.935219757417;51.6619011947919
322.956827661191;51.352321752221
322.978435564965;51.0349334126583
323.000043468739;50.703982915533
323.021651372514;50.3590858975421
323.043259276288;50.0092779017371
323.064867180062;49.6667916244074
323.086475083836;49.3401213707349
323.10808298761;49.0307260944306
323.129690891385;48.738491758843
323.151298795159;48.4776845688125
323.172906698933;48.2604895883728
323.194514602707;48.0833200836247
323.216122506482;47.9362106158522
323.237730410256;47.8122753963309
323.25933831403;47.7090407718425
323.280946217804;47.6192210756484
323.302554121578;47.5319504792917
323.324162025353;47.4366626813014
323.345769929127;47.3271922686715
323.367377832901;47.2040643058353
323.388985736675;47.0656799162344
323.41059364045;46.9186489885117
323.432201544224;46.7777957789109
323.453809447998;46.6323636110144
323.475417351772;46.4668494362641
323.497025255546;46.2895363557595
323.518633159321;46.1004176788626
323.540241063095;45.9009346892298
323.561848966869;45.7018858463612
323.583456870643;45.5071143809897
323.605064774418;45.3070831529443
323.626672678192;45.1072504134967
323.648280581966;44.9268372540256
323.66988848574;44.776760115186
323.691496389514;44.6639048889211
323.713104293289;44.5909329007371
323.734712197063;44.5569725720434
323.756320100837;44.5614783095102
323.777928004611;44.6161522983035
323.799535908386;44.7477530777864
323.82114381216;44.9532523356313
323.842751715934;45.2014376151384
323.864359619708;45.4660579353334
323.885967523482;45.7467400046068
323.907575427257;46.032418219191
323.929183331031;46.3088197068476
323.950791234805;46.5638384913385
323.972399138579;46.7816763010266
323.994007042354;46.9492248075286
324.015614946128;47.0473118730904
324.037222849902;47.0662988611685
324.058830753676;47.0016534474009
324.08043865745;46.8538529266753
324.102046561225;46.6293354633106
324.123654464999;46.3318253030677
324.145262368773;45.9679508906973
324.166870272547;45.5451324603402
324.188478176322;45.0670579673144
324.210086080096;44.5360356485132
324.23169398387;43.9635645483332
324.253301887644;43.3646579574102
324.274909791418;42.7564797984436
324.296517695193;42.1467291273085
324.318125598967;41.5364339855205
324.339733502741;40.9307154891851
324.361341406515;40.3421568015639
324.38294931029;39.7825564499199
324.404557214064;39.2655895362004
324.426165117838;38.8057389471063
324.447773021612;38.4036296038347
324.469380925386;38.034642281509
324.490988829161;37.6849262410798
324.512596732935;37.366699960615
324.534204636709;37.086905635424
324.555812540483;36.8385188126817
324.577420444258;36.618551832193
324.599028348032;36.4188226639682
324.620636251806;36.2381779279318
324.64224415558;36.080147915607
324.663852059354;35.9475102814403
324.685459963129;35.8365129627224
324.707067866903;35.7437062214572
324.728675770677;35.6661041830946
324.750283674451;35.5990470614014
324.771891578226;35.5275233281484
