Name;BF_ESR_01_14400s_y_gon_140dg_result

Recipe
Accumulations;5;Number of accumulations
RetryCount;0;Number of retries on error
AbortOnError;True;Abort on error
EnableQFactorMeasurement;False;Enable/Disable q-Factor measurement
Bfrom;313;B from
Bto;363;B to
SweepTime;60;Sweep time
Modulation;0.2;Modulation
ModulationFreq;100;Modulation
BHoldEnabled;False;B hold enabled
BHold;0;B hold
MicrowavePower;2;Microwave power
MarkerEnabled;False;
MarkerStartField;0;
MarkerEndField;0;
Mode;;
KineticGFact;0;
KineticTotalTransientTime;0;
KineticTimeResolution;0;
TempFrom;5;
TempUseSlope;False;
TempTo;5;
TempdT;1;
TempSetupTime;0;
GonFrom;0;
GonTo;180;
GonSteps;20;
XRayEnabled;False;
XRayTime;3;
XRayVoltage;40;
XRayCurrent;0.5;
UVEnabled;False;
UVIntensity;0;
UVTime;0;
UVLeadTime;0;
UVWavelength;0;
PowSweepFrom;1;
PowSweepTo;5;
PowSweepSteps;5;
AmpModSweepFrom;0;
AmpModSweepTo;1;
AmpModSweepSteps;10;
ExtTriggerEnabled;False;
ExtTrigLeadTime;0;
ExtTrigOnTime;5;

Meas
BField [mT];MW_Absorption []
313.027036514282;56.63631049758
313.048649953746;56.1250246022407
313.070263393209;55.5679562289593
313.091876832672;54.968348697942
313.113490272136;54.3368654894647
313.135103711599;53.7000071711335
313.156717151062;53.0819534785372
313.178330590526;52.4981214663554
313.199944029989;51.9537993337294
313.221557469453;51.4555759527687
313.243170908916;51.0226290500711
313.264784348379;50.6705782792718
313.286397787843;50.4055511844916
313.308011227306;50.2290195569621
313.329624666769;50.1487539366353
313.351238106233;50.1622508105401
313.372851545696;50.2563359190142
313.39446498516;50.4104898111748
313.416078424623;50.5970431410954
313.437691864086;50.7930212144934
313.45930530355;50.9840561846265
313.480918743013;51.1625599479532
313.502532182476;51.3083699049706
313.52414562194;51.3989659305833
313.545759061403;51.4299685642758
313.567372500867;51.40695423932
313.58898594033;51.3267816557672
313.610599379793;51.1853494065057
313.632212819257;50.9999194859751
313.65382625872;50.7829759351163
313.675439698183;50.5337874658556
313.697053137647;50.2627518863564
313.71866657711;50.0042876686919
313.740280016574;49.7677503411859
313.761893456037;49.5463623823734
313.7835068955;49.3409925197391
313.805120334964;49.1441557305495
313.826733774427;48.9426247814811
313.84834721389;48.738936057072
313.869960653354;48.5511435165587
313.891574092817;48.3838465103184
313.913187532281;48.2183434264487
313.934800971744;48.0364982515991
313.956414411207;47.8412039709196
313.978027850671;47.6447646112812
313.999641290134;47.4469119144342
314.021254729597;47.2428869694979
314.042868169061;47.0400838179118
314.064481608524;46.842575538581
314.086095047988;46.6428125059404
314.107708487451;46.429197798749
314.129321926914;46.1991206854773
314.150935366378;45.9791088471241
314.172548805841;45.7893630538658
314.194162245304;45.6147491457076
314.215775684768;45.4567883192304
314.237389124231;45.327586571845
314.259002563694;45.2288837799528
314.280616003158;45.1589595414556
314.302229442621;45.1166280653296
314.323842882085;45.1002788741615
314.345456321548;45.1153074700404
314.367069761011;45.1550756094665
314.388683200475;45.2085730574595
314.410296639938;45.2752823427124
314.431910079401;45.3598847592135
314.453523518865;45.4661841069548
314.475136958328;45.583075581054
314.496750397792;45.6954842160845
314.518363837255;45.8023613828634
314.539977276718;45.908000751393
314.561590716182;46.0129904690619
314.583204155645;46.1114583756881
314.604817595108;46.1920664459212
314.626431034572;46.2502913516932
314.648044474035;46.2847181504958
314.669657913499;46.2952452831465
314.691271352962;46.2822920947048
314.712884792425;46.2483147404361
314.734498231889;46.1890102269646
314.756111671352;46.1001851893813
314.777725110815;45.9869613180931
314.799338550279;45.8488131802096
314.820951989742;45.6797656621768
314.842565429206;45.4782566894111
314.864178868669;45.2360522882632
314.885792308132;44.9659885790456
314.907405747596;44.6962018148591
314.929019187059;44.4342266649299
314.950632626522;44.1674857870456
314.972246065986;43.8891214817065
314.993859505449;43.6127688585125
315.015472944913;43.3810669386417
315.037086384376;43.2207432064563
315.058699823839;43.1196607237376
315.080313263303;43.0666505148481
315.101926702766;43.0713964572301
315.123540142229;43.1441329081972
315.145153581693;43.2864784388272
315.166767021156;43.4916870222981
315.18838046062;43.7480319034154
315.209993900083;44.0330504337449
315.231607339546;44.3254737442415
315.25322077901;44.6109164689596
315.274834218473;44.8737197387415
315.296447657936;45.1002214100714
315.3180610974;45.2833228783499
315.339674536863;45.4073256171088
315.361287976326;45.4547957157134
315.38290141579;45.4240707401839
315.404514855253;45.3274281720645
315.426128294717;45.1701576976765
315.44774173418;44.9432379822432
315.469355173643;44.6476166688641
315.490968613107;44.3255903079021
315.51258205257;44.0081905542278
315.534195492033;43.6917416986117
315.555808931497;43.3683802041109
315.57742237096;43.0491573378445
315.599035810424;42.7537304033323
315.620649249887;42.4849060385743
315.64226268935;42.241916175338
315.663876128814;42.0242883509855
315.685489568277;41.8295874404727
315.70710300774;41.6527803418403
315.728716447204;41.490822615775
315.750329886667;41.3465905316341
315.771943326131;41.2269104106872
315.793556765594;41.1391018863072
315.815170205057;41.0872497980508
315.836783644521;41.0720784082878
315.858397083984;41.0909505946785
315.880010523447;41.1359404081398
315.901623962911;41.2002205789824
315.923237402374;41.2805866318572
315.944850841838;41.3691728719505
315.966464281301;41.4526854729236
315.988077720764;41.5245102198566
316.009691160228;41.5875083949167
316.031304599691;41.651099139486
316.052918039154;41.7171204677148
316.074531478618;41.7749455741611
316.096144918081;41.8445817254773
316.117758357545;41.9524466943279
316.139371797008;42.1060335567861
316.160985236471;42.3011766994092
316.182598675935;42.5468371734752
316.204212115398;42.8613859758796
316.225825554861;43.2382331364435
316.247438994325;43.6497665740382
316.269052433788;44.0887069543232
316.290665873252;44.5699800353503
316.312279312715;45.0744470750971
316.333892752178;45.5415288945369
316.355506191642;45.9338549332969
316.377119631105;46.2501862262547
316.398733070568;46.5021331843166
316.420346510032;46.6882546572924
316.441959949495;46.7989885603507
316.463573388958;46.8290542180012
316.485186828422;46.7774580655471
316.506800267885;46.6460991623485
316.528413707349;46.4540678514422
316.550027146812;46.2356942347019
316.571640586275;46.0006173212778
316.593254025739;45.7611355769239
316.614867465202;45.5360859539571
316.636480904665;45.3189697514083
316.658094344129;45.1032965911345
316.679707783592;44.8957667437763
316.701321223056;44.6957845918931
316.722934662519;44.4898932299477
316.744548101982;44.2782194093987
316.766161541446;44.0659925076716
316.787774980909;43.8458766629148
316.809388420372;43.599013650323
316.831001859836;43.3311842396738
316.852615299299;43.0621271447653
316.874228738763;42.7994215781427
316.895842178226;42.5500109255374
316.917455617689;42.3212332695596
316.939069057153;42.1093672433503
316.960682496616;41.9268682433702
316.982295936079;41.7930475252454
317.003909375543;41.7053314766857
317.025522815006;41.6559460578374
317.04713625447;41.6449756116312
317.068749693933;41.6670228416293
317.090363133396;41.7054328681873
317.11197657286;41.7486723795338
317.133590012323;41.7852595950547
317.155203451786;41.8084201291803
317.17681689125;41.8133916620988
317.198430330713;41.7933228605016
317.220043770177;41.7451837284214
317.24165720964;41.6730371135885
317.263270649103;41.5811149855454
317.284884088567;41.4641786765417
317.30649752803;41.3264818862971
317.328110967493;41.1876741442545
317.349724406957;41.069018225675
317.37133784642;40.969693514243
317.392951285883;40.8843276538219
317.414564725347;40.822506204811
317.43617816481;40.7945403446268
317.457791604274;40.7947139351276
317.479405043737;40.8160004234106
317.5010184832;40.8610556578051
317.522631922664;40.9348482274669
317.544245362127;41.0381279353691
317.56585880159;41.1572092357881
317.587472241054;41.2785308829091
317.609085680517;41.4066865682281
317.630699119981;41.5351244232273
317.652312559444;41.6450362168432
317.673925998907;41.7279368380875
317.695539438371;41.7866950743966
317.717152877834;41.8338158841927
317.738766317297;41.8721274420557
317.760379756761;41.8822719719497
317.781993196224;41.8606094433011
317.803606635688;41.8074283727841
317.825220075151;41.7225213590054
317.846833514614;41.6104440607964
317.868446954078;41.4933518044387
317.890060393541;41.3838944109072
317.911673833004;41.2780943631415
317.933287272468;41.1670070482343
317.954900711931;41.0452969040582
317.976514151395;40.9217980232129
317.998127590858;40.8097461673824
318.019741030321;40.7171712281778
318.041354469785;40.6556918826444
318.062967909248;40.6376424884019
318.084581348711;40.6638070820572
318.106194788175;40.7344580201819
318.127808227638;40.8530580740202
318.149421667101;41.021431481833
318.171035106565;41.2459876929952
318.192648546028;41.5268743224958
318.214261985492;41.8556754567123
318.235875424955;42.2167882401922
318.257488864418;42.595939629525
318.279102303882;42.9820884296923
318.300715743345;43.3653942431566
318.322329182808;43.746645940199
318.343942622272;44.1127365335463
318.365556061735;44.4320380030133
318.387169501199;44.684926219074
318.408782940662;44.870185793641
318.430396380125;44.9747979075868
318.452009819589;44.9817774272688
318.473623259052;44.8910803597101
318.495236698515;44.7083495221659
318.516850137979;44.4369375630586
318.538463577442;44.0800237311625
318.560077016906;43.6545989995199
318.581690456369;43.1905917311769
318.603303895832;42.7031759959319
318.624917335296;42.1900185519018
318.646530774759;41.67147651218
318.668144214222;41.1962828371965
318.689757653686;40.7793007314959
318.711371093149;40.4120814304164
318.732984532613;40.0948356102972
318.754597972076;39.8347488429682
318.776211411539;39.649512959978
318.797824851003;39.5521034335573
318.819438290466;39.5224069764334
318.841051729929;39.5367821963397
318.862665169393;39.5808832833604
318.884278608856;39.6467424884137
318.90589204832;39.7310273128313
318.927505487783;39.8299388890578
318.949118927246;39.9361972003209
318.97073236671;40.0400182270895
318.992345806173;40.1282784310042
319.013959245636;40.1972796015783
319.0355726851;40.2585257530899
319.057186124563;40.3194045964697
319.078799564027;40.3893919783052
319.10041300349;40.4722776649026
319.122026442953;40.5687497635533
319.143639882417;40.6734374827612
319.16525332188;40.779296507351
319.186866761343;40.8863851799434
319.208480200807;40.9993013796762
319.23009364027;41.1205020914579
319.251707079733;41.2527241210576
319.273320519197;41.4069580733149
319.29493395866;41.5765310469708
319.316547398124;41.7395498185582
319.338160837587;41.8871596456199
319.35977427705;42.0222356718442
319.381387716514;42.1447297709878
319.403001155977;42.2421896920517
319.42461459544;42.2975811323888
319.446228034904;42.3044911060494
319.467841474367;42.2636877076003
319.489454913831;42.1727173317384
319.511068353294;42.0246727246021
319.532681792757;41.8093052416604
319.554295232221;41.5221193779865
319.575908671684;41.1706190543478
319.597522111147;40.7643405309601
319.619135550611;40.3101554626009
319.640748990074;39.8196944295303
319.662362429538;39.3107343037688
319.683975869001;38.7979445634469
319.705589308464;38.3012881970342
319.727202747928;37.8415123725119
319.748816187391;37.430412449492
319.770429626854;37.0684831020051
319.792043066318;36.7520151315945
319.813656505781;36.4881585503259
319.835269945245;36.2974304573408
319.856883384708;36.1845801410981
319.878496824171;36.1357986260999
319.900110263635;36.1384096942733
319.921723703098;36.1881614371675
319.943337142561;36.2801144654239
319.964950582025;36.4017036407673
319.986564021488;36.5385478948056
320.008177460952;36.6750928802423
320.029790900415;36.7983908913914
320.051404339878;36.9005647210914
320.073017779342;36.9753477874968
320.094631218805;37.0245637757948
320.116244658268;37.060169605196
320.137858097732;37.0855146321155
320.159471537195;37.1002871128211
320.181084976659;37.1108941896957
320.202698416122;37.1267015840834
320.224311855585;37.158365968146
320.245925295049;37.2146002174463
320.267538734512;37.2963278819177
320.289152173975;37.405877892918
320.310765613439;37.5381297133074
320.332379052902;37.673420302886
320.353992492365;37.8082788456037
320.375605931829;37.9442191901367
320.397219371292;38.0742428081911
320.418832810756;38.191555577667
320.440446250219;38.2893542470967
320.462059689682;38.3635268449097
320.483673129146;38.4145847985253
320.505286568609;38.4387543726744
320.526900008072;38.4333407910316
320.548513447536;38.3902314478893
320.570126886999;38.3116057797412
320.591740326463;38.2128466262366
320.613353765926;38.0994721068247
320.634967205389;37.9703381873908
320.656580644853;37.8282811911772
320.678194084316;37.6824186531398
320.699807523779;37.5406156062875
320.721420963243;37.4116363924279
320.743034402706;37.3001141956348
320.76464784217;37.2055360791789
320.786261281633;37.1399501934773
320.807874721096;37.1091858463346
320.82948816056;37.1080634130863
320.851101600023;37.1377805152128
320.872715039486;37.1922368598111
320.89432847895;37.2486349951893
320.915941918413;37.2896707582237
320.937555357877;37.3122027577148
320.95916879734;37.3118270323085
320.980782236803;37.2834755836699
321.002395676267;37.2218734419262
321.02400911573;37.1251729927789
321.045622555193;36.9986105315619
321.067235994657;36.8508460335678
321.08884943412;36.6951988259747
321.110462873584;36.5555032899583
321.132076313047;36.4662706470327
321.15368975251;36.443094895876
321.175303191974;36.485061802476
321.196916631437;36.5845199983651
321.2185300709;36.7266187890517
321.240143510364;36.9133369879449
321.261756949827;37.1347620400793
321.283370389291;37.36220766666
321.304983828754;37.575026267808
321.326597268217;37.7550147699386
321.348210707681;37.8895639488602
321.369824147144;37.9727925297407
321.391437586607;37.9994872628368
321.413051026071;37.9658834876406
321.434664465534;37.8659797199317
321.456277904997;37.6990160567289
321.477891344461;37.4829099769624
321.499504783924;37.2246605592207
321.521118223388;36.9299250626188
321.542731662851;36.6331613047662
321.564345102314;36.3726734711199
321.585958541778;36.1563269375722
321.607571981241;35.9751792140217
321.629185420704;35.8213035136067
321.650798860168;35.6919391350736
321.672412299631;35.5918022133031
321.694025739095;35.5299446680936
321.715639178558;35.5112517323432
321.737252618021;35.5216456938426
321.758866057485;35.5515369502012
321.780479496948;35.5981448213264
321.802092936411;35.6566648562865
321.823706375875;35.721584868601
321.845319815338;35.7871604372526
321.866933254802;35.8525538297329
321.888546694265;35.9127111128552
321.910160133728;35.9629776775719
321.931773573192;35.9893425506768
321.953387012655;35.9834883340605
321.975000452118;35.9488846816118
321.996613891582;35.8817348763973
322.018227331045;35.7777045877624
322.039840770509;35.6384375158481
322.061454209972;35.4628780874264
322.083067649435;35.2616297182552
322.104681088899;35.0518170688521
322.126294528362;34.8425506448269
322.147907967825;34.6345579336874
322.169521407289;34.4335085453343
322.191134846752;34.2489710686619
322.212748286216;34.0996070543071
322.234361725679;33.9866091092707
322.255975165142;33.9047891246086
322.277588604606;33.8551389339335
322.299202044069;33.832198845153
322.320815483532;33.8401152931214
322.342428922996;33.8841562402779
322.364042362459;33.9599827816109
322.385655801923;34.0606053158406
322.407269241386;34.1810190308692
322.428882680849;34.3095714599974
322.450496120313;34.4443995667347
322.472109559776;34.5884921677871
322.493722999239;34.7382687331328
322.515336438703;34.8657225277948
322.536949878166;34.9548294270271
322.558563317629;34.9968518636825
322.580176757093;34.985105372114
322.601790196556;34.9158518760036
322.62340363602;34.7897839281204
322.645017075483;34.6117190596403
322.666630514946;34.3852583111394
322.68824395441;34.1151490317115
322.709857393873;33.8124808828439
322.731470833336;33.4881416218791
322.7530842728;33.1445578509984
322.774697712263;32.78646772508
322.796311151727;32.4357946638546
322.81792459119;32.1120758519331
322.839538030653;31.8282911598192
322.861151470117;31.5878244227133
322.88276490958;31.3890976050887
322.904378349043;31.2364233683425
322.925991788507;31.1324182861539
322.94760522797;31.0681755146414
322.969218667434;31.0303032779259
322.990832106897;31.0129703207921
323.01244554636;31.0222452091145
323.034058985824;31.0552201330995
323.055672425287;31.1014989788188
323.07728586475;31.144880307727
323.098899304214;31.1737205821356
323.120512743677;31.1817881216898
323.142126183141;31.1675197673654
323.163739622604;31.1388781615509
323.185353062067;31.1040416729438
323.206966501531;31.0606415557072
323.228579940994;31.0047178730487
323.250193380457;30.9445521373614
323.271806819921;30.8896889660509
323.293420259384;30.8466713262086
323.315033698847;30.8267056859058
323.336647138311;30.8392531791517
323.358260577774;30.8766845069757
323.379874017238;30.9323855221736
323.401487456701;31.0109390897001
323.423100896164;31.1179069401373
323.444714335628;31.259431710555
323.466327775091;31.4381188911996
323.487941214554;31.6425965839438
323.509554654018;31.8552272086032
323.531168093481;32.0707169234396
323.552781532945;32.2823896835507
323.574394972408;32.4917153353068
323.596008411871;32.7010254914566
323.617621851335;32.8986671298195
323.639235290798;33.0604070039934
323.660848730261;33.1867358051603
323.682462169725;33.2857466617914
323.704075609188;33.3660239690894
323.725689048652;33.433621692577
323.747302488115;33.4847618345188
323.768915927578;33.5098728569767
323.790529367042;33.4993737605715
323.812142806505;33.4430383598381
323.833756245968;33.3390555530995
323.855369685432;33.1918889009269
323.876983124895;33.0029005652589
323.898596564359;32.7720556647544
323.920210003822;32.5102597536608
323.941823443285;32.2311861037462
323.963436882749;31.9345587321364
323.985050322212;31.6145146373832
324.006663761675;31.2726213950308
324.028277201139;30.9232808626364
324.049890640602;30.5888687400648
324.071504080065;30.2853088702098
324.093117519529;30.0158446215422
324.114730958992;29.7811964673831
324.136344398456;29.5882604760994
324.157957837919;29.4569129734765
324.179571277382;29.4022265762277
324.201184716846;29.4272233357826
324.222798156309;29.5353205932129
324.244411595772;29.7305625080432
324.266025035236;30.0168120979758
324.287638474699;30.3891564008744
324.309251914163;30.8227232840469
324.330865353626;31.2735149849993
324.352478793089;31.7226243419857
324.374092232553;32.1694795896834
324.395705672016;32.615528769894
324.417319111479;33.0492780151742
324.438932550943;33.4358883965911
324.460545990406;33.7512193805253
324.48215942987;33.9853489829299
324.503772869333;34.136143319442
324.525386308796;34.2068444370503
324.54699974826;34.2029195843822
324.568613187723;34.1398465359177
324.590226627186;34.038362528216
324.61184006665;33.9178873270912
324.633453506113;33.7946673950811
324.655066945577;33.6803558386722
324.67668038504;33.5865585437512
324.698293824503;33.530962807371
324.719907263967;33.5298321946433
324.74152070343;33.5755037658935
324.763134142893;33.6640136518015
