Name;BF_ESR_01_7202s_Z_gon_0dg_result

Recipe
Accumulations;5;Number of accumulations
RetryCount;0;Number of retries on error
AbortOnError;True;Abort on error
EnableQFactorMeasurement;False;Enable/Disable q-Factor measurement
Bfrom;313;B from
Bto;363;B to
SweepTime;60;Sweep time
Modulation;0.2;Modulation
ModulationFreq;100;Modulation
BHoldEnabled;False;B hold enabled
BHold;0;B hold
MicrowavePower;2;Microwave power
MarkerEnabled;False;
MarkerStartField;0;
MarkerEndField;0;
Mode;;
KineticGFact;0;
KineticTotalTransientTime;0;
KineticTimeResolution;0;
TempFrom;5;
TempUseSlope;False;
TempTo;5;
TempdT;1;
TempSetupTime;0;
GonFrom;0;
GonTo;180;
GonSteps;20;
XRayEnabled;False;
XRayTime;3;
XRayVoltage;40;
XRayCurrent;0.5;
UVEnabled;False;
UVIntensity;0;
UVTime;0;
UVLeadTime;0;
UVWavelength;0;
PowSweepFrom;1;
PowSweepTo;5;
PowSweepSteps;5;
AmpModSweepFrom;0;
AmpModSweepTo;1;
AmpModSweepSteps;10;
ExtTriggerEnabled;False;
ExtTrigLeadTime;0;
ExtTrigOnTime;5;

Meas
BField [mT];MW_Absorption []
313.019412994385;44.3573979221254
313.041019810178;44.41567626357
313.062626625972;44.4825922430526
313.084233441765;44.5648314691864
313.105840257559;44.6614432738022
313.127447073352;44.7728710895947
313.149053889146;44.8883632297357
313.170660704939;44.9915157259826
313.192267520733;45.0770616417872
313.213874336526;45.1465599859826
313.23548115232;45.1968451430439
313.257087968114;45.2156580890673
313.278694783907;45.2053891147563
313.300301599701;45.1801641825779
313.321908415494;45.1486984265696
313.343515231288;45.117761042459
313.365122047081;45.0839086164354
313.386728862875;45.0451953183132
313.408335678668;45.006751878115
313.429942494462;44.9727314385506
313.451549310255;44.9371320577836
313.473156126049;44.8889096482823
313.494762941842;44.8207547976195
313.516369757636;44.7373045103386
313.537976573429;44.6446934606341
313.559583389223;44.5477237896391
313.581190205016;44.4473580156825
313.60279702081;44.3482491796482
313.624403836603;44.2616408760243
313.646010652397;44.1950440227261
313.66761746819;44.1567057908857
313.689224283984;44.1509265426554
313.710831099777;44.1771112484269
313.732437915571;44.2424509138334
313.754044731365;44.3584584462196
313.775651547158;44.5229189696745
313.797258362952;44.7290660914049
313.818865178745;44.9643528591565
313.840471994539;45.2168484042496
313.862078810332;45.4833224573922
313.883685626126;45.7614481997931
313.905292441919;46.0431012811893
313.926899257713;46.3154287856287
313.948506073506;46.5698875098568
313.9701128893;46.8033484729888
313.991719705093;47.0193376806343
314.013326520887;47.2190105154189
314.03493333668;47.3872258500752
314.056540152474;47.5196104422549
314.078146968267;47.6164143885164
314.099753784061;47.6595080969937
314.121360599854;47.6428175169039
314.142967415648;47.5697045813473
314.164574231441;47.4454455685083
314.186181047235;47.2718203522406
314.207787863029;47.0455717750402
314.229394678822;46.7642683612622
314.251001494616;46.4520323983628
314.272608310409;46.1152411719772
314.294215126203;45.7497641418429
314.315821941996;45.3720115587204
314.33742875779;45.0067692561873
314.359035573583;44.6767818710451
314.380642389377;44.398097693442
314.40224920517;44.1762385351315
314.423856020964;44.0124217437597
314.445462836757;43.9036124253799
314.467069652551;43.8547566794558
314.488676468344;43.8689379023163
314.510283284138;43.9346488788264
314.531890099931;44.037699562835
314.553496915725;44.1694717019694
314.575103731518;44.3246203816451
314.596710547312;44.4992598778941
314.618317363105;44.6782893015195
314.639924178899;44.8396554485446
314.661530994693;44.9716042678202
314.683137810486;45.0706452094008
314.70474462628;45.1317298424949
314.726351442073;45.14659695352
314.747958257867;45.1095587294289
314.76956507366;45.02069544379
314.791171889454;44.8845993972437
314.812778705247;44.7045308463862
314.834385521041;44.490269165522
314.855992336834;44.2561897573579
314.877599152628;44.0223118786945
314.899205968421;43.7939638314155
314.920812784215;43.5667531881506
314.942419600008;43.34531181511
314.964026415802;43.1397375886617
314.985633231595;42.9616808260116
315.007240047389;42.8220986045292
315.028846863182;42.7168051644833
315.050453678976;42.6289442471359
315.072060494769;42.5470798425817
315.093667310563;42.4668505609186
315.115274126356;42.4041912462795
315.13688094215;42.3536089390795
315.158487757943;42.2998729133614
315.180094573737;42.2376731022445
315.201701389531;42.1632409364475
315.223308205324;42.0930461980201
315.244915021118;42.0276618654252
315.266521836911;41.9657744687886
315.288128652705;41.9249184338802
315.309735468498;41.9236075730362
315.331342284292;41.9625937702817
315.352949100085;42.035992249447
315.374555915879;42.1443075697462
315.396162731672;42.2880610286616
315.417769547466;42.4601010897312
315.439376363259;42.6427947052206
315.460983179053;42.8154025592876
315.482589994846;42.9630222031072
315.50419681064;43.0685189802355
315.525803626433;43.1155632526676
315.547410442227;43.1040302527458
315.56901725802;43.0367179212129
315.590624073814;42.9082885731238
315.612230889607;42.7166996223666
315.633837705401;42.4757085065332
315.655444521195;42.2021865045041
315.677051336988;41.9120608805539
315.698658152782;41.620832632636
315.720264968575;41.3442881021727
315.741871784369;41.0873037042649
315.763478600162;40.8523859138526
315.785085415956;40.6478766256961
315.806692231749;40.4806062528608
315.828299047543;40.3477390036962
315.849905863336;40.2393308117239
315.87151267913;40.1506537313365
315.893119494923;40.0802695241861
315.914726310717;40.0297505594138
315.93633312651;39.998190735548
315.957939942304;39.9787258828149
315.979546758097;39.969729898289
316.001153573891;39.9759499384175
316.022760389684;39.9962951037378
316.044367205478;40.0247403645781
316.065974021271;40.0603622860272
316.087580837065;40.1109151108452
316.109187652859;40.1901147982076
316.130794468652;40.3024850089594
316.152401284446;40.445567361144
316.174008100239;40.6183500916022
316.195614916033;40.8254003571191
316.217221731826;41.0670756097948
316.23882854762;41.3459957486326
316.260435363413;41.6776803945315
316.282042179207;42.0636578729721
316.303648995;42.4767801495956
316.325255810794;42.8986164075363
316.346862626587;43.325445238593
316.368469442381;43.7458827008126
316.390076258174;44.1653819708322
316.411683073968;44.5898173077483
316.433289889761;45.0154685446011
316.454896705555;45.4321849137867
316.476503521348;45.8222436760763
316.498110337142;46.1725200417313
316.519717152935;46.4806749756012
316.541323968729;46.7424819240013
316.562930784522;46.9547107706172
316.584537600316;47.1221268059003
316.606144416109;47.2520442520657
316.627751231903;47.3504867432639
316.649358047697;47.4199277396332
316.67096486349;47.4664929491178
316.692571679284;47.4952677748742
316.714178495077;47.5135931812765
316.735785310871;47.5336108958314
316.757392126664;47.5660129465072
316.778998942458;47.6183906778409
316.800605758251;47.6954926305207
316.822212574045;47.7915122036857
316.843819389838;47.9001683565794
316.865426205632;48.022413930961
316.887033021425;48.157861160464
316.908639837219;48.3021660915476
316.930246653012;48.452871632147
316.951853468806;48.6018074988175
316.973460284599;48.7287050648114
316.995067100393;48.8209399432376
317.016673916186;48.8755824518455
317.03828073198;48.8884808856314
317.059887547773;48.8511224978347
317.081494363567;48.7552056856411
317.103101179361;48.5963360643759
317.124707995154;48.3760568858738
317.146314810948;48.0975294353876
317.167921626741;47.7726751855155
317.189528442535;47.4143053220201
317.211135258328;47.028031905672
317.232742074122;46.6307466256271
317.254348889915;46.2272843328683
317.275955705709;45.7986306685599
317.297562521502;45.3374830737638
317.319169337296;44.8833288539915
317.340776153089;44.477124387143
317.362382968883;44.1072931259904
317.383989784676;43.7675931943418
317.40559660047;43.4780913275755
317.427203416263;43.2545699202831
317.448810232057;43.0934709387782
317.47041704785;42.9844245939088
317.492023863644;42.9268436341442
317.513630679437;42.9260675570481
317.535237495231;42.9732892493365
317.556844311025;43.0555412446162
317.578451126818;43.1698144554816
317.600057942612;43.3249257161386
317.621664758405;43.5156159242051
317.643271574199;43.7241320415153
317.664878389992;43.9380801124776
317.686485205786;44.1599760226655
317.708092021579;44.4016921193236
317.729698837373;44.6639435183176
317.751305653166;44.925863073962
317.77291246896;45.1653861243338
317.794519284753;45.3760734722817
317.816126100547;45.5505505665351
317.83773291634;45.6891960708079
317.859339732134;45.7817516299381
317.880946547927;45.8175941737664
317.902553363721;45.7946302645576
317.924160179514;45.7137533554308
317.945766995308;45.5749501542945
317.967373811101;45.3740384439339
317.988980626895;45.1024188727323
318.010587442688;44.771861668191
318.032194258482;44.4054382370718
318.053801074276;44.028312219748
318.075407890069;43.6448413854648
318.097014705863;43.244019313797
318.118621521656;42.8384984857222
318.14022833745;42.4700131555159
318.161835153243;42.1453205404768
318.183441969037;41.8527421978903
318.20504878483;41.5834120903703
318.226655600624;41.3463792199048
318.248262416417;41.1438142300093
318.269869232211;40.9770369517457
318.291476048004;40.8537068230681
318.313082863798;40.7752525728885
318.334689679591;40.7286265691626
318.356296495385;40.7014794895036
318.377903311178;40.6840283238545
318.399510126972;40.6810729122763
318.421116942765;40.6974786606303
318.442723758559;40.7259990610053
318.464330574352;40.759151637033
318.485937390146;40.7949395446863
318.50754420594;40.8276037973257
318.529151021733;40.8523987487246
318.550757837527;40.8771088811016
318.57236465332;40.904006716815
318.593971469114;40.93116587979
318.615578284907;40.9556173595782
318.637185100701;40.9746141886996
318.658791916494;40.9887236497673
318.680398732288;41.0051143821535
318.702005548081;41.0163401519549
318.723612363875;41.006896973561
318.745219179668;40.9706933256599
318.766825995462;40.9177492694467
318.788432811255;40.8661276324482
318.810039627049;40.8271121938166
318.831646442842;40.8009861151156
318.853253258636;40.7717161923809
318.874860074429;40.73773835963
318.896466890223;40.7033463080391
318.918073706016;40.6630640800679
318.93968052181;40.6124348805121
318.961287337603;40.562080626834
318.982894153397;40.5275564144086
319.00450096919;40.5019828643608
319.026107784984;40.4694372699459
319.047714600778;40.4220387974799
319.069321416571;40.354539773647
319.090928232365;40.2623739285903
319.112535048158;40.1475312809846
319.134141863952;40.0218321008241
319.155748679745;39.8890164424904
319.177355495539;39.7398250571001
319.198962311332;39.5658464620714
319.220569127126;39.3792414697094
319.242175942919;39.2010218085956
319.263782758713;39.0414335483222
319.285389574506;38.9037055177454
319.3069963903;38.7891861012869
319.328603206093;38.6985481112202
319.350210021887;38.6373766916661
319.37181683768;38.6096945944148
319.393423653474;38.6127631152267
319.415030469267;38.6486657535197
319.436637285061;38.7193091130044
319.458244100854;38.823998940745
319.479850916648;38.9626678609139
319.501457732442;39.1336281108006
319.523064548235;39.3351139373937
319.544671364029;39.5673265822481
319.566278179822;39.822122104977
319.587884995616;40.0860480886236
319.609491811409;40.3542495100606
319.631098627203;40.6277017864969
319.652705442996;40.8980053981996
319.67431225879;41.1496368312045
319.695919074583;41.3743236829025
319.717525890377;41.5717459412481
319.73913270617;41.7315064403002
319.760739521964;41.8350555741956
319.782346337757;41.8772690058467
319.803953153551;41.891726216271
319.825559969344;41.8956261737559
319.847166785138;41.8849818653883
319.868773600931;41.8557294090659
319.890380416725;41.8206447662218
319.911987232518;41.7944997561072
319.933594048312;41.7830537752151
319.955200864106;41.7910224866643
319.976807679899;41.8239067465303
319.998414495693;41.885396955455
320.020021311486;41.9744221801341
320.04162812728;42.0859073358531
320.063234943073;42.2161250738221
320.084841758867;42.3657938685511
320.10644857466;42.5361529682615
320.128055390454;42.7223278507961
320.149662206247;42.9055061639895
320.171269022041;43.0807949074454
320.192875837834;43.2439300254198
320.214482653628;43.3746212796945
320.236089469421;43.450791212245
320.257696285215;43.4791760178868
320.279303101008;43.4676720881106
320.300909916802;43.4166960526483
320.322516732595;43.3171595985892
320.344123548389;43.1632688452783
320.365730364182;42.9552546027593
320.387337179976;42.7187670487563
320.408943995769;42.464737868909
320.430550811563;42.1855130470819
320.452157627356;41.8780924952446
320.47376444315;41.5574740509587
320.495371258944;41.23520417086
320.516978074737;40.9074272488142
320.538584890531;40.5675898371448
320.560191706324;40.2270193371768
320.581798522118;39.9020280640514
320.603405337911;39.6072929981547
320.625012153705;39.3567783037644
320.646618969498;39.1650981486357
320.668225785292;39.0235724739405
320.689832601085;38.925775546705
320.711439416879;38.862619792262
320.733046232672;38.8171900867281
320.754653048466;38.7897397218891
320.776259864259;38.8017406970656
320.797866680053;38.8369139571666
320.819473495846;38.87885205888
320.84108031164;38.9166406901262
320.862687127433;38.9427483051347
320.884293943227;38.9481976397995
320.90590075902;38.9205351371867
320.927507574814;38.8560450463703
320.949114390608;38.7665358461955
320.970721206401;38.6603719389284
320.992328022195;38.5398684865811
321.013934837988;38.4110188475151
321.035541653782;38.2890614241779
321.057148469575;38.1915647331817
321.078755285369;38.1270016296933
321.100362101162;38.1003743390971
321.121968916956;38.1214413244242
321.143575732749;38.1900484908161
321.165182548543;38.3168659142767
321.186789364336;38.5101523460362
321.20839618013;38.7670990104338
321.230002995923;39.0771668064997
321.251609811717;39.4122127058795
321.27321662751;39.7565355297743
321.294823443304;40.1165070498213
321.316430259097;40.4988488838863
321.338037074891;40.9012009557109
321.359643890684;41.2980694453316
321.381250706478;41.6319326627621
321.402857522272;41.8807541942623
321.424464338065;42.0351849550085
321.446071153859;42.0901694593293
321.467677969652;42.0527768790412
321.489284785446;41.9338628527837
321.510891601239;41.7448532595229
321.532498417033;41.5041358136736
321.554105232826;41.2197938234368
321.57571204862;40.8948571704154
321.597318864413;40.54665892832
321.618925680207;40.2160064755972
321.640532496;39.9273365620918
321.662139311794;39.6816825454132
321.683746127587;39.4730570902433
321.705352943381;39.3063193614046
321.726959759174;39.1763980599423
321.748566574968;39.0823199078574
321.770173390761;39.0258826306355
321.791780206555;38.9980531976977
321.813387022348;38.9874491405005
321.834993838142;38.994383318114
321.856600653935;39.0156617290574
321.878207469729;39.0462949851497
321.899814285523;39.0853750205035
321.921421101316;39.128616566781
321.94302791711;39.1650946547962
321.964634732903;39.1844860067831
321.986241548697;39.1838721729448
322.00784836449;39.1725206324982
322.029455180284;39.1601113073716
322.051061996077;39.1423758540769
322.072668811871;39.1041848791809
322.094275627664;39.0521518045659
322.115882443458;38.9969611079785
322.137489259251;38.9502002453088
322.159096075045;38.909247814422
322.180702890838;38.8781238197727
322.202309706632;38.8642934059801
322.223916522425;38.8634194111228
322.245523338219;38.8651776244494
322.267130154012;38.8563675419152
322.288736969806;38.8326797530513
322.310343785599;38.7946086369303
322.331950601393;38.7368423577826
322.353557417186;38.6487937605449
322.37516423298;38.5264994944475
322.396771048774;38.3736720752377
322.418377864567;38.1922711529836
322.439984680361;37.9842413679003
322.461591496154;37.7543950105154
322.483198311948;37.5074888053904
322.504805127741;37.2459309142386
322.526411943535;36.9830439227945
322.548018759328;36.7511324069599
322.569625575122;36.563150703011
322.591232390915;36.4174218933352
322.612839206709;36.3120604923644
322.634446022502;36.2530359716488
322.656052838296;36.243135780529
322.677659654089;36.2730900534425
322.699266469883;36.3353262374116
322.720873285676;36.4243559235751
322.74248010147;36.534481239858
322.764086917263;36.6571771838142
322.785693733057;36.7808906504064
322.80730054885;36.9027908059391
322.828907364644;37.0250901978056
322.850514180438;37.1447174070008
322.872120996231;37.263868063247
322.893727812025;37.3996277515071
322.915334627818;37.5640923892802
322.936941443612;37.7502237079547
322.958548259405;37.9474680564109
322.980155075199;38.1550448672539
323.001761890992;38.3753706932986
323.023368706786;38.6164424159147
323.044975522579;38.8887877763685
323.066582338373;39.1860467202974
323.088189154166;39.4936751909009
323.10979596996;39.8054300989222
323.131402785753;40.1116438049214
323.153009601547;40.3971773331321
323.17461641734;40.651088820374
323.196223233134;40.8583072308382
323.217830048927;41.0174262030915
323.239436864721;41.1335478028873
323.261043680514;41.2082878678409
323.282650496308;41.2405056254604
323.304257312101;41.2301745668366
323.325864127895;41.1869810135537
323.347470943689;41.1178728492107
323.369077759482;41.0195815115606
323.390684575276;40.8935316807682
323.412291391069;40.7458733236049
323.433898206863;40.5817773251123
323.455505022656;40.4053373066286
323.47711183845;40.2184748850688
323.498718654243;40.0226428864583
323.520325470037;39.8226795166195
323.54193228583;39.6224358169484
323.563539101624;39.418105549626
323.585145917417;39.2036947117276
323.606752733211;38.9695209629867
323.628359549004;38.7189078161385
323.649966364798;38.4620407723486
323.671573180591;38.1985506326187
323.693179996385;37.9194944784774
323.714786812178;37.6156701121394
323.736393627972;37.2920660724079
323.758000443765;36.9679971029769
323.779607259559;36.6516323299214
323.801214075353;36.3445793373198
323.822820891146;36.0546622103076
323.84442770694;35.7827886838764
323.866034522733;35.5202302803763
323.887641338527;35.2643885426264
323.90924815432;35.0201972565446
323.930854970114;34.7929118956186
323.952461785907;34.5830807064564
323.974068601701;34.3790378867997
323.995675417494;34.1794438788024
324.017282233288;33.9958875412983
324.038889049081;33.8239432983111
324.060495864875;33.6488937977674
324.082102680668;33.4710453387806
324.103709496462;33.3004049842212
324.125316312255;33.1446130205086
324.146923128049;33.0028235401256
324.168529943842;32.874009112025
324.190136759636;32.7578808108685
324.211743575429;32.6498554899912
324.233350391223;32.5376658246028
324.254957207016;32.409522487753
324.27656402281;32.2689675570232
324.298170838604;32.1243456121507
324.319777654397;31.9770821201727
324.341384470191;31.8306726142146
324.362991285984;31.6825767868579
324.384598101778;31.5230577590101
324.406204917571;31.3589341662845
324.427811733365;31.2165999682058
324.449418549158;31.1147062284572
324.471025364952;31.0498761277179
324.492632180745;31.0211558107862
324.514238996539;31.0338037418323
324.535845812332;31.0907992243808
324.557452628126;31.1752017320355
324.579059443919;31.2700181879222
324.600666259713;31.3700303094145
324.622273075506;31.4772129778966
324.6438798913;31.5850818541264
324.665486707093;31.683020424608
324.687093522887;31.7676876137613
324.70870033868;31.8374532232435
324.730307154474;31.8863496326885
324.751913970267;31.9105232128969
324.773520786061;31.9048392834335
