Name;BF_ESR_01_900s_Y_gon_160dg_result

Recipe
Accumulations;5;Number of accumulations
RetryCount;0;Number of retries on error
AbortOnError;True;Abort on error
EnableQFactorMeasurement;False;Enable/Disable q-Factor measurement
Bfrom;313;B from
Bto;363;B to
SweepTime;60;Sweep time
Modulation;0.2;Modulation
ModulationFreq;100;Modulation
BHoldEnabled;False;B hold enabled
BHold;0;B hold
MicrowavePower;2;Microwave power
MarkerEnabled;False;
MarkerStartField;0;
MarkerEndField;0;
Mode;;
KineticGFact;0;
KineticTotalTransientTime;0;
KineticTimeResolution;0;
TempFrom;5;
TempUseSlope;False;
TempTo;5;
TempdT;1;
TempSetupTime;0;
GonFrom;0;
GonTo;180;
GonSteps;20;
XRayEnabled;False;
XRayTime;3;
XRayVoltage;40;
XRayCurrent;0.5;
UVEnabled;False;
UVIntensity;0;
UVTime;0;
UVLeadTime;0;
UVWavelength;0;
PowSweepFrom;1;
PowSweepTo;5;
PowSweepSteps;5;
AmpModSweepFrom;0;
AmpModSweepTo;1;
AmpModSweepSteps;10;
ExtTriggerEnabled;False;
ExtTrigLeadTime;0;
ExtTrigOnTime;5;

Meas
BField [mT];MW_Absorption []
313.033430480957;72.0141047618397
313.055046608301;71.0675266636293
313.076662735646;70.0662681582279
313.09827886299;69.0164697530386
313.119894990335;67.9313347129016
313.141511117679;66.8238537349062
313.163127245024;65.6910093790614
313.184743372368;64.5745287200778
313.206359499713;63.5528759386579
313.227975627057;62.6508565378194
313.249591754401;61.836186111467
313.271207881746;61.0956495476861
313.29282400909;60.4336413485965
313.314440136435;59.8822748429536
313.336056263779;59.4661474341192
313.357672391124;59.1643455195784
313.379288518468;58.9492944379761
313.400904645812;58.8091640303434
313.422520773157;58.7377354875202
313.444136900501;58.72280964579
313.465753027846;58.7539304269817
313.48736915519;58.8244178101447
313.508985282535;58.9225646392977
313.530601409879;59.0349721299005
313.552217537224;59.1601562478687
313.573833664568;59.3025343763611
313.595449791912;59.4603533704535
313.617065919257;59.6276708382182
313.638682046601;59.8010404662438
313.660298173946;59.9892240992462
313.68191430129;60.1921899017893
313.703530428635;60.4143914610832
313.725146555979;60.6606108362275
313.746762683323;60.9325600505125
313.768378810668;61.2239847979449
313.789994938012;61.521692856447
313.811611065357;61.8159018653293
313.833227192701;62.1024424632725
313.854843320046;62.3763681349223
313.87645944739;62.6493227078515
313.898075574734;62.9300034468473
313.919691702079;63.2073105458303
313.941307829423;63.4606755006204
313.962923956768;63.6765118345082
313.984540084112;63.86150084384
314.006156211457;64.0314099929322
314.027772338801;64.1971127106977
314.049388466146;64.3478075893611
314.07100459349;64.4685608078749
314.092620720834;64.5612161900302
314.114236848179;64.6282531683185
314.135852975523;64.6722428123116
314.157469102868;64.6994867406364
314.179085230212;64.7121934227345
314.200701357557;64.6978041954154
314.222317484901;64.6430168304105
314.243933612245;64.5520366869528
314.26554973959;64.4294461993198
314.287165866934;64.2746626605852
314.308781994279;64.0958533879446
314.330398121623;63.9098317391751
314.352014248968;63.7263448839836
314.373630376312;63.5453421282598
314.395246503657;63.3620051800382
314.416862631001;63.1841909944607
314.438478758345;63.0300858506901
314.46009488569;62.8947111877474
314.481711013034;62.7702745450675
314.503327140379;62.6561560534798
314.524943267723;62.5445446291234
314.546559395068;62.4212024596477
314.568175522412;62.2752034941343
314.589791649756;62.0964162904621
314.611407777101;61.8745273446165
314.633023904445;61.6000206375922
314.65464003179;61.2768275575094
314.676256159134;60.9249875015868
314.697872286479;60.5492472438288
314.719488413823;60.1430134990522
314.741104541168;59.7080988891659
314.762720668512;59.2589490881252
314.784336795856;58.8131260229663
314.805952923201;58.3774426645594
314.827569050545;57.9579658227828
314.84918517789;57.5606563220388
314.870801305234;57.1914184879758
314.892417432579;56.8551021051931
314.914033559923;56.5542419862491
314.935649687267;56.2936351982083
314.957265814612;56.0765013473669
314.978881941956;55.8977974214286
315.000498069301;55.7567197596346
315.022114196645;55.6521279966797
315.04373032399;55.5800995438823
315.065346451334;55.5386795299281
315.086962578679;55.5294197526693
315.108578706023;55.5565657397532
315.130194833367;55.6251866577353
315.151810960712;55.7291805860097
315.173427088056;55.8593549901366
315.195043215401;56.0073605271678
315.216659342745;56.1635483863436
315.23827547009;56.3220483925131
315.259891597434;56.4803068138855
315.281507724778;56.6331533833353
315.303123852123;56.7704232934951
315.324739979467;56.8701402753937
315.346356106812;56.9209810413909
315.367972234156;56.9285971717681
315.389588361501;56.8979006775685
315.411204488845;56.8382102264608
315.43282061619;56.7554224621711
315.454436743534;56.6560495287353
315.476052870878;56.5518185708873
315.497668998223;56.4528870322976
315.519285125567;56.3639606679148
315.540901252912;56.2804680823669
315.562517380256;56.1993906174837
315.584133507601;56.1279342174456
315.605749634945;56.0620784809199
315.627365762289;55.9887117648612
315.648981889634;55.8994803781009
315.670598016978;55.7914959619063
315.692214144323;55.6611480750889
315.713830271667;55.507619878953
315.735446399012;55.3418226735023
315.757062526356;55.1793345213975
315.778678653701;55.0198338489916
315.800294781045;54.8601317037742
315.821910908389;54.7149961281099
315.843527035734;54.6087053491803
315.865143163078;54.5481336234031
315.886759290423;54.5301366170857
315.908375417767;54.5561334674898
315.929991545112;54.6209043802009
315.951607672456;54.7146005029543
315.9732237998;54.8278927718826
315.994839927145;54.9523692663093
316.016456054489;55.0822977914495
316.038072181834;55.2156620087338
316.059688309178;55.3447961686954
316.081304436523;55.4613763104007
316.102920563867;55.5699818179136
316.124536691212;55.6776819482993
316.146152818556;55.7776834005056
316.1677689459;55.8597257083643
316.189385073245;55.9331586133848
316.211001200589;56.0074177820253
316.232617327934;56.0813980693886
316.254233455278;56.1511182780191
316.275849582623;56.219759495317
316.297465709967;56.2947486226573
316.319081837311;56.3798874823075
316.340697964656;56.4708962128417
316.362314092;56.5675062450323
316.383930219345;56.6723944023988
316.405546346689;56.7835323384628
316.427162474034;56.8928461194409
316.448778601378;56.9964793312644
316.470394728723;57.0937446898445
316.492010856067;57.1731053554001
316.513626983411;57.2224351908452
316.535243110756;57.2362177129665
316.5568592381;57.2046034934583
316.578475365445;57.1091509732299
316.600091492789;56.9434193408302
316.621707620134;56.7377361410986
316.643323747478;56.5153622810108
316.664939874822;56.259337535547
316.686556002167;55.9569642661304
316.708172129511;55.6335301560901
316.729788256856;55.3091493329695
316.7514043842;54.9977418454292
316.773020511545;54.7065628037929
316.794636638889;54.4503660224106
316.816252766234;54.2249809643097
316.837868893578;54.0262306513201
316.859485020922;53.8683348237892
316.881101148267;53.7630283561097
316.902717275611;53.7007921864832
316.924333402956;53.6672675322389
316.9459495303;53.6542887390454
316.967565657645;53.6603246420834
316.989181784989;53.6831591567451
317.010797912333;53.7219967563474
317.032414039678;53.769858497009
317.054030167022;53.8219789613384
317.075646294367;53.8707700512372
317.097262421711;53.9078576274272
317.118878549056;53.9310017358487
317.1404946764;53.946761492222
317.162110803745;53.9633303490411
317.183726931089;53.9781049723205
317.205343058433;53.982226767339
317.226959185778;53.9706007953233
317.248575313122;53.9468411762238
317.270191440467;53.9284231100363
317.291807567811;53.9222655107371
317.313423695156;53.9236855430355
317.3350398225;53.9249650074108
317.356655949844;53.9259400594599
317.378272077189;53.9248185557195
317.399888204533;53.9046709244084
317.421504331878;53.8516064092364
317.443120459222;53.7668204093213
317.464736586567;53.6593446486756
317.486352713911;53.5394601316531
317.507968841255;53.4100809570286
317.5295849686;53.2736217903704
317.551201095944;53.1315425650256
317.572817223289;52.9871681786278
317.594433350633;52.8462245304955
317.616049477978;52.7127442611158
317.637665605322;52.5868621544135
317.659281732667;52.4772272655889
317.680897860011;52.3871809454586
317.702513987355;52.3138118297687
317.7241301147;52.2546077210116
317.745746242044;52.2103282176183
317.767362369389;52.1840515186177
317.788978496733;52.1717132790647
317.810594624078;52.1664479119516
317.832210751422;52.1684346028742
317.853826878766;52.1817330826584
317.875443006111;52.2030444385709
317.897059133455;52.2285878094112
317.9186752608;52.2640861971772
317.940291388144;52.3218444252808
317.961907515489;52.4108307218919
317.983523642833;52.5393603691055
318.005139770177;52.7085847820961
318.026755897522;52.9143797601309
318.048372024866;53.1544212487651
318.069988152211;53.4266537996596
318.091604279555;53.7289344140256
318.1132204069;54.054819030174
318.134836534244;54.3888989264342
318.156452661589;54.7222481635566
318.178068788933;55.0507239180624
318.199684916277;55.3601777202654
318.221301043622;55.6257341522969
318.242917170966;55.8403794134618
318.264533298311;56.0033459342993
318.286149425655;56.1007560097298
318.307765553;56.1163028619149
318.329381680344;56.0631605855709
318.350997807688;55.9615273138664
318.372613935033;55.8120558266346
318.394230062377;55.6181889534965
318.415846189722;55.3861064862997
318.437462317066;55.1183258794098
318.459078444411;54.8205292948136
318.480694571755;54.5080748573925
318.5023106991;54.1984474142605
318.523926826444;53.8933228244783
318.545542953788;53.5833701649445
318.567159081133;53.2534415525517
318.588775208477;52.9066217810827
318.610391335822;52.5593852176523
318.632007463166;52.2033313876521
318.653623590511;51.8208791899778
318.675239717855;51.4246814267363
318.696855845199;51.0247324879989
318.718471972544;50.6256038506099
318.740088099888;50.2302953729377
318.761704227233;49.8335557521858
318.783320354577;49.4391324797749
318.804936481922;49.0618444095884
318.826552609266;48.7095807250538
318.848168736611;48.381023763765
318.869784863955;48.0817945244871
318.891400991299;47.8176143449145
318.913017118644;47.5902524091589
318.934633245988;47.4059027458107
318.956249373333;47.2689114872115
318.977865500677;47.1839545568631
318.999481628022;47.1563285526957
319.021097755366;47.1847075731157
319.04271388271;47.2593385977222
319.064330010055;47.3699785177578
319.085946137399;47.5123402194316
319.107562264744;47.681302228122
319.129178392088;47.8610377930334
319.150794519433;48.0385844907895
319.172410646777;48.1997413248065
319.194026774122;48.3424485762172
319.215642901466;48.4652191769069
319.23725902881;48.5725463618012
319.258875156155;48.6757573513432
319.280491283499;48.7825457295232
319.302107410844;48.8935135157431
319.323723538188;49.0055857713436
319.345339665533;49.1164058562692
319.366955792877;49.2280855153383
319.388571920221;49.3541224763146
319.410188047566;49.4863006893691
319.43180417491;49.6054258423604
319.453420302255;49.7006243252991
319.475036429599;49.7650239399877
319.496652556944;49.7928737735056
319.518268684288;49.7788977367993
319.539884811633;49.720460656021
319.561500938977;49.6200863057184
319.583117066321;49.4904320038293
319.604733193666;49.3463597275612
319.62634932101;49.2042062071657
319.647965448355;49.0719316225097
319.669581575699;48.9456964114747
319.691197703044;48.8270418946638
319.712813830388;48.7241116931333
319.734429957732;48.6428618005196
319.756046085077;48.5819377227739
319.777662212421;48.539657201942
319.799278339766;48.5136255876686
319.82089446711;48.4992009927629
319.842510594455;48.4900657846671
319.864126721799;48.4757629848379
319.885742849144;48.4506404099585
319.907358976488;48.4085393458544
319.928975103832;48.3464933340703
319.950591231177;48.2636440346122
319.972207358521;48.1611323922993
319.993823485866;48.0422209042065
320.01543961321;47.9091206269854
320.037055740555;47.7653911054009
320.058671867899;47.6169674197868
320.080287995243;47.4674378187877
320.101904122588;47.3189368759273
320.123520249932;47.1743591589794
320.145136377277;47.0347608532414
320.166752504621;46.9061458815705
320.188368631966;46.7941034300784
320.20998475931;46.6900885233745
320.231600886655;46.5740618567097
320.253217013999;46.4483983961988
320.274833141343;46.3143739633849
320.296449268688;46.1697734537488
320.318065396032;46.0147888733995
320.339681523377;45.8461902852833
320.361297650721;45.6575298631181
320.382913778066;45.445255955441
320.40452990541;45.2027802188858
320.426146032754;44.9321038133999
320.447762160099;44.6526157100983
320.469378287443;44.375600319485
320.490994414788;44.1098934675262
320.512610542132;43.8605532415974
320.534226669477;43.6272073219573
320.555842796821;43.4106173474293
320.577458924166;43.2251273987782
320.59907505151;43.0891750408696
320.620691178854;42.9987969849453
320.642307306199;42.9340524288889
320.663923433543;42.8653425409443
320.685539560888;42.7918977359147
320.707155688232;42.7322287330579
320.728771815577;42.684147516597
320.750387942921;42.6369175753706
320.772004070265;42.581682587998
320.79362019761;42.5120114199281
320.815236324954;42.4246307821968
320.836852452299;42.3192193625039
320.858468579643;42.2052982290679
320.880084706988;42.1015161806522
320.901700834332;42.0218299497682
320.923316961677;41.9758907571275
320.944933089021;41.9730944365661
320.966549216365;42.0171412102453
320.98816534371;42.1047833687407
321.009781471054;42.2325831472664
321.031397598399;42.405806090243
321.053013725743;42.6247061697921
321.074629853088;42.8801670871066
321.096245980432;43.1726997634175
321.117862107776;43.5011757521744
321.139478235121;43.8441889691193
321.161094362465;44.1858152461604
321.18271048981;44.5329051253247
321.204326617154;44.8894564559454
321.225942744499;45.2420711583624
321.247558871843;45.5746813905068
321.269174999188;45.8765260091774
321.290791126532;46.1430664301792
321.312407253876;46.3732514701314
321.334023381221;46.5634626038922
321.355639508565;46.7112955870808
321.37725563591;46.8074478335411
321.398871763254;46.8291039027412
321.420487890599;46.7652440802668
321.442104017943;46.6273616992924
321.463720145287;46.424986556695
321.485336272632;46.1724572332058
321.506952399976;45.8709410212172
321.528568527321;45.5150948622524
321.550184654665;45.1230636092418
321.57180078201;44.7303840172637
321.593416909354;44.3532190493312
321.615033036698;43.9915679311223
321.636649164043;43.6492336381082
321.658265291387;43.338302134113
321.679881418732;43.0710145170365
321.701497546076;42.849432720629
321.723113673421;42.6748562844814
321.744729800765;42.5494638502459
321.76634592811;42.4716577560853
321.787962055454;42.4312071776376
321.809578182798;42.4095033418915
321.831194310143;42.3927487775533
321.852810437487;42.3644357659947
321.874426564832;42.3089512234061
321.896042692176;42.2286111757944
321.917658819521;42.1130491924845
321.939274946865;41.942151403324
321.960891074209;41.7038613488931
321.982507201554;41.4012454303048
322.004123328898;41.0491225213787
322.025739456243;40.6538083230413
322.047355583587;40.2046568308148
322.068971710932;39.7056185635098
322.090587838276;39.1786666734181
322.112203965621;38.6400518338482
322.133820092965;38.0956499452831
322.155436220309;37.5536167540813
322.177052347654;37.0391141656939
322.198668474998;36.5539342778694
322.220284602343;36.0891305368284
322.241900729687;35.6520004760115
322.263516857032;35.2619731892993
322.285132984376;34.9222257663836
322.30674911172;34.6425039164309
322.328365239065;34.4215452399028
322.349981366409;34.2507574437893
322.371597493754;34.1350393470419
322.393213621098;34.0474814585261
322.414829748443;33.9800280995656
322.436445875787;33.9402480646412
322.458062003132;33.9166755600813
322.479678130476;33.8963231627352
322.50129425782;33.8736261924997
322.522910385165;33.8513055349947
322.544526512509;33.8231810053608
322.566142639854;33.7915335180959
322.587758767198;33.7625464363579
322.609374894543;33.7397740340029
322.630991021887;33.7269507766525
322.652607149231;33.7378817943443
322.674223276576;33.7709758466386
322.69583940392;33.8249903916157
322.717455531265;33.904161821896
322.739071658609;34.0220634349467
322.760687785954;34.1789255332087
322.782303913298;34.3554743548113
322.803920040643;34.5445548086251
322.825536167987;34.7529404113369
322.847152295331;34.9720309834369
322.868768422676;35.1846534907794
322.89038455002;35.3868518064459
322.912000677365;35.5834685562842
322.933616804709;35.7858781682836
322.955232932054;35.9838767265219
322.976849059398;36.1462493127064
322.998465186742;36.2630563802644
323.020081314087;36.3540292932891
323.041697441431;36.4245770838714
323.063313568776;36.4673988687574
323.08492969612;36.4817619458315
323.106545823465;36.4622019918898
323.128161950809;36.4005891906886
323.149778078154;36.3097574604655
323.171394205498;36.195329494846
323.193010332842;36.0536006170691
323.214626460187;35.8904676740938
323.236242587531;35.71435210917
323.257858714876;35.5293622878717
323.27947484222;35.3378310775147
323.301090969565;35.1348143796155
323.322707096909;34.9144226065089
323.344323224253;34.6699007790701
323.365939351598;34.4063948243049
323.387555478942;34.1270238433404
323.409171606287;33.8310005872507
323.430787733631;33.5157793317156
323.452403860976;33.1743311143954
323.47401998832;32.8071393074987
323.495636115665;32.4147126064143
323.517252243009;31.9850118753278
323.538868370353;31.5171278420581
323.560484497698;31.0388567321995
323.582100625042;30.5663813732794
323.603716752387;30.0875367320566
323.625332879731;29.597001137945
323.646949007076;29.1127142497713
323.66856513442;28.6553391218727
323.690181261764;28.2354860239909
323.711797389109;27.85999576764
323.733413516453;27.5348309357634
323.755029643798;27.2555051063055
323.776645771142;27.0167555008558
323.798261898487;26.8254699062361
323.819878025831;26.6819911734119
323.841494153176;26.5860571031171
323.86311028052;26.5391325940863
323.884726407864;26.5322192664285
323.906342535209;26.5574555235732
323.927958662553;26.6088144804347
323.949574789898;26.6819201213815
323.971190917242;26.7792712533893
323.992807044587;26.8991119264828
324.014423171931;27.0264004897187
324.036039299275;27.1541046297698
324.05765542662;27.28830942311
324.079271553964;27.4306803253245
324.100887681309;27.5767938169611
324.122503808653;27.7175597654507
324.144119935998;27.8390044824843
324.165736063342;27.9396184865689
324.187352190687;28.0332707688728
324.208968318031;28.129647859847
324.230584445375;28.2198861211703
324.25220057272;28.2947350488509
324.273816700064;28.3457601877306
324.295432827409;28.3719496930701
324.317048954753;28.3889631887398
324.338665082098;28.3907901255007
324.360281209442;28.3636712623716
324.381897336786;28.3063597020253
324.403513464131;28.220610674187
324.425129591475;28.10077198573
324.44674571882;27.94958385275
324.468361846164;27.7887206033181
324.489977973509;27.63575684256
324.511594100853;27.4954914935984
324.533210228198;27.3712216358361
324.554826355542;27.2655721828258
324.576442482886;27.1791190221301
324.598058610231;27.1189959226323
324.619674737575;27.0923075282071
324.64129086492;27.1027996919847
324.662906992264;27.1498642559143
324.684523119609;27.2317968819219
324.706139246953;27.3469246810138
324.727755374297;27.4920560287673
324.749371501642;27.6580156315822
324.770987628986;27.8357234762562
