Name;BF_ESR_01_Natural_Z_gon_60dg_result

Recipe
Accumulations;5;Number of accumulations
RetryCount;0;Number of retries on error
AbortOnError;True;Abort on error
EnableQFactorMeasurement;False;Enable/Disable q-Factor measurement
Bfrom;313;B from
Bto;363;B to
SweepTime;60;Sweep time
Modulation;0.2;Modulation
ModulationFreq;100;Modulation
BHoldEnabled;False;B hold enabled
BHold;0;B hold
MicrowavePower;2;Microwave power
MarkerEnabled;False;
MarkerStartField;0;
MarkerEndField;0;
Mode;;
KineticGFact;0;
KineticTotalTransientTime;0;
KineticTimeResolution;0;
TempFrom;5;
TempUseSlope;False;
TempTo;5;
TempdT;1;
TempSetupTime;0;
GonFrom;0;
GonTo;180;
GonSteps;20;
XRayEnabled;False;
XRayTime;3;
XRayVoltage;40;
XRayCurrent;0.5;
UVEnabled;False;
UVIntensity;0;
UVTime;0;
UVLeadTime;0;
UVWavelength;0;
PowSweepFrom;1;
PowSweepTo;5;
PowSweepSteps;5;
AmpModSweepFrom;0;
AmpModSweepTo;1;
AmpModSweepSteps;10;
ExtTriggerEnabled;False;
ExtTrigLeadTime;0;
ExtTrigOnTime;5;

Meas
BField [mT];MW_Absorption []
313.006977386475;56.8991924646771
313.028593332924;56.9595790620848
313.050209279374;57.1384920460113
313.071825225823;57.3012008929253
313.093441172273;57.4393417062599
313.115057118723;57.548553127189
313.136673065172;57.6232050308879
313.158289011622;57.6710957348798
313.179904958072;57.6965886685594
313.201520904521;57.699169920485
313.223136850971;57.6801945541798
313.24475279742;57.6397489175576
313.26636874387;57.5798529480567
313.28798469032;57.5100020909482
313.309600636769;57.437804335251
313.331216583219;57.3718186817258
313.352832529669;57.3157037809837
313.374448476118;57.2725534780907
313.396064422568;57.2441993282122
313.417680369017;57.2250605767627
313.439296315467;57.2092797402717
313.460912261917;57.1997018836145
313.482528208366;57.1960073633765
313.504144154816;57.1881779830538
313.525760101266;57.1718887252917
313.547376047715;57.1444933535721
313.568991994165;57.0941998366011
313.590607940614;57.0065291700664
313.612223887064;56.8709029746135
313.633839833514;56.6940137660592
313.655455779963;56.4877578303774
313.677071726413;56.2504813628644
313.698687672863;55.9724701480776
313.720303619312;55.6400006831621
313.741919565762;55.2687122647629
313.763535512211;54.8945461749427
313.785151458661;54.5346573482114
313.806767405111;54.1808261434892
313.82838335156;53.8219322212801
313.84999929801;53.4720634720581
313.87161524446;53.1428838973797
313.893231190909;52.8326088684783
313.914847137359;52.5440857464392
313.936463083808;52.2996065643127
313.958079030258;52.1133453558725
313.979694976708;51.9870107144396
314.001310923157;51.9134415013182
314.022926869607;51.8962816085122
314.044542816056;51.9258034986851
314.066158762506;51.9866824965627
314.087774708956;52.0746284828006
314.109390655405;52.1893144535989
314.131006601855;52.3147138173834
314.152622548305;52.4372820825965
314.174238494754;52.5522353102318
314.195854441204;52.6582384401211
314.217470387653;52.7575432295697
314.239086334103;52.8509587945777
314.260702280553;52.9357413905232
314.282318227002;53.0136129141278
314.303934173452;53.0909932358407
314.325550119902;53.1792573302555
314.347166066351;53.2886350370938
314.368782012801;53.4206001957377
314.39039795925;53.5683398207055
314.4120139057;53.7288377627825
314.43362985215;53.9109204250802
314.455245798599;54.1205307838627
314.476861745049;54.3457424213658
314.498477691499;54.5778613614345
314.520093637948;54.8133528854237
314.541709584398;55.0515658798008
314.563325530847;55.2879760919087
314.584941477297;55.5112262113206
314.606557423747;55.7028848660875
314.628173370196;55.8525875256503
314.649789316646;55.953101101036
314.671405263096;56.0015202290419
314.693021209545;55.9900473776295
314.714637155995;55.9178279278036
314.736253102444;55.7963631686793
314.757869048894;55.6316109098108
314.779484995344;55.4163018119414
314.801100941793;55.1480487333901
314.822716888243;54.8471446801284
314.844332834693;54.5492397109066
314.865948781142;54.2683961895877
314.887564727592;54.001950543111
314.909180674041;53.7499664294472
314.930796620491;53.5265843485079
314.952412566941;53.3415716481356
314.97402851339;53.1940584275402
314.99564445984;53.0792831648273
315.01726040629;52.9915628020385
315.038876352739;52.9241489597898
315.060492299189;52.8632737752313
315.082108245638;52.8027445093589
315.103724192088;52.7420720226971
315.125340138538;52.6740034734208
315.146956084987;52.5842489448458
315.168572031437;52.4638354725812
315.190187977887;52.3178739038626
315.211803924336;52.1592486453329
315.233419870786;51.9966262665266
315.255035817235;51.8262559993196
315.276651763685;51.6462563441601
315.298267710135;51.4684055279122
315.319883656584;51.3008473657736
315.341499603034;51.1453483548437
315.363115549484;51.0006786917883
315.384731495933;50.869268390293
315.406347442383;50.7572514487465
315.427963388832;50.6769447048483
315.449579335282;50.6154581021915
315.471195281732;50.5583955259565
315.492811228181;50.5078844432936
315.514427174631;50.4613837739997
315.53604312108;50.4120853907228
315.55765906753;50.3593211504156
315.57927501398;50.3094552789981
315.600890960429;50.2547194106526
315.622506906879;50.1845340250684
315.644122853329;50.0993651242225
315.665738799778;50.0046790941755
315.687354746228;49.9033833073572
315.708970692678;49.7770253423897
315.730586639127;49.6164042265502
315.752202585577;49.4211556236854
315.773818532026;49.1829535654556
315.795434478476;48.9010792646372
315.817050424926;48.5857238027761
315.838666371375;48.2316885141875
315.860282317825;47.8352375579402
315.881898264274;47.4060942616594
315.903514210724;46.9651543735527
315.925130157174;46.5252249661591
315.946746103623;46.0839637427272
315.968362050073;45.646786035105
315.989977996523;45.2356731806973
316.011593942972;44.8926123788996
316.033209889422;44.6320099397109
316.054825835871;44.4550587467106
316.076441782321;44.3734111940514
316.098057728771;44.3830863525739
316.11967367522;44.4742695898315
316.14128962167;44.650217620065
316.16290556812;44.909608795827
316.184521514569;45.2342942669314
316.206137461019;45.619128502458
316.227753407468;46.0547424202319
316.249369353918;46.5208155087752
316.270985300368;46.9960658621788
316.292601246817;47.4602725746683
316.314217193267;47.890359356334
316.335833139717;48.2658268870878
316.357449086166;48.5852909730285
316.379065032616;48.8642779041568
316.400680979065;49.1116029871037
316.422296925515;49.3158793464142
316.443912871965;49.460304112803
316.465528818414;49.545219360076
316.487144764864;49.5767583266853
316.508760711314;49.5511625188567
316.530376657763;49.463646205115
316.551992604213;49.3263831999027
316.573608550662;49.1518534829698
316.595224497112;48.939754793791
316.616840443562;48.70999526857
316.638456390011;48.4722845033456
316.660072336461;48.2276264062116
316.681688282911;47.970103261447
316.70330422936;47.7100573930634
316.72492017581;47.4672085171896
316.746536122259;47.2458309384138
316.768152068709;47.0503813106453
316.789768015159;46.9075747253884
316.811383961608;46.8157907119129
316.832999908058;46.7521779185953
316.854615854507;46.7050636359646
316.876231800957;46.6745600830846
316.897847747407;46.6720682582001
316.919463693856;46.70289243498
316.941079640306;46.7578888973806
316.962695586756;46.830875603741
316.984311533205;46.9212411820027
317.005927479655;47.0246363451338
317.027543426105;47.1402264971319
317.049159372554;47.2667005367765
317.070775319004;47.3931326925293
317.092391265453;47.5294274285775
317.114007211903;47.6980429055922
317.135623158353;47.8910645160029
317.157239104802;48.0941654064546
317.178855051252;48.2965489953802
317.200470997701;48.4980146219576
317.222086944151;48.6989884831958
317.243702890601;48.9063760498319
317.26531883705;49.116480553164
317.2869347835;49.3129778665018
317.30855072995;49.4809879947001
317.330166676399;49.6111998631531
317.351782622849;49.7040851882135
317.373398569298;49.7697916410678
317.395014515748;49.8099039586368
317.416630462198;49.8155553269022
317.438246408647;49.7972289155695
317.459862355097;49.7649987236491
317.481478301547;49.7184955304177
317.503094247996;49.6601633341205
317.524710194446;49.5967807772584
317.546326140895;49.5366668218366
317.567942087345;49.4836295241679
317.589558033795;49.4408182834603
317.611173980244;49.4096049597006
317.632789926694;49.3895994766055
317.654405873144;49.3702725265693
317.676021819593;49.3373414913552
317.697637766043;49.2939325394801
317.719253712492;49.2444612323133
317.740869658942;49.1821820518542
317.762485605392;49.0977197865135
317.784101551841;48.9863315958319
317.805717498291;48.8438741807935
317.827333444741;48.6710152460871
317.84894939119;48.4739603948341
317.87056533764;48.2540288434684
317.892181284089;48.0146740721584
317.913797230539;47.7606546260518
317.935413176989;47.4973354811656
317.957029123438;47.2275323244874
317.978645069888;46.9529789562827
318.000261016338;46.6824552801065
318.021876962787;46.4297148407123
318.043492909237;46.2042808205066
318.065108855686;46.0097150063392
318.086724802136;45.8469724330404
318.108340748586;45.7182384143516
318.129956695035;45.6286786161043
318.151572641485;45.5794417677452
318.173188587934;45.5577810663378
318.194804534384;45.547061882696
318.216420480834;45.5449474353971
318.238036427283;45.5562618812513
318.259652373733;45.568353165525
318.281268320183;45.5738172477391
318.302884266632;45.5683897525382
318.324500213082;45.545952319654
318.346116159532;45.4973088764889
318.367732105981;45.4200992889603
318.389348052431;45.31799538502
318.41096399888;45.1916794301313
318.43257994533;45.0440012491112
318.45419589178;44.8912240601667
318.475811838229;44.754506071671
318.497427784679;44.6305809295555
318.519043731128;44.5079619015779
318.540659677578;44.3785579352497
318.562275624028;44.2411876395658
318.583891570477;44.0991280515836
318.605507516927;43.9529812920231
318.627123463377;43.7992534105204
318.648739409826;43.6348144980421
318.670355356276;43.4600155083725
318.691971302725;43.2778811786215
318.713587249175;43.0870399864843
318.735203195625;42.8847685963128
318.756819142074;42.6753509772738
318.778435088524;42.472278706978
318.800051034974;42.2865079834325
318.821666981423;42.1265524156526
318.843282927873;42.0012098770536
318.864898874322;41.9119959013755
318.886514820772;41.8483626278995
318.908130767222;41.8204751476496
318.929746713671;41.8413859850338
318.951362660121;41.899519218595
318.972978606571;41.9946345583695
318.99459455302;42.1323187871633
319.01621049947;42.3158319922617
319.037826445919;42.5262832798724
319.059442392369;42.7529771785758
319.081058338819;42.9903545164813
319.102674285268;43.2270134038419
319.124290231718;43.4571181544891
319.145906178168;43.6791459059367
319.167522124617;43.893782054796
319.189138071067;44.1006181531051
319.210754017516;44.2988928391163
319.232369963966;44.4896972723877
319.253985910416;44.6739877852407
319.275601856865;44.8449887084021
319.297217803315;44.9985523404687
319.318833749765;45.1347970168592
319.340449696214;45.2476406686818
319.362065642664;45.3364415900026
319.383681589113;45.4088379552234
319.405297535563;45.4664528794473
319.426913482013;45.498837945704
319.448529428462;45.4956427179353
319.470145374912;45.4523098220442
319.491761321361;45.3759155095404
319.513377267811;45.2735844661198
319.534993214261;45.1422002933681
319.55660916071;44.9822404644128
319.57822510716;44.8032434238065
319.59984105361;44.6161200391537
319.621457000059;44.4322766634564
319.643072946509;44.2573351600461
319.664688892958;44.0945463010111
319.686304839408;43.9484534998413
319.707920785858;43.8249489117149
319.729536732307;43.7313231292048
319.751152678757;43.6843805217137
319.772768625207;43.6571425553117
319.794384571656;43.6332655896682
319.816000518106;43.6185926600635
319.837616464555;43.6128946039162
319.859232411005;43.6018364779896
319.880848357455;43.5666878473723
319.902464303904;43.5002749748696
319.924080250354;43.4077997107506
319.945696196804;43.2971843935637
319.967312143253;43.1632295958626
319.988928089703;43.0015549678871
320.010544036152;42.8272882613773
320.032159982602;42.6522529589884
320.053775929052;42.4794345260178
320.075391875501;42.3127791764977
320.097007821951;42.1592891713723
320.118623768401;42.0148296814717
320.14023971485;41.867855001438
320.1618556613;41.7107105104238
320.183471607749;41.5323097567948
320.205087554199;41.3266558425977
320.226703500649;41.0968151541849
320.248319447098;40.8539368321885
320.269935393548;40.6039941930655
320.291551339998;40.3579848850877
320.313167286447;40.134199943048
320.334783232897;39.9455729544431
320.356399179346;39.8015584421536
320.378015125796;39.7078533426136
320.399631072246;39.6709833463747
320.421247018695;39.6921747277322
320.442862965145;39.7723737695911
320.464478911595;39.913272874046
320.486094858044;40.1118547539877
320.507710804494;40.3681942872375
320.529326750943;40.6787974355976
320.550942697393;41.0253022988953
320.572558643843;41.3868092095325
320.594174590292;41.757105095578
320.615790536742;42.1259716385138
320.637406483192;42.4811196283937
320.659022429641;42.8045772949622
320.680638376091;43.0818296131251
320.70225432254;43.3150503547102
320.72387026899;43.5103479994325
320.74548621544;43.6792186458803
320.767102161889;43.825398652941
320.788718108339;43.9504287342257
320.810334054788;44.0583305085153
320.831950001238;44.1552334541545
320.853565947688;44.2431792013467
320.875181894137;44.3058166504729
320.896797840587;44.3343196885823
320.918413787037;44.3371509744223
320.940029733486;44.3181938413948
320.961645679936;44.2642841843955
320.983261626385;44.1666311162786
321.004877572835;44.0188802178736
321.026493519285;43.8159103434133
321.048109465734;43.5669530570245
321.069725412184;43.2808861858093
321.091341358634;42.9517246537172
321.112957305083;42.5861883741549
321.134573251533;42.1889170267081
321.156189197982;41.7724448195309
321.177805144432;41.3500560151523
321.199421090882;40.9167495953171
321.221037037331;40.4658340182216
321.242652983781;40.0132398201027
321.264268930231;39.5714277887549
321.28588487668;39.1427233350455
321.30750082313;38.7251835220674
321.329116769579;38.3369557354875
321.350732716029;37.9891330771804
321.372348662479;37.6812310164459
321.393964608928;37.4080795818291
321.415580555378;37.1746698250506
321.437196501828;36.9918642719687
321.458812448277;36.8604118576675
321.480428394727;36.7864753536159
321.502044341176;36.7723983986098
321.523660287626;36.8060343212275
321.545276234076;36.8809164566764
321.566892180525;36.994190672414
321.588508126975;37.1468697519755
321.610124073425;37.3362778074867
321.631740019874;37.546127004044
321.653355966324;37.7697064344736
321.674971912773;38.0107951667552
321.696587859223;38.2630062499242
321.718203805673;38.510214106646
321.739819752122;38.7457377324317
321.761435698572;38.9715382250925
321.783051645022;39.1914683006218
321.804667591471;39.4059295591652
321.826283537921;39.6048602131597
321.84789948437;39.7780244675485
321.86951543082;39.9258005440262
321.89113137727;40.0572366420627
321.912747323719;40.1782996755304
321.934363270169;40.2837731508868
321.955979216619;40.3652345288682
321.977595163068;40.4276070625112
321.999211109518;40.4776714761004
322.020827055967;40.5094961649186
322.042443002417;40.5109888947965
322.064058948867;40.4837967219472
322.085674895316;40.432161890046
322.107290841766;40.3555643324116
322.128906788215;40.2547823888219
322.150522734665;40.1316505204957
322.172138681115;39.9846608469285
322.193754627564;39.8251810408279
322.215370574014;39.6736445152284
322.236986520464;39.5385689660797
322.258602466913;39.429799049233
322.280218413363;39.3483087055193
322.301834359812;39.2883980215379
322.323450306262;39.2499501654985
322.345066252712;39.2293241253622
322.366682199161;39.2212946118262
322.388298145611;39.2194852557807
322.409914092061;39.2157753182039
322.43153003851;39.199902237588
322.45314598496;39.1623257755082
322.474761931409;39.0983742355074
322.496377877859;39.0102615464777
322.517993824309;38.8988580319003
322.539609770758;38.7613201747127
322.561225717208;38.5952884144164
322.582841663658;38.3959571613402
322.604457610107;38.1577748257305
322.626073556557;37.8820585786423
322.647689503006;37.5677270927714
322.669305449456;37.2226601134163
322.690921395906;36.8435447652633
322.712537342355;36.4205924327044
322.734153288805;35.9727832187995
322.755769235255;35.5272949975044
322.777385181704;35.0999205513399
322.799001128154;34.6898109326041
322.820617074603;34.2964476492851
322.842233021053;33.9249996289399
322.863848967503;33.5753973715395
322.885464913952;33.2644269597259
322.907080860402;33.0250036312293
322.928696806852;32.858752143605
322.950312753301;32.7486474637619
322.971928699751;32.6901600135337
322.9935446462;32.6885764548412
323.01516059265;32.7405332881943
323.0367765391;32.8361671458714
323.058392485549;32.9753887612353
323.080008431999;33.1553219563697
323.101624378449;33.3559034718271
323.123240324898;33.5610973221625
323.144856271348;33.7572943971334
323.166472217797;33.9350845006892
323.188088164247;34.0890318521252
323.209704110697;34.208927492811
323.231320057146;34.2915414043139
323.252936003596;34.3447667478581
323.274551950046;34.3798547634219
323.296167896495;34.3974618592297
323.317783842945;34.3949738558382
323.339399789394;34.3782670788824
323.361015735844;34.3550623130369
323.382631682294;34.3315044562514
323.404247628743;34.3134528614737
323.425863575193;34.3069275449814
323.447479521642;34.3130865487491
323.469095468092;34.3299964151806
323.490711414542;34.3609373590263
323.512327360991;34.4074338023662
323.533943307441;34.4663624569634
323.555559253891;34.5345399054204
323.57717520034;34.6043470246137
323.59879114679;34.6693030178947
323.620407093239;34.7269445026695
323.642023039689;34.7716553959693
323.663638986139;34.8014517632695
323.685254932588;34.818060035803
323.706870879038;34.8224798359467
323.728486825488;34.8088248629843
323.750102771937;34.7749462461969
323.771718718387;34.7234356056717
323.793334664836;34.660175527969
323.814950611286;34.5943055304748
323.836566557736;34.534171455491
323.858182504185;34.4816735889447
323.879798450635;34.4355480184061
323.901414397085;34.3937221081598
323.923030343534;34.3495002139933
323.944646289984;34.2974690591967
323.966262236433;34.2358693977403
323.987878182883;34.1596735923684
324.009494129333;34.0646755803781
324.031110075782;33.9504418395456
324.052726022232;33.8203588735858
324.074341968682;33.6791350649097
324.095957915131;33.5230150043984
324.117573861581;33.3378469967371
324.13918980803;33.1257295209398
324.16080575448;32.9134749579847
324.18242170093;32.7149659783891
324.204037647379;32.5293338252835
324.225653593829;32.3629150443386
324.247269540279;32.2198613082632
324.268885486728;32.0991751063741
324.290501433178;32.0081838418666
324.312117379627;31.9590576343559
324.333733326077;31.9573207544382
324.355349272527;31.9929779414646
324.376965218976;32.0520078810289
324.398581165426;32.124262339212
324.420197111876;32.1950711466764
324.441813058325;32.2499642497271
324.463429004775;32.2732439065983
324.485044951224;32.2510003198135
324.506660897674;32.1759437204571
324.528276844124;32.0463660453324
324.549892790573;31.8703841887597
324.571508737023;31.6432179959511
324.593124683473;31.3542891068693
324.614740629922;30.9899258963785
324.636356576372;30.5486500800432
324.657972522821;30.0587591293137
324.679588469271;29.5550195725679
324.701204415721;29.0558843634765
324.72282036217;28.5622487996561
324.74443630862;28.0724299030045
