Name;BF_ESR_01_360s_X_gon_80dg_result

Recipe
Accumulations;5;Number of accumulations
RetryCount;0;Number of retries on error
AbortOnError;True;Abort on error
EnableQFactorMeasurement;False;Enable/Disable q-Factor measurement
Bfrom;313;B from
Bto;363;B to
SweepTime;60;Sweep time
Modulation;0.2;Modulation
ModulationFreq;100;Modulation
BHoldEnabled;False;B hold enabled
BHold;0;B hold
MicrowavePower;2;Microwave power
MarkerEnabled;False;
MarkerStartField;0;
MarkerEndField;0;
Mode;;
KineticGFact;0;
KineticTotalTransientTime;0;
KineticTimeResolution;0;
TempFrom;5;
TempUseSlope;False;
TempTo;5;
TempdT;1;
TempSetupTime;0;
GonFrom;0;
GonTo;180;
GonSteps;20;
XRayEnabled;False;
XRayTime;3;
XRayVoltage;40;
XRayCurrent;0.5;
UVEnabled;False;
UVIntensity;0;
UVTime;0;
UVLeadTime;0;
UVWavelength;0;
PowSweepFrom;1;
PowSweepTo;5;
PowSweepSteps;5;
AmpModSweepFrom;0;
AmpModSweepTo;1;
AmpModSweepSteps;10;
ExtTriggerEnabled;False;
ExtTrigLeadTime;0;
ExtTrigOnTime;5;

Meas
BField [mT];MW_Absorption []
313.022773208618;88.3687400252978
313.044389824069;88.1994210753235
313.066006439519;88.0678802773988
313.08762305497;87.9779578687656
313.10923967042;87.9174482020656
313.130856285871;87.8731832362555
313.152472901322;87.836774097632
313.174089516772;87.798479315622
313.195706132223;87.7456155310235
313.217322747673;87.6647163617981
313.238939363124;87.5507883143916
313.260555978574;87.395788780433
313.282172594025;87.1902726172256
313.303789209476;86.9388919929223
313.325405824926;86.6395122538931
313.347022440377;86.2944544907161
313.368639055827;85.9119814228677
313.390255671278;85.4938363429054
313.411872286728;85.0368219827249
313.433488902179;84.5374277200401
313.45510551763;84.002809742024
313.47672213308;83.4471932479273
313.498338748531;82.8794059512802
313.519955363981;82.3230037707925
313.541571979432;81.8038847570881
313.563188594882;81.3227366355191
313.584805210333;80.8771828040399
313.606421825784;80.4704886718224
313.628038441234;80.0969373263605
313.649655056685;79.7503017492164
313.671271672135;79.4310295860842
313.692888287586;79.1539547680183
313.714504903037;78.9385617124785
313.736121518487;78.7654802162259
313.757738133938;78.6177328871465
313.779354749388;78.4973800662481
313.800971364839;78.4179898826596
313.822587980289;78.3829897738362
313.84420459574;78.3856269898996
313.865821211191;78.4249799517922
313.887437826641;78.5031534346491
313.909054442092;78.6188011033624
313.930671057542;78.7763906972085
313.952287672993;78.981507160805
313.973904288443;79.2141514891426
313.995520903894;79.4556955427247
314.017137519345;79.7046908069424
314.038754134795;79.956188088597
314.060370750246;80.2001005806161
314.081987365696;80.4302690320838
314.103603981147;80.6489000536588
314.125220596597;80.8680253807709
314.146837212048;81.0969711657296
314.168453827499;81.3315900362294
314.190070442949;81.5635826707233
314.2116870584;81.794109691446
314.23330367385;82.0431786130522
314.254920289301;82.3373893516813
314.276536904751;82.6793392622769
314.298153520202;83.0520052123737
314.319770135653;83.4497712099616
314.341386751103;83.8700778628812
314.363003366554;84.3124835230993
314.384619982004;84.7839096861008
314.406236597455;85.2820597906211
314.427853212905;85.7731729807923
314.449469828356;86.2305816041209
314.471086443807;86.6597683834045
314.492703059257;87.0738548445494
314.514319674708;87.4776122399079
314.535936290158;87.864911947191
314.557552905609;88.2286232881537
314.579169521059;88.5731312959071
314.60078613651;88.9200021667889
314.622402751961;89.2729441329165
314.644019367411;89.6350877199108
314.665635982862;90.0247086096901
314.687252598312;90.4632530031038
314.708869213763;90.9621329328454
314.730485829213;91.4914383787086
314.752102444664;92.0253810739417
314.773719060115;92.5605983925094
314.795335675565;93.1102362829397
314.816952291016;93.6840039350872
314.838568906466;94.2682837633703
314.860185521917;94.8439788594513
314.881802137367;95.4126975473003
314.903418752818;95.989946244423
314.925035368269;96.575251487892
314.946651983719;97.1421845288671
314.96826859917;97.6718737934336
314.98988521462;98.1582552315295
315.011501830071;98.6270051517538
315.033118445521;99.1033949377475
315.054735060972;99.5741639910995
315.076351676423;100.00452946873
315.097968291873;100.401595912894
315.119584907324;100.789085938493
315.141201522774;101.174594050119
315.162818138225;101.555599027201
315.184434753675;101.934764885078
315.206051369126;102.31421151048
315.227667984577;102.692534659032
315.249284600027;103.073740447856
315.270901215478;103.449800254934
315.292517830928;103.803099584602
315.314134446379;104.139702541827
315.335751061829;104.476769163114
315.35736767728;104.819598237861
315.378984292731;105.135130218095
315.400600908181;105.389020091697
315.422217523632;105.596732479552
315.443834139082;105.77002360457
315.465450754533;105.901393120279
315.487067369983;105.987974165673
315.508683985434;106.03412043037
315.530300600885;106.046515046818
315.551917216335;106.030405077617
315.573533831786;105.988613205905
315.595150447236;105.920138773946
315.616767062687;105.833793217123
315.638383678138;105.737893243623
315.660000293588;105.626602042797
315.681616909039;105.495274451816
315.703233524489;105.364089400746
315.72485013994;105.263455872706
315.74646675539;105.197178207636
315.768083370841;105.164101188401
315.789699986292;105.17231627745
315.811316601742;105.235517919332
315.832933217193;105.347283087549
315.854549832643;105.492716884276
315.876166448094;105.672617584354
315.897783063544;105.901772773401
315.919399678995;106.18872125391
315.941016294446;106.497440416977
315.962632909896;106.819915698067
315.984249525347;107.156476961214
316.005866140797;107.493233770253
316.027482756248;107.814021453718
316.049099371698;108.112933159466
316.070715987149;108.394559049052
316.0923326026;108.658984853673
316.11394921805;108.901385371961
316.135565833501;109.123571445395
316.157182448951;109.325526672329
316.178799064402;109.506397149675
316.200415679852;109.674726182967
316.222032295303;109.851969406159
316.243648910754;110.047388454743
316.265265526204;110.251460487197
316.286882141655;110.452570395656
316.308498757105;110.649706417058
316.330115372556;110.854195096153
316.351731988006;111.079500847304
316.373348603457;111.321570943244
316.394965218908;111.557209503856
316.416581834358;111.777040530755
316.438198449809;111.976042546671
316.459815065259;112.157668642351
316.48143168071;112.327826960837
316.50304829616;112.486742601993
316.524664911611;112.631244898594
316.546281527062;112.758255835887
316.567898142512;112.868555935381
316.589514757963;112.965039800961
316.611131373413;113.046433602315
316.632747988864;113.110250683006
316.654364604314;113.160136081977
316.675981219765;113.200791760537
316.697597835216;113.232427205671
316.719214450666;113.253890280465
316.740831066117;113.264814260134
316.762447681567;113.264281054328
316.784064297018;113.25158322546
316.805680912468;113.223276562192
316.827297527919;113.182651106083
316.84891414337;113.136840580409
316.87053075882;113.089628407169
316.892147374271;113.036974382444
316.913763989721;112.977029639472
316.935380605172;112.912576897824
316.956997220622;112.847340004268
316.978613836073;112.786165683639
317.000230451524;112.734340734718
317.021847066974;112.694008812872
317.043463682425;112.667071963152
317.065080297875;112.656436254888
317.086696913326;112.655925632237
317.108313528776;112.644958487479
317.129930144227;112.623464738897
317.151546759678;112.592337879924
317.173163375128;112.549378571635
317.194779990579;112.483244669659
317.216396606029;112.392294525983
317.23801322148;112.273463634219
317.25962983693;112.128085232563
317.281246452381;111.960453047519
317.302863067832;111.771020297892
317.324479683282;111.549982216028
317.346096298733;111.312030307532
317.367712914183;111.079630869797
317.389329529634;110.857099828999
317.410946145084;110.642815341573
317.432562760535;110.441036886969
317.454179375986;110.253473030366
317.475795991436;110.078560689267
317.497412606887;109.920727479527
317.519029222337;109.784500836916
317.540645837788;109.662983333576
317.562262453239;109.545379018879
317.583879068689;109.42995132783
317.60549568414;109.329706906863
317.62711229959;109.252128035681
317.648728915041;109.196624971196
317.670345530491;109.1597722001
317.691962145942;109.12959470428
317.713578761393;109.100435305044
317.735195376843;109.081962087164
317.756811992294;109.076722567868
317.778428607744;109.081943043427
317.800045223195;109.097311848859
317.821661838645;109.124958641876
317.843278454096;109.166144891371
317.864895069547;109.217120934859
317.886511684997;109.272182366024
317.908128300448;109.328400009268
317.929744915898;109.38315708638
317.951361531349;109.429679714013
317.972978146799;109.462139878264
317.99459476225;109.476247971033
318.016211377701;109.469571235581
318.037827993151;109.441316066586
318.059444608602;109.39674973606
318.081061224052;109.342776194832
318.102677839503;109.280917901119
318.124294454953;109.211028392231
318.145911070404;109.145551881419
318.167527685855;109.105766546584
318.189144301305;109.104222751975
318.210760916756;109.145463625545
318.232377532206;109.236622712865
318.253994147657;109.384761433833
318.275610763107;109.591459069675
318.297227378558;109.848149411759
318.318843994009;110.142497726425
318.340460609459;110.469167881697
318.36207722491;110.823464456075
318.38369384036;111.18357437776
318.405310455811;111.534716224134
318.426927071261;111.879770832032
318.448543686712;112.220551019151
318.470160302163;112.55126475243
318.491776917613;112.860998278792
318.513393533064;113.143823542302
318.535010148514;113.400568103142
318.556626763965;113.63595613858
318.578243379415;113.854663070741
318.599859994866;114.057369338501
318.621476610317;114.252260233742
318.643093225767;114.444107703427
318.664709841218;114.635864944735
318.686326456668;114.823357684753
318.707943072119;115.006945802542
318.729559687569;115.189955259742
318.75117630302;115.371317200515
318.772792918471;115.553333486626
318.794409533921;115.731499189541
318.816026149372;115.889557307732
318.837642764822;116.014079248979
318.859259380273;116.092784478369
318.880875995723;116.12495925676
318.902492611174;116.106665696457
318.924109226625;116.035014657681
318.945725842075;115.908550657663
318.967342457526;115.716760013472
318.988959072976;115.442294831339
319.010575688427;115.099066061486
319.032192303877;114.719862149273
319.053808919328;114.309948267861
319.075425534779;113.863290066423
319.097042150229;113.370407914123
319.11865876568;112.843198974565
319.14027538113;112.308885180718
319.161891996581;111.781756081138
319.183508612031;111.259819314369
319.205125227482;110.727000120942
319.226741842933;110.18818161511
319.248358458383;109.668112275589
319.269975073834;109.181993667261
319.291591689284;108.733695095368
319.313208304735;108.30618666301
319.334824920186;107.890916759418
319.356441535636;107.481200403437
319.378058151087;107.066388161794
319.399674766537;106.649678725598
319.421291381988;106.249534004042
319.442907997438;105.874549872799
319.464524612889;105.52886906013
319.48614122834;105.202953396789
319.50775784379;104.902767249194
319.529374459241;104.644660566023
319.550991074691;104.418461365918
319.572607690142;104.223753229069
319.594224305592;104.069391074033
319.615840921043;103.958720655892
319.637457536494;103.884993474506
319.659074151944;103.844999880972
319.680690767395;103.836705745045
319.702307382845;103.866691527986
319.723923998296;103.944105704628
319.745540613746;104.071648693718
319.767157229197;104.250964418789
319.788773844648;104.480253757741
319.810390460098;104.733383038564
319.832007075549;104.978488880251
319.853623690999;105.217866771248
319.87524030645;105.452470429068
319.8968569219;105.66256356535
319.918473537351;105.82794334342
319.940090152802;105.944175154691
319.961706768252;106.02286060951
319.983323383703;106.07045946293
320.004939999153;106.079885624752
320.026556614604;106.047728913483
320.048173230054;105.972366226258
320.069789845505;105.866326749367
320.091406460956;105.735352692822
320.113023076406;105.574934423118
320.134639691857;105.389487174934
320.156256307307;105.188278446231
320.177872922758;104.976555073631
320.199489538208;104.761570766602
320.221106153659;104.543866565129
320.24272276911;104.323419158764
320.26433938456;104.100458786989
320.285956000011;103.869194110743
320.307572615461;103.623379836495
320.329189230912;103.366952147068
320.350805846362;103.106557185165
320.372422461813;102.841662483536
320.394039077264;102.564303213118
320.415655692714;102.256006650863
320.437272308165;101.889193230648
320.458888923615;101.464994897773
320.480505539066;101.002310907319
320.502122154516;100.505866069338
320.523738769967;99.9481389442891
320.545355385418;99.3258881102466
320.566972000868;98.6772289581286
320.588588616319;98.0144003127842
320.610205231769;97.3459975472215
320.63182184722;96.6981577520504
320.65343846267;96.0777372376811
320.675055078121;95.4691923505049
320.696671693572;94.8599735869934
320.718288309022;94.2539368843507
320.739904924473;93.6674788925734
320.761521539923;93.119121895166
320.783138155374;92.6155553555871
320.804754770824;92.1542048892714
320.826371386275;91.7163882881429
320.847988001726;91.286301101514
320.869604617176;90.854200611397
320.891221232627;90.4110333338605
320.912837848077;89.9505982075258
320.934454463528;89.473084422606
320.956071078978;88.9865352580238
320.977687694429;88.4955948641688
320.99930430988;87.9938421843463
321.02092092533;87.4637031585297
321.042537540781;86.9162339532789
321.064154156231;86.3526864786763
321.085770771682;85.7618961213579
321.107387387132;85.152277874839
321.129004002583;84.5553590375827
321.150620618034;83.9890949626971
321.172237233484;83.4492101668591
321.193853848935;82.9465034585205
321.215470464385;82.494520547937
321.237087079836;82.0812972512034
321.258703695287;81.6900210810049
321.280320310737;81.3171848042517
321.301936926188;80.973602544347
321.323553541638;80.6670923795674
321.345170157089;80.4001493363358
321.366786772539;80.1816440738313
321.38840338799;80.0085467293211
321.410020003441;79.8763853367715
321.431636618891;79.7720911445163
321.453253234342;79.6893860083036
321.474869849792;79.6319025471826
321.496486465243;79.5959363980673
321.518103080693;79.5657126604299
321.539719696144;79.5201447237235
321.561336311595;79.4482389087839
321.582952927045;79.3500329974164
321.604569542496;79.2194310690713
321.626186157946;79.0510334730603
321.647802773397;78.8418044013525
321.669419388847;78.5913936612429
321.691036004298;78.3120715499567
321.712652619749;78.0177020989228
321.734269235199;77.7083534672657
321.75588585065;77.3813190367999
321.7775024661;77.0429354027113
321.799119081551;76.7005610843047
321.820735697001;76.3493085416314
321.842352312452;75.9929140916916
321.863968927903;75.6449105731332
321.885585543353;75.3180413880937
321.907202158804;75.0128490970873
321.928818774254;74.7309951488545
321.950435389705;74.4819812837915
321.972052005155;74.2685585270947
321.993668620606;74.0838282649393
322.015285236057;73.9260983418701
322.036901851507;73.7905667433034
322.058518466958;73.6600120799812
322.080135082408;73.528683181662
322.101751697859;73.4106404323238
322.123368313309;73.3077920532313
322.14498492876;73.2117028219009
322.166601544211;73.1281842316142
322.188218159661;73.0709908763881
322.209834775112;73.0356092752746
322.231451390562;73.0146664579887
322.253068006013;73.0120617576457
322.274684621463;73.0306787848612
322.296301236914;73.0710405252019
322.317917852365;73.1277020991819
322.339534467815;73.1900769657391
322.361151083266;73.2473169354863
322.382767698716;73.2891332005177
322.404384314167;73.3083549708272
322.426000929617;73.2953772847124
322.447617545068;73.2382615123957
322.469234160519;73.1335295849855
322.490850775969;72.9857112360527
322.51246739142;72.7990656441859
322.53408400687;72.5779076547551
322.555700622321;72.3248682887046
322.577317237771;72.0512505735792
322.598933853222;71.7582768799242
322.620550468673;71.4545167662776
322.642167084123;71.1568326173602
322.663783699574;70.8616432756706
322.685400315024;70.5669249654636
322.707016930475;70.2735866612538
322.728633545925;69.9966460046343
322.750250161376;69.7431993795797
322.771866776827;69.512837039664
322.793483392277;69.3120353335723
322.815100007728;69.1430733463607
322.836716623178;69.0010518992094
322.858333238629;68.8794430118272
322.879949854079;68.7780038900083
322.90156646953;68.6938955889308
322.923183084981;68.6163278072838
322.944799700431;68.5358387444346
322.966416315882;68.447871828993
322.988032931332;68.3501041829859
323.009649546783;68.2416931170218
323.031266162233;68.1138684720379
323.052882777684;67.9610208461986
323.074499393135;67.782604062209
323.096116008585;67.5686347420087
323.117732624036;67.3083564125872
323.139349239486;67.007801277673
323.160965854937;66.6625612634414
323.182582470388;66.2620719198523
323.204199085838;65.794137690946
323.225815701289;65.2692025566658
323.247432316739;64.7249551046128
323.26904893219;64.175864665367
323.29066554764;63.613633178782
323.312282163091;63.0382222504308
323.333898778542;62.4637723107126
323.355515393992;61.9189101702885
323.377132009443;61.4107664501538
323.398748624893;60.9302849156701
323.420365240344;60.4496536138071
323.441981855794;59.9724825281685
323.463598471245;59.557606689236
323.485215086696;59.2061201026215
323.506831702146;58.8995714594177
323.528448317597;58.6268961187458
323.550064933047;58.3822166359853
323.571681548498;58.152599712965
323.593298163948;57.9261789011651
323.614914779399;57.6925667391249
323.63653139485;57.46091649792
323.6581480103;57.2390328380727
323.679764625751;57.0142720174758
323.701381241201;56.7781336462861
323.722997856652;56.5348898021708
323.744614472102;56.2805556704673
323.766231087553;56.0142441245549
323.787847703004;55.7395022165365
323.809464318454;55.4548018482497
323.831080933905;55.1530544640909
323.852697549355;54.8237913949543
323.874314164806;54.4770828349789
323.895930780256;54.1236695255395
323.917547395707;53.7521226682152
323.939164011158;53.358139326055
323.960780626608;52.9513048216714
323.982397242059;52.5354262951323
324.004013857509;52.0994855834958
324.02563047296;51.6587326499338
324.04724708841;51.2463859244599
324.068863703861;50.8689288895645
324.090480319312;50.5170182317428
324.112096934762;50.1815929654625
324.133713550213;49.8680311537946
324.155330165663;49.593126987159
324.176946781114;49.3629255767728
324.198563396564;49.1846354606356
324.220180012015;49.0608690927253
324.241796627466;48.9917112690727
324.263413242916;48.9716972782392
324.285029858367;48.9867388061807
324.306646473817;49.024183958317
324.328263089268;49.075021276163
324.349879704718;49.1263011550696
324.371496320169;49.1604008554895
324.39311293562;49.1608212822274
324.41472955107;49.1112574057362
324.436346166521;49.0034456116029
324.457962781971;48.8514362439366
324.479579397422;48.6530417292301
324.501196012872;48.4044950325
324.522812628323;48.116642556753
324.544429243774;47.818427955052
324.566045859224;47.5070994333482
324.587662474675;47.1823615790588
324.609279090125;46.8611411599335
324.630895705576;46.5596669844246
324.652512321026;46.2691760377661
324.674128936477;45.9821818904144
324.695745551928;45.7104701280307
324.717362167378;45.4560113621307
324.738978782829;45.1990986541393
324.760595398279;44.9253661159788
324.78221201373;44.64637708437
