Name;BF_ESR_01_14400s_X_gon_120dg_result

Recipe
Accumulations;5;Number of accumulations
RetryCount;0;Number of retries on error
AbortOnError;True;Abort on error
EnableQFactorMeasurement;False;Enable/Disable q-Factor measurement
Bfrom;313;B from
Bto;363;B to
SweepTime;60;Sweep time
Modulation;0.2;Modulation
ModulationFreq;100;Modulation
BHoldEnabled;False;B hold enabled
BHold;0;B hold
MicrowavePower;2;Microwave power
MarkerEnabled;False;
MarkerStartField;0;
MarkerEndField;0;
Mode;;
KineticGFact;0;
KineticTotalTransientTime;0;
KineticTimeResolution;0;
TempFrom;5;
TempUseSlope;False;
TempTo;5;
TempdT;1;
TempSetupTime;0;
GonFrom;0;
GonTo;180;
GonSteps;20;
XRayEnabled;False;
XRayTime;3;
XRayVoltage;40;
XRayCurrent;0.5;
UVEnabled;False;
UVIntensity;0;
UVTime;0;
UVLeadTime;0;
UVWavelength;0;
PowSweepFrom;1;
PowSweepTo;5;
PowSweepSteps;5;
AmpModSweepFrom;0;
AmpModSweepTo;1;
AmpModSweepSteps;10;
ExtTriggerEnabled;False;
ExtTrigLeadTime;0;
ExtTrigOnTime;5;

Meas
BField [mT];MW_Absorption []
313.008933944702;283.360293121035
313.030541866284;283.231754904169
313.052149787867;282.668063922431
313.073757709449;282.072781371894
313.095365631031;281.538553703391
313.116973552613;281.046321394945
313.138581474195;280.562997597915
313.160189395778;280.069112435302
313.18179731736;279.553295473814
313.203405238942;279.01942845983
313.225013160524;278.475371857182
313.246621082106;277.919026478097
313.268229003689;277.332635197956
313.289836925271;276.692483543073
313.311444846853;276.010976089139
313.333052768435;275.304497271209
313.354660690017;274.57399244292
313.3762686116;273.819304174696
313.397876533182;273.029940083369
313.419484454764;272.192514536573
313.441092376346;271.330693711341
313.462700297928;270.455166146729
313.484308219511;269.559705786936
313.505916141093;268.603996010185
313.527524062675;267.548013407328
313.549131984257;266.391818622967
313.570739905839;265.14755544696
313.592347827422;263.815872949555
313.613955749004;262.382141942978
313.635563670586;260.783090648641
313.657171592168;258.948567852375
313.67877951375;256.948049381555
313.700387435333;254.852574918212
313.721995356915;252.66311004947
313.743603278497;250.339198034513
313.765211200079;247.858102238948
313.786819121661;245.280054722152
313.808427043244;242.634613277909
313.830034964826;239.851521202508
313.851642886408;236.861929103005
313.87325080799;233.697620541563
313.894858729572;230.513501110002
313.916466651155;227.399243112989
313.938074572737;224.257080713956
313.959682494319;220.953317699718
313.981290415901;217.457498502354
314.002898337483;213.890546062382
314.024506259066;210.282889487668
314.046114180648;206.676571359962
314.06772210223;203.136009317275
314.089330023812;199.648961238408
314.110937945394;196.187584813577
314.132545866977;192.711530552429
314.154153788559;189.266247503813
314.175761710141;185.843094449794
314.197369631723;182.373051200653
314.218977553305;178.903134837464
314.240585474888;175.437773529305
314.26219339647;171.928200978051
314.283801318052;168.330457812571
314.305409239634;164.700182968845
314.327017161216;161.062659030628
314.348625082799;157.415442209943
314.370233004381;153.779754079212
314.391840925963;150.095431052119
314.413448847545;146.375227952
314.435056769127;142.5937698134
314.45666469071;138.643506090388
314.478272612292;134.508521036093
314.499880533874;130.360837635664
314.521488455456;126.365592635653
314.543096377038;122.495265189248
314.564704298621;118.642580111075
314.586312220203;114.76408378442
314.607920141785;110.826600401643
314.629528063367;106.757754043886
314.651135984949;102.479448846605
314.672743906532;98.1064217833159
314.694351828114;93.8605771258352
314.715959749696;89.7334913378346
314.737567671278;85.5615996998753
314.75917559286;81.257411405401
314.780783514443;76.8414045459939
314.802391436025;72.349229842733
314.823999357607;67.7602325046078
314.845607279189;63.218895805043
314.867215200771;58.8467794807409
314.888823122354;54.5033985048387
314.910431043936;50.0580593709264
314.932038965518;45.5741429439793
314.9536468871;41.1603179332343
314.975254808682;36.8141381109553
314.996862730265;32.5186084398548
315.018470651847;28.193258385119
315.040078573429;23.7998319431661
315.061686495011;19.486520318904
315.083294416593;15.2019254111033
315.104902338176;10.8149610962957
315.126510259758;6.45585563677236
315.14811818134;2.31258594086705
315.169726102922;-1.66091193504661
315.191334024504;-5.48610598050288
315.212941946087;-9.1669262658603
315.234549867669;-12.7298295114446
315.256157789251;-16.2377835057422
315.277765710833;-19.6734639604321
315.299373632415;-22.9515044688143
315.320981553998;-26.1550965679338
315.34258947558;-29.3365565211227
315.364197397162;-32.4277326279571
315.385805318744;-35.2751976172648
315.407413240326;-37.8623165003276
315.429021161909;-40.2403105190909
315.450629083491;-42.4937516705002
315.472237005073;-44.6973397042046
315.493844926655;-46.8029956362128
315.515452848237;-48.7351869994832
315.53706076982;-50.5105640558974
315.558668691402;-52.1868344261939
315.580276612984;-53.8091772252425
315.601884534566;-55.3306944663918
315.623492456148;-56.7397181856745
315.645100377731;-58.1024094364432
315.666708299313;-59.4617422913249
315.688316220895;-60.8098681791508
315.709924142477;-62.1280621902108
315.731532064059;-63.3848370782409
315.753139985642;-64.5846622153413
315.774747907224;-65.7205152116231
315.796355828806;-66.7793514137783
315.817963750388;-67.7827468530641
315.83957167197;-68.7619106553551
315.861179593553;-69.7098346516617
315.882787515135;-70.597719954527
315.904395436717;-71.4005257203823
315.926003358299;-72.1519159527978
315.947611279881;-72.8796082709135
315.969219201464;-73.5835782144735
315.990827123046;-74.2502372784937
316.012435044628;-74.865197597037
316.03404296621;-75.4357576868507
316.055650887792;-75.9838075974317
316.077258809375;-76.5183446225757
316.098866730957;-77.0387614568043
316.120474652539;-77.5489049577508
316.142082574121;-78.0510335130588
316.163690495703;-78.5374047929703
316.185298417286;-78.9978126392425
316.206906338868;-79.4316710665009
316.22851426045;-79.8361385831632
316.250122182032;-80.2179969839723
316.271730103614;-80.5814687957098
316.293338025197;-80.9221350807657
316.314945946779;-81.2290865398241
316.336553868361;-81.4897379608344
316.358161789943;-81.6936647889364
316.379769711525;-81.835050237177
316.401377633108;-81.9150556313495
316.42298555469;-81.9285411300866
316.444593476272;-81.8632406264829
316.466201397854;-81.7101125095288
316.487809319436;-81.489644911439
316.509417241019;-81.2226883884716
316.531025162601;-80.9125231554873
316.552633084183;-80.5763782166412
316.574241005765;-80.2291511138615
316.595848927347;-79.8620585973019
316.61745684893;-79.4761841628488
316.639064770512;-79.1117328572866
316.660672692094;-78.7912624211078
316.682280613676;-78.5067791245977
316.703888535258;-78.2614619044856
316.725496456841;-78.0587120648728
316.747104378423;-77.8977734713762
316.768712300005;-77.788130485687
316.790320221587;-77.7300106015298
316.811928143169;-77.7084882091684
316.833536064752;-77.7168193536723
316.855143986334;-77.7468067311881
316.876751907916;-77.7802119063636
316.898359829498;-77.8057392384886
316.91996775108;-77.8126173758965
316.941575672663;-77.7813768684454
316.963183594245;-77.6856101542031
316.984791515827;-77.5126857930941
317.006399437409;-77.2660109283773
317.028007358991;-76.9372946458925
317.049615280574;-76.5203200563602
317.071223202156;-76.0363204756321
317.092831123738;-75.5000751049158
317.11443904532;-74.9038733922444
317.136046966902;-74.2460014438515
317.157654888485;-73.5486079142608
317.179262810067;-72.8688694867362
317.200870731649;-72.2155013671766
317.222478653231;-71.5888898689648
317.244086574813;-71.0025998774333
317.265694496396;-70.4673015519395
317.287302417978;-69.9817357050093
317.30891033956;-69.5265920234946
317.330518261142;-69.0826624640487
317.352126182724;-68.6398113512375
317.373734104307;-68.20916024315
317.395342025889;-67.8024832583239
317.416949947471;-67.4088332894543
317.438557869053;-67.0051146086917
317.460165790635;-66.575313494713
317.481773712218;-66.1131572720664
317.5033816338;-65.6335887752955
317.524989555382;-65.1614260074682
317.546597476964;-64.699623845365
317.568205398546;-64.2254939402284
317.589813320129;-63.7299945325138
317.611421241711;-63.2217114929479
317.633029163293;-62.7128212368771
317.654637084875;-62.2013593905879
317.676245006457;-61.6754287772224
317.69785292804;-61.1388112608663
317.719460849622;-60.6249033069342
317.741068771204;-60.1368559053063
317.762676692786;-59.6371752873243
317.784284614368;-59.1127717525937
317.805892535951;-58.5604875512869
317.827500457533;-57.9721219755652
317.849108379115;-57.327003848276
317.870716300697;-56.6090242914078
317.892324222279;-55.8190754069894
317.913932143862;-54.9527241560867
317.935540065444;-54.0263365512623
317.957147987026;-53.0521634653496
317.978755908608;-52.0178853547821
318.00036383019;-50.9393920593654
318.021971751773;-49.8425110350171
318.043579673355;-48.7345468433001
318.065187594937;-47.6434523427712
318.086795516519;-46.5830049916055
318.108403438101;-45.5322090374555
318.130011359684;-44.4930381596428
318.151619281266;-43.4774572341501
318.173227202848;-42.4740090039261
318.19483512443;-41.4625160411316
318.216443046012;-40.4378721101268
318.238050967595;-39.3992891155306
318.259658889177;-38.3399869279756
318.281266810759;-37.2417111571984
318.302874732341;-36.0687691900736
318.324482653923;-34.8649625803361
318.346090575506;-33.69665656911
318.367698497088;-32.5486464187144
318.38930641867;-31.4081291737509
318.410914340252;-30.3065745377793
318.432522261834;-29.254483973725
318.454130183417;-28.216838426129
318.475738104999;-27.1637682833728
318.497346026581;-26.0895757435116
318.518953948163;-25.0158173029891
318.540561869745;-23.9678832875055
318.562169791328;-22.9281474820012
318.58377771291;-21.8803712304165
318.605385634492;-20.8607944751915
318.626993556074;-19.8912180742725
318.648601477656;-18.9316344327204
318.670209399239;-17.9628344304547
318.691817320821;-17.0013998636121
318.713425242403;-16.058360949304
318.735033163985;-15.1323226619112
318.756641085567;-14.2179044266667
318.77824900715;-13.3329153219614
318.799856928732;-12.4928372756602
318.821464850314;-11.6895844306603
318.843072771896;-10.9207604936448
318.864680693478;-10.1782638079197
318.886288615061;-9.44346019896676
318.907896536643;-8.69601579885654
318.929504458225;-7.95905610423705
318.951112379807;-7.25857888993369
318.972720301389;-6.59013365773757
318.994328222972;-5.93164030691923
319.015936144554;-5.26962969109354
319.037544066136;-4.61671764857061
319.059151987718;-3.98344293561183
319.0807599093;-3.35337182893846
319.102367830883;-2.73897590729814
319.123975752465;-2.1536641688532
319.145583674047;-1.57774225008768
319.167191595629;-0.994084866544824
319.188799517211;-0.403810293983952
319.210407438794;0.215080740161
319.232015360376;0.885209959826625
319.253623281958;1.58947617772168
319.27523120354;2.30994960904769
319.296839125122;3.06412782650057
319.318447046705;3.87145345632774
319.340054968287;4.70589432480665
319.361662889869;5.549417049765
319.383270811451;6.42849475082994
319.404878733033;7.36249049364795
319.426486654616;8.33195130179564
319.448094576198;9.29639315675928
319.46970249778;10.2368895778536
319.491310419362;11.1470003573701
319.512918340944;12.027273828073
319.534526262527;12.8658300204426
319.556134184109;13.6435584503673
319.577742105691;14.3425387783938
319.599350027273;14.9735611099218
319.620957948855;15.5549295061161
319.642565870438;16.0923023797442
319.66417379202;16.599354072086
319.685781713602;17.0931151026563
319.707389635184;17.5679669542125
319.728997556766;18.0056405280541
319.750605478349;18.4171172096113
319.772213399931;18.8343661561896
319.793821321513;19.2916313260434
319.815429243095;19.7964895485301
319.837037164677;20.3392082288335
319.85864508626;20.9174889752759
319.880253007842;21.5416937400659
319.901860929424;22.2270966849308
319.923468851006;22.974600177259
319.945076772588;23.7635152138248
319.966684694171;24.5735860407647
319.988292615753;25.4199836163175
320.009900537335;26.3153837802969
320.031508458917;27.2510541974438
320.053116380499;28.2099334821526
320.074724302082;29.1694458338453
320.096332223664;30.130391977593
320.117940145246;31.0927395826377
320.139548066828;32.0489546768627
320.16115598841;32.9968819203287
320.182763909993;33.9114684133876
320.204371831575;34.7681975921153
320.225979753157;35.5848008181788
320.247587674739;36.3811224454907
320.269195596321;37.1458964515085
320.290803517904;37.8709434862044
320.312411439486;38.5801225600797
320.334019361068;39.2841420446326
320.35562728265;39.963666823393
320.377235204232;40.5955237184602
320.398843125815;41.1682651027211
320.420451047397;41.6725199276625
320.442058968979;42.0935666406105
320.463666890561;42.4240998276
320.485274812143;42.6637211118997
320.506882733726;42.8124607923417
320.528490655308;42.8681200298228
320.55009857689;42.8267676857092
320.571706498472;42.7018312944963
320.593314420054;42.5240335063411
320.614922341637;42.3151086644839
320.636530263219;42.0872666462427
320.658138184801;41.8517518482494
320.679746106383;41.6251242168566
320.701354027965;41.427230443279
320.722961949548;41.2771186020681
320.74456987113;41.1864656611645
320.766177792712;41.1590937911058
320.787785714294;41.1948037746773
320.809393635876;41.2965073165706
320.831001557459;41.4687136711092
320.852609479041;41.708074296655
320.874217400623;41.9923209589228
320.895825322205;42.2991080463507
320.917433243787;42.6305032921636
320.93904116537;42.9935819498586
320.960649086952;43.3805791390172
320.982257008534;43.777865352183
321.003864930116;44.1816332290232
321.025472851698;44.5892161714212
321.047080773281;44.9961242613037
321.068688694863;45.4050767874425
321.090296616445;45.8217805610639
321.111904538027;46.2459498565258
321.133512459609;46.6742588972411
321.155120381192;47.1007406409044
321.176728302774;47.524424035246
321.198336224356;47.9509357190099
321.219944145938;48.37133057411
321.24155206752;48.7719005822768
321.263159989103;49.1561647999082
321.284767910685;49.5313564114687
321.306375832267;49.8944082228837
321.327983753849;50.2343256515183
321.349591675431;50.5524991896225
321.371199597014;50.8574095608281
321.392807518596;51.1577141270019
321.414415440178;51.4542760777114
321.43602336176;51.7358054359413
321.457631283342;51.9965597739069
321.479239204925;52.2485051452031
321.500847126507;52.5025074697656
321.522455048089;52.7552208310084
321.544062969671;53.0021306474872
321.565670891253;53.2342156436948
321.587278812836;53.4343647956881
321.608886734418;53.5981312767734
321.630494656;53.7258871710581
321.652102577582;53.8087195936297
321.673710499164;53.8337105453281
321.695318420747;53.7947493662071
321.716926342329;53.7067253098697
321.738534263911;53.5862774833986
321.760142185493;53.4488173229163
321.781750107075;53.3136474734236
321.803358028658;53.2066846002932
321.82496595024;53.1408567437261
321.846573871822;53.1363851516786
321.868181793404;53.2198552300546
321.889789714986;53.4126723585646
321.911397636569;53.7126774323416
321.933005558151;54.1138704192072
321.954613479733;54.6425066057133
321.976221401315;55.2706528654101
321.997829322897;55.9670853786168
322.01943724448;56.7085524727168
322.041045166062;57.484865262172
322.062653087644;58.2752228774085
322.084261009226;59.039348400549
322.105868930808;59.7636046468949
322.127476852391;60.4385123491047
322.149084773973;61.0793874044451
322.170692695555;61.6709992440013
322.192300617137;62.1937193437363
322.213908538719;62.6537826484062
322.235516460302;63.0749836351033
322.257124381884;63.4836431669867
322.278732303466;63.8750651403266
322.300340225048;64.2347497334835
322.32194814663;64.5618782513461
322.343556068213;64.8666482106888
322.365163989795;65.1591250457055
322.386771911377;65.4463877836561
322.408379832959;65.728693215394
322.429987754541;65.9942462941576
322.451595676124;66.2335057920357
322.473203597706;66.4516640515818
322.494811519288;66.6589747432243
322.51641944087;66.8530923529134
322.538027362452;67.0179281727015
322.559635284035;67.1541726718039
322.581243205617;67.273161304827
322.602851127199;67.3779982792806
322.624459048781;67.4646984297347
322.646066970363;67.5317965581082
322.667674891946;67.5904008747036
322.689282813528;67.645079398041
322.71089073511;67.7039457968833
322.732498656692;67.773426641818
322.754106578274;67.860068438304
322.775714499857;67.9681019050528
322.797322421439;68.1096588478036
322.818930343021;68.2856128347349
322.840538264603;68.4912494465406
322.862146186185;68.7308970908008
322.883754107768;69.0055977312338
322.90536202935;69.3083255482463
322.926969950932;69.62635202397
322.948577872514;69.9476458555939
322.970185794096;70.2758714847487
322.991793715679;70.6036215141154
323.013401637261;70.9110970364299
323.035009558843;71.1908595838937
323.056617480425;71.4484330802058
323.078225402007;71.6863709830369
323.09983332359;71.8991979613307
323.121441245172;72.0721184500129
323.143049166754;72.2122247960409
323.164657088336;72.3401499990691
323.186265009918;72.4579980897693
323.207872931501;72.5492619342909
323.229480853083;72.6251483896189
323.251088774665;72.7059211962456
323.272696696247;72.8042541357558
323.294304617829;72.9289282015813
323.315912539412;73.0859142647292
323.337520460994;73.2697368206664
323.359128382576;73.485520418881
323.380736304158;73.7394597832924
323.40234422574;74.0354274847454
323.423952147323;74.3611658206522
323.445560068905;74.6945824454646
323.467167990487;75.0322122977387
323.488775912069;75.3819768355752
323.510383833651;75.7407249995344
323.531991755234;76.0929188757873
323.553599676816;76.4252476016704
323.575207598398;76.7447297689315
323.59681551998;77.0661079232007
323.618423441562;77.389902851154
323.640031363145;77.7080456637625
323.661639284727;78.0466739762456
323.683247206309;78.4056021094605
323.704855127891;78.7565888163066
323.726463049473;79.0796002993326
323.748070971056;79.3857950051161
323.769678892638;79.6814084862632
323.79128681422;79.9533404265115
323.812894735802;80.1773932332533
323.834502657384;80.338036395738
323.856110578967;80.421980408156
323.877718500549;80.4246262870979
323.899326422131;80.3376005738414
323.920934343713;80.1506593433432
323.942542265295;79.8694706400437
323.964150186878;79.5047449689571
323.98575810846;79.0614102691819
324.007366030042;78.550214449569
324.028973951624;77.9786923113513
324.050581873206;77.3527138905271
324.072189794789;76.6803385213743
324.093797716371;75.972645074972
324.115405637953;75.2552898299684
324.137013559535;74.5687394117143
324.158621481117;73.9269748739662
324.1802294027;73.3212237396494
324.201837324282;72.7594182257727
324.223445245864;72.2545501218208
324.245053167446;71.8053746656263
324.266661089028;71.4048619890909
324.288269010611;71.0525998026799
324.309876932193;70.7384852520355
324.331484853775;70.4482956864991
324.353092775357;70.1768163556353
324.374700696939;69.9160100384108
324.396308618522;69.6553649910156
324.417916540104;69.3817239303288
324.439524461686;69.0775824214323
324.461132383268;68.7372262119256
324.48274030485;68.3685399700686
324.504348226433;67.9718889534931
324.525956148015;67.5381447045956
324.547564069597;67.0666601272289
324.569171991179;66.550632368893
324.590779912761;65.9828981948614
324.612387834344;65.3812537743071
324.633995755926;64.7777722180904
