Name;BF_ESR_01_14400s_Z_gon_20dg_result

Recipe
Accumulations;5;Number of accumulations
RetryCount;0;Number of retries on error
AbortOnError;True;Abort on error
EnableQFactorMeasurement;False;Enable/Disable q-Factor measurement
Bfrom;313;B from
Bto;363;B to
SweepTime;60;Sweep time
Modulation;0.2;Modulation
ModulationFreq;100;Modulation
BHoldEnabled;False;B hold enabled
BHold;0;B hold
MicrowavePower;2;Microwave power
MarkerEnabled;False;
MarkerStartField;0;
MarkerEndField;0;
Mode;;
KineticGFact;0;
KineticTotalTransientTime;0;
KineticTimeResolution;0;
TempFrom;5;
TempUseSlope;False;
TempTo;5;
TempdT;1;
TempSetupTime;0;
GonFrom;0;
GonTo;180;
GonSteps;20;
XRayEnabled;False;
XRayTime;3;
XRayVoltage;40;
XRayCurrent;0.5;
UVEnabled;False;
UVIntensity;0;
UVTime;0;
UVLeadTime;0;
UVWavelength;0;
PowSweepFrom;1;
PowSweepTo;5;
PowSweepSteps;5;
AmpModSweepFrom;0;
AmpModSweepTo;1;
AmpModSweepSteps;10;
ExtTriggerEnabled;False;
ExtTrigLeadTime;0;
ExtTrigOnTime;5;

Meas
BField [mT];MW_Absorption []
313.025289154053;123.611468311083
313.046907974507;123.408128105613
313.068526794962;123.195320623956
313.090145615417;122.979407569722
313.111764435871;122.769972887323
313.133383256326;122.58893498026
313.155002076781;122.444328029625
313.176620897235;122.333697520367
313.19823971769;122.251191373395
313.219858538145;122.20491670536
313.241477358599;122.206396039373
313.263096179054;122.26005435954
313.284714999509;122.363159560548
313.306333819963;122.517199757016
313.327952640418;122.71516125103
313.349571460873;122.936810747954
313.371190281327;123.167317552339
313.392809101782;123.39960725819
313.414427922236;123.625505991301
313.436046742691;123.826389980636
313.457665563146;123.985294926073
313.4792843836;124.08912583774
313.500903204055;124.128971365199
313.52252202451;124.091756842703
313.544140844964;123.978750333527
313.565759665419;123.816420640674
313.587378485874;123.611187375605
313.608997306328;123.358813509424
313.630616126783;123.077654966354
313.652234947238;122.790727885587
313.673853767692;122.511270456956
313.695472588147;122.242747570565
313.717091408602;121.985025406304
313.738710229056;121.729632941026
313.760329049511;121.461929137286
313.781947869966;121.187818188596
313.80356669042;120.91740961738
313.825185510875;120.646732218311
313.84680433133;120.360643133541
313.868423151784;120.041842148424
313.890041972239;119.690654048864
313.911660792693;119.323226814981
313.933279613148;118.953462697389
313.954898433603;118.583869120366
313.976517254057;118.213211443549
313.998136074512;117.84365456915
314.019754894967;117.483782134448
314.041373715421;117.139207162953
314.062992535876;116.809587106338
314.084611356331;116.49398664568
314.106230176785;116.195464428876
314.12784899724;115.920427109102
314.149467817695;115.68351616684
314.171086638149;115.496946503712
314.192705458604;115.353179445915
314.214324279059;115.239148047498
314.235943099513;115.14211162818
314.257561919968;115.04712520584
314.279180740423;114.946225320077
314.300799560877;114.845779468234
314.322418381332;114.738881016409
314.344037201786;114.597549435232
314.365656022241;114.404633556567
314.387274842696;114.17927269816
314.40889366315;113.928011898831
314.430512483605;113.63583380958
314.45213130406;113.297234774507
314.473750124514;112.919910221785
314.495368944969;112.503350909816
314.516987765424;112.052400153314
314.538606585878;111.597243436007
314.560225406333;111.14003672606
314.581844226788;110.656918333886
314.603463047242;110.165941662235
314.625081867697;109.697812799949
314.646700688152;109.261028520005
314.668319508606;108.848968118976
314.689938329061;108.446868293782
314.711557149516;108.044584470856
314.73317596997;107.647906091343
314.754794790425;107.271455930666
314.77641361088;106.917959359787
314.798032431334;106.573570126011
314.819651251789;106.239508900981
314.841270072243;105.93114791949
314.862888892698;105.643204249299
314.884507713153;105.354446721834
314.906126533607;105.06619128529
314.927745354062;104.809689160736
314.949364174517;104.585962476918
314.970982994971;104.384188380204
314.992601815426;104.206903130273
315.014220635881;104.052232326696
315.035839456335;103.913420340021
315.05745827679;103.789817988493
315.079077097245;103.685916991348
315.100695917699;103.608181689589
315.122314738154;103.558533083775
315.143933558609;103.529907950985
315.165552379063;103.513954001537
315.187171199518;103.513794135989
315.208790019973;103.538131371091
315.230408840427;103.587279575977
315.252027660882;103.648360365531
315.273646481336;103.712467862008
315.295265301791;103.784998904115
315.316884122246;103.861393953937
315.3385029427;103.932826415174
315.360121763155;103.999759165152
315.38174058361;104.05396817808
315.403359404064;104.07933394678
315.424978224519;104.072743202967
315.446597044974;104.028317322132
315.468215865428;103.945091861467
315.489834685883;103.83106808069
315.511453506338;103.68722168607
315.533072326792;103.507923244139
315.554691147247;103.27642183614
315.576309967702;103.010726542433
315.597928788156;102.715509707483
315.619547608611;102.393001922718
315.641166429066;102.053413803041
315.66278524952;101.694585144085
315.684404069975;101.313935730145
315.706022890429;100.925093693791
315.727641710884;100.547613726576
315.749260531339;100.179531794107
315.770879351793;99.8214554325147
315.792498172248;99.4789836259615
315.814116992703;99.1584604365216
315.835735813157;98.8501987302266
315.857354633612;98.5441111439421
315.878973454067;98.2592836142573
315.900592274521;98.0139477323594
315.922211094976;97.8032263214974
315.943829915431;97.6281967445475
315.965448735885;97.4977310737821
315.98706755634;97.4193403095417
316.008686376795;97.3941548175311
316.030305197249;97.4188431885702
316.051924017704;97.4919116060327
316.073542838159;97.6106313703794
316.095161658613;97.7710271765026
316.116780479068;97.9650425234232
316.138399299523;98.1739693177455
316.160018119977;98.3861777915617
316.181636940432;98.5953139180059
316.203255760886;98.7828592666107
316.224874581341;98.9274614628397
316.246493401796;99.0212202956963
316.26811222225;99.0700554103787
316.289731042705;99.0762728681651
316.31134986316;99.0448203895459
316.332968683614;98.9732855350737
316.354587504069;98.8676216303262
316.376206324524;98.7360983031177
316.397825144978;98.5854741049704
316.419443965433;98.4131306018513
316.441062785888;98.2198872228791
316.462681606342;98.0124691602914
316.484300426797;97.7966043171805
316.505919247252;97.5771800215922
316.527538067706;97.3610394255031
316.549156888161;97.15091417461
316.570775708616;96.9395651941894
316.59239452907;96.723941245402
316.614013349525;96.5172560720344
316.635632169979;96.3353204965376
316.657250990434;96.1767910713593
316.678869810889;96.0346628379834
316.700488631343;95.9054708296439
316.722107451798;95.7919323951501
316.743726272253;95.6889592844811
316.765345092707;95.5810163559137
316.786963913162;95.4607360868706
316.808582733617;95.3235719811698
316.830201554071;95.1593053860851
316.851820374526;94.9525261471459
316.873439194981;94.690394664631
316.895058015435;94.3782914722071
316.91667683589;94.0431500574954
316.938295656345;93.6835086709692
316.959914476799;93.3049578681508
316.981533297254;92.9220016039039
317.003152117709;92.5387581509109
317.024770938163;92.1457778943015
317.046389758618;91.7293310344578
317.068008579073;91.3075543900402
317.089627399527;90.9018151407674
317.111246219982;90.5191194478491
317.132865040436;90.1680458225485
317.154483860891;89.849499184654
317.176102681346;89.5503100405984
317.1977215018;89.2596851716993
317.219340322255;88.9781792247033
317.24095914271;88.7086736156812
317.262577963164;88.4501280080709
317.284196783619;88.1946555610187
317.305815604074;87.939943260389
317.327434424528;87.6895240322052
317.349053244983;87.4516190668666
317.370672065438;87.2453569883179
317.392290885892;87.0700150993288
317.413909706347;86.9155841358809
317.435528526802;86.7831171579728
317.457147347256;86.6673443230999
317.478766167711;86.55669864893
317.500384988166;86.4454094926904
317.52200380862;86.3367561991863
317.543622629075;86.2283919726976
317.565241449529;86.1149534886695
317.586860269984;85.9893619156424
317.608479090439;85.8344960114799
317.630097910893;85.6320784898376
317.651716731348;85.4059049340459
317.673335551803;85.1808662521382
317.694954372257;84.9538251008746
317.716573192712;84.7119563546884
317.738192013167;84.4487792621306
317.759810833621;84.1597115934178
317.781429654076;83.836567512733
317.803048474531;83.4751153339934
317.824667294985;83.0925715212306
317.84628611544;82.6892690061874
317.867904935895;82.2669550733906
317.889523756349;81.835248416319
317.911142576804;81.4054686441938
317.932761397259;80.9957177632839
317.954380217713;80.6165777186142
317.975999038168;80.2718203200733
317.997617858623;79.9615826123305
318.019236679077;79.683519953961
318.040855499532;79.4337164344559
318.062474319986;79.2037677898837
318.084093140441;78.985945955466
318.105711960896;78.7774289497992
318.12733078135;78.5808457529687
318.148949601805;78.3926476441421
318.17056842226;78.1975906296339
318.192187242714;77.9877667190939
318.213806063169;77.7585371600072
318.235424883624;77.5054241410263
318.257043704078;77.2402552563122
318.278662524533;76.9794248237861
318.300281344988;76.7395153404931
318.321900165442;76.5345662687193
318.343518985897;76.3686708687311
318.365137806352;76.2473017521233
318.386756626806;76.1687402229423
318.408375447261;76.1202443070618
318.429994267716;76.0856871117629
318.45161308817;76.0581559655079
318.473231908625;76.0427094868083
318.494850729079;76.0547319647258
318.516469549534;76.1077631984211
318.538088369989;76.1912057549473
318.559707190443;76.2715294621048
318.581326010898;76.3361429911419
318.602944831353;76.3957779978248
318.624563651807;76.4574026149444
318.646182472262;76.5263782253668
318.667801292717;76.6101771934094
318.689420113171;76.7125387546343
318.711038933626;76.8327030679044
318.732657754081;76.9701801047082
318.754276574535;77.1214106347254
318.77589539499;77.2774317665373
318.797514215445;77.4428323801253
318.819133035899;77.6204698864317
318.840751856354;77.7991008920022
318.862370676809;77.9590077871916
318.883989497263;78.0945221314461
318.905608317718;78.2131539534669
318.927227138173;78.308697939104
318.948845958627;78.3577007624268
318.970464779082;78.3366919453584
318.992083599536;78.2643190553719
319.013702419991;78.173320696265
319.035321240446;78.0683034162849
319.0569400609;77.9441853050308
319.078558881355;77.8001284416584
319.10017770181;77.6292145065766
319.121796522264;77.4222543838815
319.143415342719;77.1792257548021
319.165034163174;76.9211574095756
319.186652983628;76.6605285168439
319.208271804083;76.4039551216598
319.229890624538;76.150753715242
319.251509444992;75.9031492764508
319.273128265447;75.6617546323918
319.294747085902;75.4276239130699
319.316365906356;75.1962848470013
319.337984726811;74.9706437081394
319.359603547266;74.7718773487764
319.38122236772;74.5948381506527
319.402841188175;74.4155316447049
319.424460008629;74.2099607963216
319.446078829084;73.983489085596
319.467697649539;73.7647561105535
319.489316469993;73.5594139149543
319.510935290448;73.3386690029876
319.532554110903;73.0850190296899
319.554172931357;72.7982078955432
319.575791751812;72.4603403022814
319.597410572267;72.0574037499195
319.619029392721;71.6189507386698
319.640648213176;71.1632015765994
319.662267033631;70.6877439118459
319.683885854085;70.2001191186066
319.70550467454;69.7154893150411
319.727123494995;69.2397917629745
319.748742315449;68.7897628296884
319.770361135904;68.3613548671558
319.791979956359;67.9588542425537
319.813598776813;67.6142925294433
319.835217597268;67.3509583117676
319.856836417722;67.1723917082129
319.878455238177;67.0708358002676
319.900074058632;67.0307896563525
319.921692879086;67.0395718094708
319.943311699541;67.0980917958394
319.964930519996;67.2065522302747
319.98654934045;67.3432105418854
320.008168160905;67.4857570593904
320.02978698136;67.6239381210136
320.051405801814;67.7469557754158
320.073024622269;67.8463231051353
320.094643442724;67.913236156316
320.116262263178;67.9425122571656
320.137881083633;67.9330706394599
320.159499904088;67.8840675486401
320.181118724542;67.7950473502966
320.202737544997;67.6653408262515
320.224356365452;67.5025132104773
320.245975185906;67.3299189595102
320.267594006361;67.1531818983776
320.289212826816;66.9662551394807
320.31083164727;66.7692727090918
320.332450467725;66.5689968713888
320.354069288179;66.3715153600555
320.375688108634;66.1836114212869
320.397306929089;66.0083904079136
320.418925749543;65.8433942725178
320.440544569998;65.6911748425153
320.462163390453;65.5505664777547
320.483782210907;65.4142480632277
320.505401031362;65.2746436500213
320.527019851817;65.1280428627876
320.548638672271;64.9708030064227
320.570257492726;64.7977130273654
320.591876313181;64.6046057048723
320.613495133635;64.3874473105971
320.63511395409;64.1441114356883
320.656732774545;63.8789468903074
320.678351594999;63.5991624935257
320.699970415454;63.3108093721298
320.721589235909;63.0192025339857
320.743208056363;62.7270309110107
320.764826876818;62.432385106954
320.786445697272;62.1341730334223
320.808064517727;61.8435208362054
320.829683338182;61.572551551338
320.851302158636;61.3185572673664
320.872920979091;61.0627670735181
320.894539799546;60.7844113748604
320.91615862;60.4907127949789
320.937777440455;60.204509735355
320.95939626091;59.9221817373108
320.981015081364;59.6404494650984
321.002633901819;59.3575750943036
321.024252722274;59.0696023940948
321.045871542728;58.7600958044761
321.067490363183;58.4220474549851
321.089109183638;58.060521500996
321.110728004092;57.6732921962005
321.132346824547;57.246823714588
321.153965645002;56.7721575510255
321.175584465456;56.2540276026108
321.197203285911;55.7119807507155
321.218822106366;55.142679296187
321.24044092682;54.5427260564418
321.262059747275;53.9188269578
321.283678567729;53.2872233981385
321.305297388184;52.6517674512188
321.326916208639;52.018044579466
321.348535029093;51.4058762084656
321.370153849548;50.8379712686911
321.391772670003;50.3280646309882
321.413391490457;49.8930274587676
321.435010310912;49.5305162057575
321.456629131367;49.2442799349984
321.478247951821;49.0233194169134
321.499866772276;48.8630796436425
321.521485592731;48.7638235380505
321.543104413185;48.7236385705803
321.56472323364;48.7308566396084
321.586342054095;48.7731234910778
321.607960874549;48.8374373673038
321.629579695004;48.9060672553077
321.651198515459;48.9649067878776
321.672817335913;49.0202397779517
321.694436156368;49.0727764557804
321.716054976822;49.122308595363
321.737673797277;49.1653932307793
321.759292617732;49.2000958644558
321.780911438186;49.2284329558958
321.802530258641;49.24973285137
321.824149079096;49.2652494847396
321.84576789955;49.2772070422414
321.867386720005;49.285332656521
321.88900554046;49.2884583364022
321.910624360914;49.2939048214987
321.932243181369;49.3013998111463
321.953862001824;49.303174418321
321.975480822278;49.2993372975797
321.997099642733;49.2952489301896
322.018718463188;49.2885195735326
322.040337283642;49.2725602999146
322.061956104097;49.2370658618848
322.083574924552;49.1704463207514
322.105193745006;49.0675424266191
322.126812565461;48.9273669663955
322.148431385916;48.7560069332979
322.17005020637;48.5645006080054
322.191669026825;48.3460236959687
322.21328784728;48.0895254295634
322.234906667734;47.7999805762238
322.256525488189;47.5079143107915
322.278144308643;47.23184196657
322.299763129098;46.9728815524471
322.321381949553;46.7361783999963
322.343000770007;46.5245484066814
322.364619590462;46.3455539466549
322.386238410917;46.2056861941818
322.407857231371;46.1000543710966
322.429476051826;46.0242928184253
322.451094872281;45.9818817577706
322.472713692735;45.9787097872137
322.49433251319;46.0212346482005
322.515951333645;46.1077420314665
322.537570154099;46.2154238040776
322.559188974554;46.3298239674418
322.580807795009;46.4506444846864
322.602426615463;46.5805336763553
322.624045435918;46.716948270659
322.645664256373;46.8468178256723
322.667283076827;46.950540133986
322.688901897282;47.0264793403423
322.710520717736;47.0685739380361
322.732139538191;47.05814941576
322.753758358646;46.9883718980681
322.7753771791;46.8678482529016
322.796995999555;46.7003851728887
322.81861482001;46.4742089275099
322.840233640464;46.1948693452516
322.861852460919;45.8808465502385
322.883471281374;45.5371381701082
322.905090101828;45.1796310509395
322.926708922283;44.8178262321176
322.948327742738;44.4594796412326
322.969946563192;44.0993191936022
322.991565383647;43.736335945037
323.013184204102;43.3779144053875
323.034803024556;43.0273902058868
323.056421845011;42.6730375715797
323.078040665466;42.3041213927732
323.09965948592;41.9073680405881
323.121278306375;41.463851767741
323.14289712683;40.9844305036536
323.164515947284;40.4732765099153
323.186134767739;39.9255821418578
323.207753588193;39.3631056959226
323.229372408648;38.8308658470818
323.250991229103;38.3506438678805
323.272610049557;37.9049248544726
323.294228870012;37.4956734158018
323.315847690467;37.1446166584746
323.337466510921;36.869246446383
323.359085331376;36.6805946931827
323.380704151831;36.5769262764138
323.402322972285;36.5517274671556
323.42394179274;36.5998918428519
323.445560613195;36.7167280419699
323.467179433649;36.8855963824604
323.488798254104;37.093105326826
323.510417074559;37.3244462350842
323.532035895013;37.5710536198398
323.553654715468;37.822842186857
323.575273535923;38.0742686607976
323.596892356377;38.3276457297488
323.618511176832;38.5971686414853
323.640129997286;38.8845502011152
323.661748817741;39.1669148271112
323.683367638196;39.4300398969813
323.70498645865;39.6779117128494
323.726605279105;39.9137244278722
323.74822409956;40.1356377126509
323.769842920014;40.3434655573028
323.791461740469;40.5322719348799
323.813080560924;40.6861304347833
323.834699381378;40.8014250796245
323.856318201833;40.884190657939
323.877937022288;40.9390121977629
323.899555842742;40.9668904486445
323.921174663197;40.9669317700373
323.942793483652;40.948446175881
323.964412304106;40.9184804852557
323.986031124561;40.8776884234461
324.007649945016;40.8281941348312
324.02926876547;40.7753715141481
324.050887585925;40.72866876396
324.072506406379;40.6963784779063
324.094125226834;40.6789634396029
324.115744047289;40.6743149303297
324.137362867743;40.683137276617
324.158981688198;40.708395336822
324.180600508653;40.7447829555217
324.202219329107;40.7796135924825
324.223838149562;40.8039383770316
324.245456970017;40.813260181388
324.267075790471;40.7984815053398
324.288694610926;40.7486534343148
324.310313431381;40.6543548156892
324.331932251835;40.5088894204613
324.35355107229;40.3013995143218
324.375169892745;40.020300326148
324.396788713199;39.6704043910128
324.418407533654;39.2634840917285
324.440026354109;38.8067643014507
324.461645174563;38.3017485421579
324.483263995018;37.7469721096562
324.504882815473;37.1411610522023
324.526501635927;36.4802798623979
324.548120456382;35.7705179970973
324.569739276836;35.0306556731477
324.591358097291;34.3178782649105
324.612976917746;33.6754035667462
324.6345957382;33.0929801581398
324.656214558655;32.5646542393304
324.67783337911;32.1063237180719
324.699452199564;31.7242205690667
324.721071020019;31.4024983334402
324.742689840474;31.1289251593335
324.764308660928;30.9060667940293
324.785927481383;30.7417251626619
