Name;BF_ESR_01_360s_X_gon_120dg_result

Recipe
Accumulations;5;Number of accumulations
RetryCount;0;Number of retries on error
AbortOnError;True;Abort on error
EnableQFactorMeasurement;False;Enable/Disable q-Factor measurement
Bfrom;313;B from
Bto;363;B to
SweepTime;60;Sweep time
Modulation;0.2;Modulation
ModulationFreq;100;Modulation
BHoldEnabled;False;B hold enabled
BHold;0;B hold
MicrowavePower;2;Microwave power
MarkerEnabled;False;
MarkerStartField;0;
MarkerEndField;0;
Mode;;
KineticGFact;0;
KineticTotalTransientTime;0;
KineticTimeResolution;0;
TempFrom;5;
TempUseSlope;False;
TempTo;5;
TempdT;1;
TempSetupTime;0;
GonFrom;0;
GonTo;180;
GonSteps;20;
XRayEnabled;False;
XRayTime;3;
XRayVoltage;40;
XRayCurrent;0.5;
UVEnabled;False;
UVIntensity;0;
UVTime;0;
UVLeadTime;0;
UVWavelength;0;
PowSweepFrom;1;
PowSweepTo;5;
PowSweepSteps;5;
AmpModSweepFrom;0;
AmpModSweepTo;1;
AmpModSweepSteps;10;
ExtTriggerEnabled;False;
ExtTrigLeadTime;0;
ExtTrigOnTime;5;

Meas
BField [mT];MW_Absorption []
313.030801849365;183.681405035485
313.052419298998;184.780945636723
313.074036748631;185.89535115288
313.095654198264;186.952274133576
313.117271647897;187.978318471049
313.13888909753;189.022245880034
313.160506547163;190.104423496008
313.182123996796;191.191506070984
313.203741446429;192.273159713728
313.225358896062;193.329881309662
313.246976345694;194.333786126348
313.268593795327;195.293602384171
313.29021124496;196.223309163789
313.311828694593;197.094666465104
313.333446144226;197.875592744334
313.355063593859;198.599326702351
313.376681043492;199.310902964817
313.398298493125;200.009728863018
313.419915942758;200.66245446898
313.441533392391;201.262494356623
313.463150842024;201.828448858685
313.484768291657;202.369480477336
313.50638574129;202.88433555859
313.528003190922;203.389201080716
313.549620640555;203.911705851797
313.571238090188;204.463747626609
313.592855539821;205.029498616829
313.614472989454;205.595141683602
313.636090439087;206.1747382486
313.65770788872;206.77776112903
313.679325338353;207.374582153934
313.700942787986;207.944375372422
313.722560237619;208.485148670858
313.744177687252;209.000049546351
313.765795136885;209.490288996886
313.787412586518;209.962426799904
313.80903003615;210.434300300104
313.830647485783;210.868190634751
313.852264935416;211.210216855733
313.873882385049;211.442033356436
313.895499834682;211.584986258192
313.917117284315;211.666230808449
313.938734733948;211.701409397656
313.960352183581;211.674764173858
313.981969633214;211.565112895843
314.003587082847;211.370755819124
314.02520453248;211.098191288074
314.046821982113;210.749395460766
314.068439431746;210.322762854178
314.090056881378;209.805716733814
314.111674331011;209.185939921927
314.133291780644;208.475770307462
314.154909230277;207.712163584833
314.17652667991;206.912112510033
314.198144129543;206.072308345411
314.219761579176;205.166372629026
314.241379028809;204.191129098773
314.262996478442;203.159501465827
314.284613928075;202.08311908856
314.306231377708;200.962746754371
314.327848827341;199.783539382664
314.349466276973;198.511987871491
314.371083726606;197.122793109971
314.392701176239;195.630865970392
314.414318625872;194.075004826286
314.435936075505;192.491744186793
314.457553525138;190.905404784867
314.479170974771;189.28981168575
314.500788424404;187.62742691963
314.522405874037;185.930347721482
314.54402332367;184.207741230287
314.565640773303;182.426420610595
314.587258222936;180.525358920735
314.608875672569;178.531180386689
314.630493122202;176.533519650073
314.652110571834;174.567629209618
314.673728021467;172.619754889773
314.6953454711;170.652456283847
314.716962920733;168.593633125775
314.738580370366;166.409528384471
314.760197819999;164.145475817376
314.781815269632;161.864819595682
314.803432719265;159.590392662236
314.825050168898;157.287209556593
314.846667618531;154.937958445524
314.868285068164;152.613787887931
314.889902517797;150.307825532939
314.91151996743;147.983018032594
314.933137417062;145.66260616175
314.954754866695;143.366122606543
314.976372316328;141.075764865158
314.997989765961;138.789634033286
315.019607215594;136.528465618164
315.041224665227;134.29688408798
315.06284211486;132.066594849093
315.084459564493;129.810229177732
315.106077014126;127.553566958694
315.127694463759;125.345397085684
315.149311913392;123.190025553901
315.170929363025;121.029691601792
315.192546812658;118.789372611188
315.21416426229;116.507054024578
315.235781711923;114.267808096347
315.257399161556;112.067521787574
315.279016611189;109.837276506071
315.300634060822;107.514983530111
315.322251510455;105.078150007294
315.343868960088;102.518879181089
315.365486409721;99.929769399241
315.387103859354;97.3983879951649
315.408721308987;94.9156950864369
315.43033875862;92.4894775185193
315.451956208253;90.153460357053
315.473573657885;87.8833134879314
315.495191107518;85.6231743319713
315.516808557151;83.3215091966944
315.538426006784;81.0273932564403
315.560043456417;78.829449622423
315.58166090605;76.7645784496893
315.603278355683;74.8419409267435
315.624895805316;73.0410451819481
315.646513254949;71.254332185851
315.668130704582;69.4328340567919
315.689748154215;67.5842872343823
315.711365603848;65.8233770018304
315.732983053481;64.1708792774273
315.754600503113;62.5906290925451
315.776217952746;61.0306142513903
315.797835402379;59.4475392046688
315.819452852012;57.8606854503025
315.841070301645;56.2929341847231
315.862687751278;54.7438085020897
315.884305200911;53.2449865133537
315.905922650544;51.8003567658731
315.927540100177;50.4028219273704
315.94915754981;49.05911442526
315.970774999443;47.7656165851565
315.992392449076;46.5054236934191
316.014009898709;45.2805334673658
316.035627348342;44.1431184113474
316.057244797974;43.1025779820725
316.078862247607;42.1188711477017
316.10047969724;41.1557235552153
316.122097146873;40.2141483093259
316.143714596506;39.3178883700085
316.165332046139;38.4662416580928
316.186949495772;37.6420469694813
316.208566945405;36.8325955032394
316.230184395038;36.041228500799
316.251801844671;35.2787135920905
316.273419294304;34.5420090214009
316.295036743937;33.822825374607
316.316654193569;33.1156677230928
316.338271643202;32.4154780167825
316.359889092835;31.7356641044925
316.381506542468;31.111265307809
316.403123992101;30.5551721202877
316.424741441734;30.0622698312141
316.446358891367;29.629109906766
316.467976341;29.2551384352402
316.489593790633;28.9354110600176
316.511211240266;28.6665432932441
316.532828689899;28.4490941102821
316.554446139532;28.2891756943446
316.576063589165;28.1939358032893
316.597681038797;28.1644226091359
316.61929848843;28.1944287524688
316.640915938063;28.2786577928343
316.662533387696;28.4199994342873
316.684150837329;28.6255445088212
316.705768286962;28.8907519388654
316.727385736595;29.1927157992001
316.749003186228;29.5248008429919
316.770620635861;29.885009419768
316.792238085494;30.2704114671505
316.813855535127;30.6783853290374
316.83547298476;31.0954579324146
316.857090434393;31.5063061525098
316.878707884025;31.9004696339419
316.900325333658;32.2555658039161
316.921942783291;32.5681934839067
316.943560232924;32.8489648736703
316.965177682557;33.1010897065577
316.98679513219;33.3118831952929
317.008412581823;33.4744174869941
317.030030031456;33.6031435392638
317.051647481089;33.7084788285412
317.073264930722;33.7924612888119
317.094882380355;33.8551605735604
317.116499829988;33.9074915414145
317.138117279621;33.960087403566
317.159734729254;34.0196374574487
317.181352178886;34.0917360493531
317.202969628519;34.177028242473
317.224587078152;34.2764224927822
317.246204527785;34.4054282386203
317.267821977418;34.5673860557384
317.289439427051;34.743532043769
317.311056876684;34.9353245267784
317.332674326317;35.1502229560499
317.35429177595;35.3892210961957
317.375909225583;35.6418833990763
317.397526675216;35.9022961150287
317.419144124849;36.1711717481286
317.440761574481;36.452046417845
317.462379024114;36.7530905935331
317.483996473747;37.0775076546003
317.50561392338;37.414473426459
317.527231373013;37.7491700258355
317.548848822646;38.0844284211992
317.570466272279;38.4286658213524
317.592083721912;38.7845375425526
317.613701171545;39.1509128287283
317.635318621178;39.5058246946184
317.656936070811;39.8410908191663
317.678553520444;40.1716764484578
317.700170970077;40.512712199598
317.721788419709;40.8620429908706
317.743405869342;41.2020145748646
317.765023318975;41.5211187784278
317.786640768608;41.8383863958862
317.808258218241;42.1724918551858
317.829875667874;42.5188933832649
317.851493117507;42.8610420504436
317.87311056714;43.19201100732
317.894728016773;43.5142865448221
317.916345466406;43.8337761197491
317.937962916039;44.1547993778176
317.959580365672;44.4821753871313
317.981197815305;44.8261276010941
318.002815264937;45.1867766664064
318.02443271457;45.5470279240276
318.046050164203;45.8929096657082
318.067667613836;46.2298444811799
318.089285063469;46.5688528590622
318.110902513102;46.9100261463362
318.132519962735;47.243720173009
318.154137412368;47.564575056274
318.175754862001;47.8760444437333
318.197372311634;48.189374999675
318.218989761267;48.519261313092
318.2406072109;48.8567518752152
318.262224660533;49.1800314060392
318.283842110165;49.4948001143098
318.305459559798;49.8184807289908
318.327077009431;50.1642331560695
318.348694459064;50.5313697869455
318.370311908697;50.9176306976885
318.39192935833;51.3322916883239
318.413546807963;51.7783331506832
318.435164257596;52.2380753196546
318.456781707229;52.7105386603231
318.478399156862;53.1872456776351
318.500016606495;53.6445502119744
318.521634056128;54.0792566159315
318.543251505761;54.4958155066388
318.564868955393;54.8782280716426
318.586486405026;55.205013965235
318.608103854659;55.4738406809128
318.629721304292;55.7031657686109
318.651338753925;55.9107249579903
318.672956203558;56.1101234768845
318.694573653191;56.3098543606929
318.716191102824;56.5043807522399
318.737808552457;56.6882407290493
318.75942600209;56.8710397332304
318.781043451723;57.0680931758193
318.802660901356;57.2746764141193
318.824278350989;57.4726727547331
318.845895800621;57.658599227649
318.867513250254;57.8413918460135
318.889130699887;58.0188527416413
318.91074814952;58.1682765982757
318.932365599153;58.274634289445
318.953983048786;58.3355651528609
318.975600498419;58.3512087781291
318.997217948052;58.3194001391126
319.018835397685;58.2376210616498
319.040452847318;58.0989809398362
319.062070296951;57.9017205818865
319.083687746584;57.6494101732511
319.105305196217;57.3451206534922
319.126922645849;56.9875685227718
319.148540095482;56.5790637739556
319.170157545115;56.1446240354418
319.191774994748;55.704745191697
319.213392444381;55.2451283801927
319.235009894014;54.7505854015984
319.256627343647;54.2292964485365
319.27824479328;53.683243348637
319.299862242913;53.1217139191057
319.321479692546;52.5680640438493
319.343097142179;52.0268887299403
319.364714591812;51.4967411999902
319.386332041445;50.9751325948695
319.407949491077;50.465146780781
319.42956694071;49.9646785812206
319.451184390343;49.4698219388312
319.472801839976;49.0027541554825
319.494419289609;48.5889310125804
319.516036739242;48.2407999760192
319.537654188875;47.9610110065236
319.559271638508;47.7558717422423
319.580889088141;47.6330212636511
319.602506537774;47.5883700062739
319.624123987407;47.605821261983
319.64574143704;47.6771562792088
319.667358886673;47.8070589610231
319.688976336305;47.9956246292272
319.710593785938;48.2210192162502
319.732211235571;48.4613652033478
319.753828685204;48.6969763119662
319.775446134837;48.9085287417983
319.79706358447;49.0869858950027
319.818681034103;49.2290733232622
319.840298483736;49.3219062913361
319.861915933369;49.351993544065
319.883533383002;49.3205050688024
319.905150832635;49.2272097745545
319.926768282268;49.0713429367494
319.948385731901;48.8635471883192
319.970003181533;48.6065732952638
319.991620631166;48.3243606240686
320.013238080799;48.065417359656
320.034855530432;47.8570024865499
320.056472980065;47.7009272749007
320.078090429698;47.6033130509415
320.099707879331;47.5766137149969
320.121325328964;47.6248786665877
320.142942778597;47.7436558872264
320.16456022823;47.9318369073956
320.186177677863;48.1827237437814
320.207795127496;48.4978418443544
320.229412577129;48.8558340993976
320.251030026761;49.2256024351625
320.272647476394;49.5816239248613
320.294264926027;49.9182439381534
320.31588237566;50.2384595591896
320.337499825293;50.5394340630846
320.359117274926;50.8105378317389
320.380734724559;51.0402680130486
320.402352174192;51.2256096573469
320.423969623825;51.3716041347384
320.445587073458;51.4863584222905
320.467204523091;51.5706840154926
320.488821972724;51.6168724970051
320.510439422357;51.6163601027144
320.532056871989;51.5714693871901
320.553674321622;51.49343847973
320.575291771255;51.3816180338528
320.596909220888;51.233479093589
320.618526670521;51.0630178102431
320.640144120154;50.8942123888651
320.661761569787;50.7456554222127
320.68337901942;50.6203289444818
320.704996469053;50.5183914706766
320.726613918686;50.4451844255762
320.748231368319;50.40350749865
320.769848817952;50.3918780294246
320.791466267585;50.4082638036466
320.813083717217;50.4509319371798
320.83470116685;50.506390019518
320.856318616483;50.5479671049644
320.877936066116;50.5464468589733
320.899553515749;50.4821184282497
320.921170965382;50.3442032163805
320.942788415015;50.1231124018433
320.964405864648;49.805156888351
320.986023314281;49.3700851897413
321.007640763914;48.7963596110046
321.029258213547;48.0790147028048
321.05087566318;47.2395220113334
321.072493112812;46.3386121886267
321.094110562445;45.4062565438759
321.115728012078;44.4421694731434
321.137345461711;43.4395692231898
321.158962911344;42.3969521479922
321.180580360977;41.3430027971993
321.20219781061;40.3067201441552
321.223815260243;39.2815905563771
321.245432709876;38.2532958050382
321.267050159509;37.2389668259152
321.288667609142;36.2899457635808
321.310285058775;35.4247794066669
321.331902508408;34.6205653388103
321.353519958041;33.8801475680612
321.375137407673;33.2330865093539
321.396754857306;32.6875138211685
321.418372306939;32.2354819036661
321.439989756572;31.8677092356845
321.461607206205;31.5783154625196
321.483224655838;31.3623007498445
321.504842105471;31.2169117466309
321.526459555104;31.1351954334955
321.548077004737;31.0998366991129
321.56969445437;31.0834511617419
321.591311904003;31.0673853733974
321.612929353636;31.0400471859746
321.634546803269;30.98845242256
321.656164252901;30.8950314784871
321.677781702534;30.7504165761373
321.699399152167;30.5542060072586
321.7210166018;30.3032470154541
321.742634051433;29.9840880506991
321.764251501066;29.588182489164
321.785868950699;29.1440940055606
321.807486400332;28.6779954252407
321.829103849965;28.1913272054265
321.850721299598;27.6775989815956
321.872338749231;27.1377800137412
321.893956198864;26.5904609509053
321.915573648496;26.0517688983066
321.937191098129;25.5287744221259
321.958808547762;25.0343411100576
321.980425997395;24.5693662034718
322.002043447028;24.1316661955181
322.023660896661;23.728741513792
322.045278346294;23.3799828082448
322.066895795927;23.0963352736959
322.08851324556;22.8691159808845
322.110130695193;22.6932688270844
322.131748144826;22.5753876070926
322.153365594459;22.5099839597101
322.174983044092;22.49222583901
322.196600493724;22.5215948212405
322.218217943357;22.598752986397
322.23983539299;22.7249965021066
322.261452842623;22.8911390112911
322.283070292256;23.0708741782113
322.304687741889;23.2618103428035
322.326305191522;23.4636036523341
322.347922641155;23.6652101044783
322.369540090788;23.8603315304629
322.391157540421;24.0454346001273
322.412774990054;24.2165842976357
322.434392439687;24.3721349194431
322.45600988932;24.5173839219649
322.477627338953;24.6660521063064
322.499244788585;24.8246094779102
322.520862238218;24.9870681651958
322.542479687851;25.1431774337599
322.564097137484;25.2941674589707
322.585714587117;25.4465025557006
322.60733203675;25.5947017037088
322.628949486383;25.740810932249
322.650566936016;25.8927477215693
322.672184385649;26.0575816980086
322.693801835282;26.234264227361
322.715419284915;26.4207283017954
322.737036734548;26.6225462641571
322.758654184181;26.8472566080782
322.780271633813;27.0907672698002
322.801889083446;27.3460058974577
322.823506533079;27.6248278735437
322.845123982712;27.9393406361894
322.866741432345;28.2955294822592
322.888358881978;28.6933043673135
322.909976331611;29.1207210480869
322.931593781244;29.5589642230912
322.953211230877;29.9810232886043
322.97482868051;30.3915541228054
322.996446130143;30.8042704483329
323.018063579776;31.2379744201897
323.039681029408;31.6970302522041
323.061298479041;32.149553109201
323.082915928674;32.5502339634867
323.104533378307;32.8997488223049
323.12615082794;33.2148859891805
323.147768277573;33.50873234668
323.169385727206;33.7835500579221
323.191003176839;34.0370142015628
323.212620626472;34.2606240000387
323.234238076105;34.4602390411271
323.255855525738;34.645067676307
323.277472975371;34.8168287525988
323.299090425004;34.9774484102012
323.320707874636;35.1382261161925
323.342325324269;35.306212664039
323.363942773902;35.4861853947128
323.385560223535;35.6823505308666
323.407177673168;35.9039708977041
323.428795122801;36.1561501650742
323.450412572434;36.4487377889994
323.472030022067;36.7882992463432
323.4936474717;37.1819845624448
323.515264921333;37.6403710085737
323.536882370966;38.1703832748642
323.558499820599;38.7483740535444
323.580117270232;39.3612549328404
323.601734719864;40.0222264828008
323.623352169497;40.7370379132198
323.64496961913;41.4685515854815
323.666587068763;42.1904311995068
323.688204518396;42.9118384144869
323.709821968029;43.6476205993419
323.731439417662;44.3942756515657
323.753056867295;45.137914716727
323.774674316928;45.8603682069713
323.796291766561;46.533047169093
323.817909216194;47.1469041191247
323.839526665827;47.7146845716028
323.86114411546;48.2316624688177
323.882761565092;48.6996593614965
323.904379014725;49.1174726124113
323.925996464358;49.4704439035569
323.947613913991;49.7447277335719
323.969231363624;49.9400690536753
323.990848813257;50.0661000609487
324.01246626289;50.1323487823902
324.034083712523;50.1468997889513
324.055701162156;50.1151868347172
324.077318611789;50.0357206747948
324.098936061422;49.9109864406708
324.120553511055;49.7620686373359
324.142170960688;49.6049929651868
324.16378841032;49.4415857725306
324.185405859953;49.2682499107559
324.207023309586;49.0826742861948
324.228640759219;48.8847539021688
324.250258208852;48.6768036824093
324.271875658485;48.4616783001659
324.293493108118;48.231981325187
324.315110557751;47.9810449392852
324.336728007384;47.6975191110843
324.358345457017;47.3640880729987
324.37996290665;46.9744237091373
324.401580356283;46.519211396943
324.423197805916;45.991838158319
324.444815255548;45.3992178562078
324.466432705181;44.7473650899467
324.488050154814;44.0338139481313
324.509667604447;43.2671055670332
324.53128505408;42.4688176438897
324.552902503713;41.6483115867387
324.574519953346;40.8078777509892
324.596137402979;39.9720458509578
324.617754852612;39.1497148717644
324.639372302245;38.3340126355851
324.660989751878;37.5293477974353
324.682607201511;36.7612598557751
324.704224651144;36.0555498216981
324.725842100776;35.4147267699502
324.747459550409;34.8369459633645
324.769077000042;34.321486232331
324.790694449675;33.8652210521042
