Name;BF_ESR_01_1800s_Y_gon_180dg_result

Recipe
Accumulations;5;Number of accumulations
RetryCount;0;Number of retries on error
AbortOnError;True;Abort on error
EnableQFactorMeasurement;False;Enable/Disable q-Factor measurement
Bfrom;313;B from
Bto;363;B to
SweepTime;60;Sweep time
Modulation;0.2;Modulation
ModulationFreq;100;Modulation
BHoldEnabled;False;B hold enabled
BHold;0;B hold
MicrowavePower;2;Microwave power
MarkerEnabled;False;
MarkerStartField;0;
MarkerEndField;0;
Mode;;
KineticGFact;0;
KineticTotalTransientTime;0;
KineticTimeResolution;0;
TempFrom;5;
TempUseSlope;False;
TempTo;5;
TempdT;1;
TempSetupTime;0;
GonFrom;0;
GonTo;180;
GonSteps;20;
XRayEnabled;False;
XRayTime;3;
XRayVoltage;40;
XRayCurrent;0.5;
UVEnabled;False;
UVIntensity;0;
UVTime;0;
UVLeadTime;0;
UVWavelength;0;
PowSweepFrom;1;
PowSweepTo;5;
PowSweepSteps;5;
AmpModSweepFrom;0;
AmpModSweepTo;1;
AmpModSweepSteps;10;
ExtTriggerEnabled;False;
ExtTrigLeadTime;0;
ExtTrigOnTime;5;

Meas
BField [mT];MW_Absorption []
313.023280258179;68.5502307441158
313.044888578534;68.2375092401209
313.066496898889;67.8044143383791
313.088105219244;67.2527969580775
313.109713539599;66.5821884762501
313.131321859954;65.8232252491926
313.152930180309;65.0439674976723
313.174538500664;64.2759079684477
313.196146821019;63.5036678114352
313.217755141374;62.7267586742207
313.239363461729;61.9762593191388
313.260971782084;61.2886921144537
313.282580102439;60.6831262245986
313.304188422794;60.1794435034679
313.325796743149;59.7950392181308
313.347405063504;59.5344360444695
313.369013383859;59.3962219355431
313.390621704214;59.3725237778847
313.412230024569;59.438075871873
313.433838344924;59.5648715093782
313.455446665279;59.7374062329352
313.477054985634;59.9388058757724
313.498663305989;60.143082667727
313.520271626344;60.3284556116892
313.541879946699;60.4876120852916
313.563488267054;60.6182079881535
313.585096587409;60.7113367905539
313.606704907764;60.7336157076668
313.628313228119;60.6802565886424
313.649921548474;60.5700390360584
313.671529868829;60.4176382311176
313.693138189184;60.2415030528998
313.714746509539;60.0535416100543
313.736354829894;59.8555513426425
313.757963150249;59.65896511783
313.779571470604;59.4882454255646
313.801179790959;59.3547645233975
313.822788111314;59.2548975805174
313.844396431669;59.1819254248561
313.866004752024;59.131883199122
313.887613072379;59.1065013467178
313.909221392734;59.1110466132624
313.930829713089;59.14830167472
313.952438033444;59.2258533868912
313.974046353799;59.3494376558535
313.995654674154;59.5097468210627
314.017262994509;59.7015705169321
314.038871314864;59.9234805861758
314.060479635219;60.1710319620866
314.082087955574;60.4422820404409
314.103696275929;60.7283243559852
314.125304596284;61.0158064940515
314.146912916639;61.2950128846924
314.168521236994;61.562394373752
314.190129557349;61.8093357152659
314.211737877704;62.0166605123269
314.233346198059;62.1708446877971
314.254954518414;62.2692168954723
314.276562838769;62.3071195511374
314.298171159124;62.2801269996521
314.319779479479;62.1979810664162
314.341387799834;62.070652223855
314.362996120189;61.9046334074193
314.384604440544;61.7055307608555
314.406212760899;61.4747061095696
314.427821081254;61.2249987671099
314.449429401609;60.9945833350309
314.471037721964;60.792853953773
314.492646042319;60.6170539319662
314.514254362674;60.4772683312999
314.535862683029;60.3717385824327
314.557471003384;60.2968863561323
314.579079323739;60.2496831776487
314.600687644094;60.2282633044766
314.622295964449;60.2212864628458
314.643904284804;60.2143542293506
314.665512605159;60.2004600065765
314.687120925514;60.1783082867708
314.708729245869;60.1465879454844
314.730337566224;60.0978007454015
314.751945886579;60.0258227670339
314.773554206934;59.9416771690851
314.795162527289;59.858851315519
314.816770847644;59.7748298248543
314.838379167999;59.6853597667794
314.859987488354;59.5919660613959
314.881595808709;59.4950629189591
314.903204129064;59.3982878063131
314.924812449419;59.3056522873334
314.946420769774;59.2122051503211
314.968029090129;59.1160122531927
314.989637410484;59.0276981946362
315.011245730839;58.9518042276824
315.032854051194;58.8842271924519
315.054462371549;58.8189345668339
315.076070691904;58.7506234331097
315.097679012259;58.6904656108649
315.119287332614;58.6520491284505
315.140895652969;58.6360520323802
315.162503973324;58.6386686680027
315.184112293679;58.6592562137592
315.205720614034;58.6975684382816
315.227328934389;58.7495899729547
315.248937254744;58.8156182493084
315.270545575099;58.8940459149645
315.292153895454;58.9800807105424
315.313762215809;59.0742966736511
315.335370536164;59.1726635506155
315.356978856519;59.2684304020081
315.378587176874;59.3605425133969
315.400195497229;59.4501568517934
315.421803817584;59.5333077216931
315.443412137939;59.6054500970236
315.465020458294;59.6655481594566
315.486628778649;59.7018531313139
315.508237099004;59.6979090147896
315.529845419359;59.6577881757454
315.551453739714;59.6028807132763
315.573062060069;59.5361840856432
315.594670380424;59.4503144705908
315.616278700779;59.3525828127702
315.637887021134;59.2479302430966
315.659495341489;59.1421643568466
315.681103661844;59.0494249060315
315.702711982199;58.9720569141507
315.724320302554;58.911009569323
315.745928622909;58.8702965867153
315.767536943264;58.8435176487053
315.789145263619;58.8224284740773
315.810753583974;58.806048394265
315.832361904329;58.7990014665596
315.853970224684;58.7997469903556
315.875578545039;58.8042819601424
315.897186865394;58.8039457899451
315.918795185749;58.800445019313
315.940403506104;58.799074293076
315.962011826459;58.7981128294653
315.983620146814;58.7933325446289
316.005228467169;58.7861281585901
316.026836787524;58.7814617059072
316.048445107879;58.7779396200578
316.070053428234;58.7679612017215
316.091661748589;58.7515095351901
316.113270068944;58.7244036520194
316.134878389299;58.6817781555327
316.156486709654;58.6246466733516
316.178095030009;58.5574266630471
316.199703350364;58.4808216035564
316.221311670719;58.3914321019994
316.242919991074;58.2850389776217
316.264528311429;58.1598930615731
316.286136631784;58.0285850718986
316.307744952139;57.9122327419922
316.329353272494;57.8225148187768
316.350961592849;57.7522954206114
316.372569913204;57.6915054096416
316.394178233559;57.630825433944
316.415786553914;57.5615329544859
316.437394874269;57.4913437247479
316.459003194624;57.4190990541215
316.480611514979;57.331557388317
316.502219835334;57.216924305328
316.523828155689;57.06862582899
316.545436476044;56.8857619095688
316.567044796399;56.6715543122013
316.588653116754;56.4294905762488
316.610261437109;56.1607981074983
316.631869757464;55.8722040694853
316.653478077819;55.5624473783557
316.675086398174;55.2269822826923
316.696694718529;54.8851334338559
316.718303038884;54.5828526961402
316.739911359239;54.3394457053416
316.761519679594;54.1353303395339
316.783127999949;53.9598509092663
316.804736320304;53.8156789743748
316.826344640659;53.7047608429791
316.847952961014;53.631965455984
316.869561281369;53.6014289238159
316.891169601724;53.6058881419304
316.912777922079;53.6364416986349
316.934386242434;53.6744347426376
316.955994562789;53.6974919272143
316.977602883144;53.712997634529
316.999211203499;53.7387383473707
317.020819523854;53.7713368229116
317.042427844209;53.799897135343
317.064036164564;53.8254291127425
317.085644484919;53.8549692117892
317.107252805274;53.8939355824833
317.128861125629;53.9447828887758
317.150469445984;54.0027684462845
317.172077766339;54.0627737960328
317.193686086694;54.1238995718594
317.215294407049;54.1845499243341
317.236902727404;54.235370614027
317.258511047759;54.2724482266958
317.280119368114;54.2936516357499
317.301727688469;54.3008190087506
317.323336008824;54.3025687481674
317.344944329179;54.310005234135
317.366552649534;54.329908935736
317.388160969889;54.3568797295599
317.409769290244;54.3863925547808
317.431377610599;54.4231362237398
317.452985930954;54.473969596221
317.474594251309;54.5507075288577
317.496202571664;54.6520695889966
317.517810892019;54.7692214213765
317.539419212374;54.9041991263065
317.561027532729;55.060205728158
317.582635853084;55.2155992014927
317.604244173439;55.353430995543
317.625852493794;55.4696795216239
317.647460814149;55.5631105084605
317.669069134504;55.6310023612602
317.690677454859;55.666586574387
317.712285775214;55.667227362808
317.733894095569;55.6349683713968
317.755502415924;55.5673481234988
317.777110736279;55.4569822541106
317.798719056634;55.3105807696864
317.820327376989;55.1513909908701
317.841935697344;54.996276479862
317.863544017699;54.8547943721323
317.885152338054;54.7295817502897
317.906760658409;54.6186647222946
317.928368978764;54.5287956407074
317.949977299119;54.4674989244188
317.971585619474;54.4326280379023
317.993193939829;54.4175840560747
318.014802260184;54.4138665966149
318.036410580539;54.4103380454378
318.058018900894;54.3976127309721
318.079627221249;54.3732608940351
318.101235541604;54.3396647594874
318.122843861959;54.2958745796913
318.144452182314;54.2359460724319
318.166060502669;54.1515393154101
318.187668823024;54.0472207363204
318.209277143379;53.9394607356887
318.230885463734;53.8406674748627
318.252493784089;53.7547741185522
318.274102104444;53.6668017789649
318.295710424799;53.5684908758066
318.317318745154;53.4647648964188
318.338927065509;53.3634019887179
318.360535385864;53.2739450296942
318.382143706219;53.2001600589225
318.403752026574;53.1410313969273
318.425360346929;53.1014901972605
318.446968667284;53.0871171187906
318.468576987639;53.0969415242289
318.490185307994;53.1330142277311
318.511793628349;53.1974241262899
318.533401948704;53.2847968100776
318.555010269059;53.389012074367
318.576618589414;53.5066157776102
318.598226909769;53.6317127959614
318.619835230124;53.7522789370784
318.641443550479;53.8591499571223
318.663051870834;53.9531499321405
318.684660191189;54.0345753114952
318.706268511544;54.0912041272974
318.727876831899;54.1159224450125
318.749485152254;54.1166372790923
318.771093472609;54.0959806218639
318.792701792964;54.0529767488226
318.814310113319;53.9920227807204
318.835918433674;53.9204386317725
318.857526754029;53.8481899826972
318.879135074384;53.7869402694268
318.900743394739;53.745921831346
318.922351715095;53.7135002340818
318.943960035449;53.680455892443
318.965568355805;53.6562678608075
318.987176676159;53.6440588439444
319.008784996515;53.644430462678
319.030393316869;53.6565379839152
319.052001637225;53.6637791923867
319.073609957579;53.6537650427944
319.095218277935;53.6376126330895
319.11682659829;53.6188788608004
319.138434918645;53.5770786674495
319.160043239;53.5042454848173
319.181651559355;53.4041109241844
319.20325987971;53.2781121394843
319.224868200065;53.1267421028565
319.24647652042;52.9475145005571
319.268084840775;52.7462623978395
319.28969316113;52.5381860497958
319.311301481485;52.3252628537277
319.33290980184;52.0960485495665
319.354518122195;51.8533217358383
319.37612644255;51.598205763059
319.397734762905;51.3301033155492
319.41934308326;51.0604406266486
319.440951403615;50.7999498718922
319.46255972397;50.5492382391182
319.484168044325;50.3175887467594
319.50577636468;50.1166293465603
319.527384685035;49.9396768351274
319.54899300539;49.7737363345336
319.570601325745;49.618224449186
319.5922096461;49.4930346599385
319.613817966455;49.4151739596435
319.63542628681;49.39011650712
319.657034607165;49.4160607230996
319.67864292752;49.4706583002021
319.700251247875;49.533619233355
319.72185956823;49.6017363031205
319.743467888585;49.6777499742284
319.76507620894;49.7538523969627
319.786684529295;49.825037135424
319.80829284965;49.8921208699466
319.829901170005;49.9425843435975
319.85150949036;49.971333314561
319.873117810715;49.9631482506114
319.89472613107;49.9092411867526
319.916334451425;49.8324588175104
319.93794277178;49.7337765246533
319.959551092135;49.601265574998
319.98115941249;49.4217810401313
320.002767732845;49.2199931775049
320.0243760532;49.0178306602291
320.045984373555;48.8032406129418
320.06759269391;48.5707012260673
320.089201014265;48.3273394880118
320.11080933462;48.0760229712857
320.132417654975;47.8097216111585
320.15402597533;47.5244732479746
320.175634295685;47.2180017067933
320.19724261604;46.8737172492511
320.218850936395;46.4927892868583
320.24045925675;46.1086848256368
320.262067577105;45.7421043509844
320.28367589746;45.3847951299176
320.305284217815;45.037347883336
320.32689253817;44.7121738846678
320.348500858525;44.4109096939662
320.37010917888;44.1273443308771
320.391717499235;43.8878256432843
320.41332581959;43.7148883248655
320.434934139945;43.6018051919606
320.4565424603;43.5398219140981
320.478150780655;43.5290348699936
320.49975910101;43.5730471255449
320.521367421365;43.6720459281934
320.54297574172;43.8217734898808
320.564584062075;44.0118973810805
320.58619238243;44.2388874338645
320.607800702785;44.4876546906537
320.62940902314;44.7329592606144
320.651017343495;44.9657571926021
320.67262566385;45.1906668081518
320.694233984205;45.4098326715891
320.71584230456;45.6157493273308
320.737450624915;45.793271666207
320.75905894527;45.9306983876287
320.780667265625;46.0313334451325
320.80227558598;46.1056827704751
320.823883906335;46.1622933014994
320.84549222669;46.2092106440359
320.867100547045;46.2530901115114
320.8887088674;46.2935298544073
320.910317187755;46.3254930808365
320.93192550811;46.3352449356688
320.953533828465;46.3044249879462
320.97514214882;46.2553470786514
320.996750469175;46.2038821313093
321.01835878953;46.1462358891984
321.039967109885;46.0830689102688
321.06157543024;46.0196410488419
321.083183750595;45.9665724073506
321.10479207095;45.9357368905219
321.126400391305;45.9394624310436
321.14800871166;45.9915163669976
321.169617032015;46.1071766555668
321.19122535237;46.298729158942
321.212833672725;46.5573113708363
321.23444199308;46.8536990951977
321.256050313435;47.178238704142
321.27765863379;47.5399186027761
321.299266954145;47.9318132015676
321.3208752745;48.3090885538811
321.342483594855;48.6479434762337
321.36409191521;48.941719316726
321.385700235565;49.1788711883648
321.40730855592;49.3497961797875
321.428916876275;49.4434611031922
321.45052519663;49.4512866797366
321.472133516985;49.374813369001
321.49374183734;49.2361282719475
321.515350157695;49.048261769648
321.53695847805;48.8152751347051
321.558566798405;48.5509041806561
321.58017511876;48.2721625056598
321.601783439115;47.9921452184366
321.62339175947;47.728630505012
321.645000079825;47.4903690607509
321.66660840018;47.2813479920222
321.688216720535;47.1134872282611
321.70982504089;46.9872316252147
321.731433361245;46.8989825375523
321.7530416816;46.8502839622746
321.774650001955;46.8381983654847
321.79625832231;46.8469587169106
321.817866642665;46.856565430659
321.83947496302;46.858167570089
321.861083283375;46.8505158081938
321.88269160373;46.8306629570728
321.904299924085;46.7905864800535
321.92590824444;46.7165536885482
321.947516564795;46.5993669675493
321.96912488515;46.4393215804022
321.990733205505;46.236320401155
322.01234152586;45.9704269887776
322.033949846215;45.638897439764
322.05555816657;45.2533745013494
322.077166486925;44.8185805932828
322.09877480728;44.3243672733359
322.120383127635;43.7683011268901
322.14199144799;43.1725706379204
322.163599768345;42.5641198411139
322.1852080887;41.9434570429342
322.206816409055;41.322045287007
322.22842472941;40.7309525814013
322.250033049765;40.201799669977
322.27164137012;39.7456357438814
322.293249690475;39.352255793209
322.31485801083;39.0152975754092
322.336466331185;38.7525963626111
322.35807465154;38.5850492790489
322.379682971895;38.5005482048986
322.40129129225;38.4864960465624
322.422899612605;38.5389059770979
322.44450793296;38.6543661360146
322.466116253315;38.8135748408444
322.48772457367;39.0039390945481
322.509332894025;39.2042887175034
322.53094121438;39.4041451389571
322.552549534735;39.6069856533756
322.57415785509;39.8076358674943
322.595766175445;39.9883193112516
322.6173744958;40.1453423087064
322.638982816155;40.2764168395524
322.66059113651;40.3851927608414
322.682199456865;40.472845310381
322.70380777722;40.5400594644032
322.725416097575;40.5975737204274
322.74702441793;40.6506842727661
322.768632738285;40.6975071175757
322.79024105864;40.7367615502813
322.811849378995;40.7699060863172
322.83345769935;40.7952071999842
322.855066019705;40.8167868357588
322.87667434006;40.8422468413776
322.898282660415;40.8658488814696
322.91989098077;40.8821821882136
322.941499301125;40.8770393358864
322.96310762148;40.8401741168482
322.984715941835;40.7758472890025
323.00632426219;40.6971211233992
323.027932582545;40.6062285420872
323.0495409029;40.4886068609858
323.071149223255;40.339739755791
323.09275754361;40.1599767286805
323.114365863965;39.9648850672609
323.13597418432;39.7633469920564
323.157582504675;39.5526966043232
323.17919082503;39.3408652281512
323.200799145385;39.1439246348808
323.22240746574;38.958171541772
323.244015786095;38.7731450590857
323.26562410645;38.5780665994295
323.287232426805;38.3844658839342
323.30884074716;38.2014636025038
323.330449067515;38.0266081695617
323.35205738787;37.8435636531757
323.373665708225;37.639505019251
323.39527402858;37.4134566599506
323.416882348935;37.1877808066956
323.43849066929;36.9961546112533
323.460098989645;36.8307128003145
323.48170731;36.6864189250215
323.503315630355;36.5870843687171
323.52492395071;36.543467889216
323.546532271065;36.556748459075
323.56814059142;36.6313731553126
323.589748911775;36.7621563888613
323.61135723213;36.9342871714071
323.632965552485;37.1347810391079
323.65457387284;37.3585128370529
323.676182193195;37.5940251890477
323.69779051355;37.8262089877785
323.719398833905;38.039536280483
323.74100715426;38.2292562867956
323.762615474615;38.3940612829671
323.78422379497;38.5272276315599
323.805832115325;38.6256837335916
323.82744043568;38.6980185901236
323.849048756035;38.7514671372299
323.87065707639;38.7871421859263
323.892265396745;38.8015385421631
323.9138737171;38.8047758497728
323.935482037455;38.8039192421326
323.95709035781;38.8025895226688
323.978698678165;38.8172470057762
324.00030699852;38.8510441772707
324.021915318875;38.8972069572716
324.04352363923;38.9559673869436
324.065131959585;39.0286279446717
324.08674027994;39.1099250656288
324.108348600295;39.1893350940998
324.12995692065;39.2603677741376
324.151565241005;39.3207810932796
324.17317356136;39.3622272356756
324.194781881715;39.3697427274659
324.21639020207;39.3334784163633
324.237998522425;39.2548836749246
324.25960684278;39.136787899555
324.281215163135;38.9823656797323
324.30282348349;38.8004705059744
324.324431803845;38.6024448467354
324.3460401242;38.3955604780809
324.367648444555;38.1812882739973
324.38925676491;37.9693842705376
324.410865085265;37.768132303801
324.43247340562;37.5818270920141
324.454081725975;37.416636335078
324.47569004633;37.2772418931421
324.497298366685;37.1649336707036
324.51890668704;37.0805464671676
324.540515007395;37.0272489691864
324.56212332775;37.0098289191619
324.583731648105;37.0251132323878
324.60533996846;37.0688318462425
324.626948288815;37.1352524766932
324.64855660917;37.2185041673361
324.670164929525;37.3187208098262
324.69177324988;37.437938029698
324.713381570235;37.5576581162899
324.73498989059;37.6568444999242
324.756598210945;37.7262097012252
324.7782065313;37.7719629019288
324.799814851655;37.8082963515377
324.82142317201;37.8229198358717
