Name;BF_ESR_01_360s_Y_gon_140dg_result

Recipe
Accumulations;5;Number of accumulations
RetryCount;0;Number of retries on error
AbortOnError;True;Abort on error
EnableQFactorMeasurement;False;Enable/Disable q-Factor measurement
Bfrom;313;B from
Bto;363;B to
SweepTime;60;Sweep time
Modulation;0.2;Modulation
ModulationFreq;100;Modulation
BHoldEnabled;False;B hold enabled
BHold;0;B hold
MicrowavePower;2;Microwave power
MarkerEnabled;False;
MarkerStartField;0;
MarkerEndField;0;
Mode;;
KineticGFact;0;
KineticTotalTransientTime;0;
KineticTimeResolution;0;
TempFrom;5;
TempUseSlope;False;
TempTo;5;
TempdT;1;
TempSetupTime;0;
GonFrom;0;
GonTo;180;
GonSteps;20;
XRayEnabled;False;
XRayTime;3;
XRayVoltage;40;
XRayCurrent;0.5;
UVEnabled;False;
UVIntensity;0;
UVTime;0;
UVLeadTime;0;
UVWavelength;0;
PowSweepFrom;1;
PowSweepTo;5;
PowSweepSteps;5;
AmpModSweepFrom;0;
AmpModSweepTo;1;
AmpModSweepSteps;10;
ExtTriggerEnabled;False;
ExtTrigLeadTime;0;
ExtTrigOnTime;5;

Meas
BField [mT];MW_Absorption []
313.017730026245;62.4531519113005
313.039347087872;61.6194727998869
313.060964149498;60.7178920675027
313.082581211125;59.7762841849354
313.104198272751;58.8187390772664
313.125815334378;57.8329300169252
313.147432396004;56.815997277502
313.169049457631;55.8103624625387
313.190666519257;54.883295842927
313.212283580884;54.0488612873771
313.233900642511;53.2856036895386
313.255517704137;52.5971295592681
313.277134765764;52.0201159129042
313.29875182739;51.565302781522
313.320368889017;51.2141560845543
313.341985950643;50.9527322633877
313.36360301227;50.7744170906443
313.385220073896;50.6606950239106
313.406837135523;50.592103305546
313.42845419715;50.5560342289915
313.450071258776;50.5365322182035
313.471688320403;50.5156116247753
313.493305382029;50.4810855150285
313.514922443656;50.4374086925493
313.536539505282;50.3960441832605
313.558156566909;50.3668797771677
313.579773628535;50.3423779309702
313.601390690162;50.3141850071293
313.623007751788;50.2897172125362
313.644624813415;50.2746628184257
313.666241875042;50.2693337603627
313.687858936668;50.283882968639
313.709475998295;50.3192620887122
313.731093059921;50.3617562091907
313.752710121548;50.3994500941389
313.774327183174;50.431045620387
313.795944244801;50.4549816370801
313.817561306427;50.4633221138996
313.839178368054;50.4491766946805
313.86079542968;50.4189396200353
313.882412491307;50.3740789991218
313.904029552933;50.3083889781872
313.92564661456;50.2199721426866
313.947263676187;50.1149113011324
313.968880737813;50.0008304565906
313.99049779944;49.8919355732174
314.012114861066;49.8045118818473
314.033731922693;49.7465131228224
314.055348984319;49.7217323283014
314.076966045946;49.7372539943002
314.098583107572;49.7980967284228
314.120200169199;49.9044818673984
314.141817230826;50.0555455757659
314.163434292452;50.2436489015945
314.185051354079;50.4623194960803
314.206668415705;50.7029165199111
314.228285477332;50.9488693218001
314.249902538958;51.1905810427947
314.271519600585;51.4232324760204
314.293136662211;51.6345943569117
314.314753723838;51.8205876354758
314.336370785464;51.9845277207674
314.357987847091;52.1272893836242
314.379604908717;52.2492204937762
314.401221970344;52.3499907987928
314.422839031971;52.4254976603349
314.444456093597;52.4730237583672
314.466073155224;52.4974708679092
314.48769021685;52.5054142576631
314.509307278477;52.4951215681849
314.530924340103;52.4623218348765
314.55254140173;52.4062060469038
314.574158463356;52.3307518544641
314.595775524983;52.2376727135265
314.617392586609;52.1265067509446
314.639009648236;51.9997912793754
314.660626709863;51.8583792200649
314.682243771489;51.71413169266
314.703860833116;51.5758022567173
314.725477894742;51.4437743332703
314.747094956369;51.3198878030239
314.768712017995;51.2098184004429
314.790329079622;51.1110721225812
314.811946141248;51.0144728904119
314.833563202875;50.9129865631085
314.855180264501;50.8055436355257
314.876797326128;50.688592289044
314.898414387755;50.5488453113904
314.920031449381;50.3677248618684
314.941648511008;50.144767250378
314.963265572634;49.8921504975995
314.984882634261;49.6077167067991
315.006499695887;49.2779505759304
315.028116757514;48.9024064455137
315.04973381914;48.5075783469536
315.071350880767;48.112637414263
315.092967942393;47.7157244531137
315.11458500402;47.3161021816222
315.136202065647;46.9268051892
315.157819127273;46.5633814198527
315.1794361889;46.2349330289041
315.201053250526;45.9513755779347
315.222670312153;45.7033965369589
315.244287373779;45.483202562814
315.265904435406;45.2849075504644
315.287521497032;45.1099656459039
315.309138558659;44.9614892964666
315.330755620285;44.8337085356506
315.352372681912;44.7112098093051
315.373989743539;44.5815222242149
315.395606805165;44.4425688871945
315.417223866792;44.2947104578646
315.438840928418;44.1542280886582
315.460457990045;44.040004425943
315.482075051671;43.9516633493317
315.503692113298;43.8896782615505
315.525309174924;43.8609250844302
315.546926236551;43.8775847886961
315.568543298177;43.9536558378501
315.590160359804;44.092225959943
315.611777421431;44.2873930055402
315.633394483057;44.5240985078621
315.655011544684;44.7923100391244
315.67662860631;45.0890942599371
315.698245667937;45.4204731815025
315.719862729563;45.7800001940281
315.74147979119;46.1397829202923
315.763096852816;46.4743777655889
315.784713914443;46.7788141654112
315.806330976069;47.0617792242065
315.827948037696;47.327573190857
315.849565099323;47.5706307569537
315.871182160949;47.7850145580175
315.892799222576;47.9689441594006
315.914416284202;48.108305175686
315.936033345829;48.1893278067101
315.957650407455;48.2164220900862
315.979267469082;48.2076635391888
316.000884530708;48.169829372367
316.022501592335;48.0989434083002
316.044118653961;47.9910977709466
316.065735715588;47.8497600571048
316.087352777215;47.6806516893215
316.108969838841;47.4821459318012
316.130586900468;47.2472698591738
316.152203962094;46.9755138002143
316.173821023721;46.6865406508485
316.195438085347;46.4025497927257
316.217055146974;46.1289926023887
316.2386722086;45.8561636448415
316.260289270227;45.5773284079933
316.281906331853;45.2987408499995
316.30352339348;45.0289981152706
316.325140455107;44.7686168635435
316.346757516733;44.5123578382965
316.36837457836;44.2622749532828
316.389991639986;44.0270693729508
316.411608701613;43.8014481728255
316.433225763239;43.5828366125326
316.454842824866;43.3814925831701
316.476459886492;43.1945265378797
316.498076948119;43.0258524263456
316.519694009745;42.8770145563719
316.541311071372;42.7358704532407
316.562928132999;42.5959699101018
316.584545194625;42.4615974919362
316.606162256252;42.3365021210945
316.627779317878;42.2175410431582
316.649396379505;42.1052005436682
316.671013441131;42.0220307436084
316.692630502758;41.9816230076279
316.714247564384;41.9885508484224
316.735864626011;42.0399898379805
316.757481687637;42.1275266123937
316.779098749264;42.2507484724422
316.80071581089;42.4081207106834
316.822332872517;42.5996010703997
316.843949934144;42.8165341587308
316.86556699577;43.0277525468293
316.887184057397;43.2152494659668
316.908801119023;43.3831226825686
316.93041818065;43.5400508030028
316.952035242276;43.6845008894805
316.973652303903;43.816250220221
316.995269365529;43.9365843491935
317.016886427156;44.040836087906
317.038503488783;44.1129812817328
317.060120550409;44.1635736661385
317.081737612036;44.2012127493557
317.103354673662;44.2229512351402
317.124971735289;44.2221672284389
317.146588796915;44.1928828860559
317.168205858542;44.1391299945263
317.189822920168;44.0664760935097
317.211439981795;43.9735209307235
317.233057043421;43.8538739836324
317.254674105048;43.7010755324618
317.276291166674;43.5178846707821
317.297908228301;43.3159913428123
317.319525289928;43.1010187568107
317.341142351554;42.8797424349751
317.362759413181;42.6564711313643
317.384376474807;42.4291120700836
317.405993536434;42.1993102402045
317.42761059806;41.9835802345008
317.449227659687;41.8084249892441
317.470844721313;41.6790570072533
317.49246178294;41.582498663932
317.514078844566;41.5114276728589
317.535695906193;41.4659879966963
317.55731296782;41.4335590150132
317.578930029446;41.3968637933805
317.600547091073;41.3503619500328
317.622164152699;41.2974800255606
317.643781214326;41.2356000411925
317.665398275952;41.1601825347638
317.687015337579;41.0677253299567
317.708632399205;40.9559759382528
317.730249460832;40.833081895941
317.751866522459;40.7154533553115
317.773483584085;40.6130963224684
317.795100645712;40.5309869051727
317.816717707338;40.4820244440035
317.838334768965;40.4858203964673
317.859951830591;40.5451093973957
317.881568892218;40.6552666958717
317.903185953844;40.8223471976959
317.924803015471;41.0581473752144
317.946420077097;41.3465340703448
317.968037138724;41.6542512693804
317.98965420035;41.9742391118156
318.011271261977;42.3133761757771
318.032888323604;42.677887748459
318.05450538523;43.0579402864403
318.076122446857;43.4243703560233
318.097739508483;43.7622478052812
318.11935657011;44.0723337650661
318.140973631736;44.3588709752658
318.162590693363;44.6204463837637
318.184207754989;44.8459263536756
318.205824816616;45.02697304722
318.227441878242;45.1611108400451
318.249058939869;45.2391697869196
318.270676001496;45.2505883437905
318.292293063122;45.1977438524642
318.313910124749;45.0860835773331
318.335527186375;44.9070607797114
318.357144248002;44.6669228229684
318.378761309628;44.3825531128426
318.400378371255;44.0635631455139
318.421995432881;43.7109599061756
318.443612494508;43.3312347124634
318.465229556134;42.9510669466642
318.486846617761;42.6024565824978
318.508463679388;42.3085314138401
318.530080741014;42.0876101264054
318.551697802641;41.9221348420095
318.573314864267;41.8016297675804
318.594931925894;41.7249459959081
318.61654898752;41.6894898418368
318.638166049147;41.6914142916013
318.659783110773;41.7184364118369
318.6814001724;41.7544550103782
318.703017234026;41.7877111130528
318.724634295653;41.8086674828395
318.74625135728;41.8167648677217
318.767868418906;41.8161411854622
318.789485480533;41.8143103103621
318.811102542159;41.8146610656666
318.832719603786;41.8231525798171
318.854336665412;41.8301720411595
318.875953727039;41.8419599748052
318.897570788665;41.872271540888
318.919187850292;41.9158105407394
318.940804911918;41.9592394958534
318.962421973545;41.9914259020406
318.984039035172;42.0100762397285
319.005656096798;42.0119633354503
319.027273158425;41.9883832027852
319.048890220051;41.9317472902902
319.070507281678;41.8419195291201
319.092124343304;41.7263329113974
319.113741404931;41.595632728825
319.135358466557;41.453207091849
319.156975528184;41.3088417853085
319.17859258981;41.1896888727156
319.200209651437;41.1021220023324
319.221826713064;41.0448371510136
319.24344377469;41.020510526558
319.265060836317;41.0400565898856
319.286677897943;41.0918932653043
319.30829495957;41.1735292106811
319.329912021196;41.2782209989592
319.351529082823;41.3972809994675
319.373146144449;41.5219873301447
319.394763206076;41.6405383721829
319.416380267702;41.7421275309324
319.437997329329;41.8114514191966
319.459614390956;41.838066647226
319.481231452582;41.8206900953195
319.502848514209;41.761980763684
319.524465575835;41.6600498975908
319.546082637462;41.5134865601397
319.567699699088;41.3305487297376
319.589316760715;41.1290446838313
319.610933822341;40.92610025774
319.632550883968;40.7308457410675
319.654167945594;40.5463674385012
319.675785007221;40.37171800877
319.697402068848;40.2088369047629
319.719019130474;40.0658239838087
319.740636192101;39.9341129157099
319.762253253727;39.7984194334711
319.783870315354;39.6436435778595
319.80548737698;39.4538076628967
319.827104438607;39.2437117128102
319.848721500233;39.0348883927403
319.87033856186;38.8329823499542
319.891955623486;38.6329956173248
319.913572685113;38.4356460077125
319.93518974674;38.245354702385
319.956806808366;38.0558422132664
319.978423869993;37.8591179428661
320.000040931619;37.6576787100988
320.021657993246;37.4725722165933
320.043275054872;37.3176610137759
320.064892116499;37.1882191342686
320.086509178125;37.0722857943909
320.108126239752;36.964243219913
320.129743301378;36.8709129092194
320.151360363005;36.79322210389
320.172977424632;36.7249229605652
320.194594486258;36.6716179324116
320.216211547885;36.6455065473357
320.237828609511;36.6432893874561
320.259445671138;36.6529246864685
320.281062732764;36.6753695461326
320.302679794391;36.7162083755533
320.324296856017;36.7682841709466
320.345913917644;36.8230677632357
320.36753097927;36.8759278874476
320.389148040897;36.920008284298
320.410765102524;36.9518976670212
320.43238216415;36.9771125549109
320.453999225777;36.9943449631249
320.475616287403;36.982922370116
320.49723334903;36.93622197094
320.518850410656;36.8659536918124
320.540467472283;36.7707180601945
320.562084533909;36.6587409199877
320.583701595536;36.5469676072272
320.605318657162;36.4416430152546
320.626935718789;36.3482115183948
320.648552780416;36.2773197225478
320.670169842042;36.2322564501553
320.691786903669;36.21150442002
320.713403965295;36.2152865645562
320.735021026922;36.2477539408032
320.756638088548;36.3167934836212
320.778255150175;36.4089801207892
320.799872211801;36.5053257416044
320.821489273428;36.6081778561925
320.843106335054;36.7192075796665
320.864723396681;36.8373163660138
320.886340458307;36.9578781678957
320.907957519934;37.0768685789514
320.929574581561;37.1914352802343
320.951191643187;37.2934774892349
320.972808704814;37.3749748367317
320.99442576644;37.441636295149
321.016042828067;37.5036209626608
321.037659889693;37.5625577005642
321.05927695132;37.6115992697356
321.080894012946;37.644211836442
321.102511074573;37.6580617599678
321.124128136199;37.6572698322462
321.145745197826;37.6471147397355
321.167362259453;37.6293318263164
321.188979321079;37.6072535067952
321.210596382706;37.5802487360216
321.232213444332;37.5527061110296
321.253830505959;37.5315875907448
321.275447567585;37.5207937285391
321.297064629212;37.5208980564839
321.318681690838;37.5344085722259
321.340298752465;37.5601100922533
321.361915814092;37.5913500817709
321.383532875718;37.6291562491567
321.405149937345;37.6747366584051
321.426766998971;37.7226566464296
321.448384060598;37.7747654529379
321.470001122224;37.8277907336723
321.491618183851;37.8652705567961
321.513235245477;37.8839308867257
321.534852307104;37.8912886722763
321.55646936873;37.8951063705198
321.578086430357;37.8936968827577
321.599703491983;37.8818134283869
321.62132055361;37.8596937338543
321.642937615237;37.8215975494435
321.664554676863;37.7657384694679
321.68617173849;37.6922005581453
321.707788800116;37.5990243703364
321.729405861743;37.4751744432781
321.751022923369;37.3260453606132
321.772639984996;37.1590712429215
321.794257046622;36.9630174776076
321.815874108249;36.7330984558049
321.837491169875;36.4789630896537
321.859108231502;36.2128660104784
321.880725293129;35.9518461759006
321.902342354755;35.6986961531899
321.923959416382;35.4463731615683
321.945576478008;35.1930499449367
321.967193539635;34.9390372907839
321.988810601261;34.677115987567
322.010427662888;34.409348582141
322.032044724514;34.1333032720329
322.053661786141;33.850304353808
322.075278847767;33.5555946084706
322.096895909394;33.2365714707849
322.118512971021;32.8992303159895
322.140130032647;32.5588978627371
322.161747094274;32.2095134842831
322.1833641559;31.8520159668938
322.204981217527;31.4931534290659
322.226598279153;31.1483289372103
322.24821534078;30.8254316007886
322.269832402406;30.5221816652752
322.291449464033;30.2354177368366
322.313066525659;29.9683951337065
322.334683587286;29.7310468214658
322.356300648913;29.533909304925
322.377917710539;29.3798711728217
322.399534772166;29.267717308081
322.421151833792;29.200890361596
322.442768895419;29.1904100213379
322.464385957045;29.2498978854331
322.486003018672;29.3848299334362
322.507620080298;29.5854677958133
322.529237141925;29.8452620607205
322.550854203551;30.1685260499483
322.572471265178;30.5588368980142
322.594088326805;31.0100720430662
322.615705388431;31.5081156154571
322.637322450058;32.0207593165485
322.658939511684;32.5297288031319
322.680556573311;33.0143135113609
322.702173634937;33.4523942572101
322.723790696564;33.840512454494
322.74540775819;34.1655738749252
322.767024819817;34.4118670916224
322.788641881443;34.5801874724261
322.81025894307;34.6679462325368
322.831876004697;34.6802561125788
322.853493066323;34.6395610715608
322.87511012795;34.5636105437409
322.896727189576;34.4597214266705
322.918344251203;34.3418012425595
322.939961312829;34.2106617099708
322.961578374456;34.0714117928592
322.983195436082;33.9553549327469
323.004812497709;33.8827335091408
323.026429559335;33.8437140706304
323.048046620962;33.8291804499484
323.069663682589;33.8329708767917
323.091280744215;33.8517047664955
323.112897805842;33.893215472259
323.134514867468;33.9548074302143
323.156131929095;34.0160382205778
323.177748990721;34.0538771481122
323.199366052348;34.0497594311164
323.220983113974;33.9965787418041
323.242600175601;33.8940536460555
323.264217237227;33.7489030569068
323.285834298854;33.559490775652
323.307451360481;33.3171126501268
323.329068422107;33.030076926524
323.350685483734;32.7084468767487
323.37230254536;32.3715207715049
323.393919606987;32.0398907309363
323.415536668613;31.7133543212408
323.43715373024;31.3990249325654
323.458770791866;31.1264109636283
323.480387853493;30.9140023327262
323.502004915119;30.761358995255
323.523621976746;30.6687605450894
323.545239038373;30.6389310887873
323.566856099999;30.6738972602754
323.588473161626;30.7686481245351
323.610090223252;30.9041867140425
323.631707284879;31.0660097021118
323.653324346505;31.2515272580529
323.674941408132;31.4611593391765
323.696558469758;31.6740047393626
323.718175531385;31.8641115341635
323.739792593011;32.0302157562142
323.761409654638;32.1642103696794
323.783026716264;32.2494862766186
323.804643777891;32.2770512539178
323.826260839518;32.2474746357438
323.847877901144;32.1781852204588
323.869494962771;32.0991898226959
323.891112024397;32.019978178895
323.912729086024;31.9334108582294
323.93434614765;31.8431639457894
323.955963209277;31.7638571547834
323.977580270903;31.710833468809
323.99919733253;31.691329922228
324.020814394157;31.6937710368869
324.042431455783;31.7048082460512
324.06404851741;31.7167689621654
324.085665579036;31.7277425367828
324.107282640663;31.7433429469057
324.128899702289;31.7626174169861
324.150516763916;31.779902471273
324.172133825542;31.7914624356413
324.193750887169;31.8038372796009
324.215367948795;31.8337266966973
324.236985010422;31.8862945978481
324.258602072049;31.9644827966484
324.280219133675;32.074658482231
324.301836195302;32.219834460605
324.323453256928;32.397166322158
324.345070318555;32.6077335058022
324.366687380181;32.8458587446139
324.388304441808;33.0927071614688
324.409921503434;33.3275953878192
324.431538565061;33.5340040985393
324.453155626687;33.7031656380621
324.474772688314;33.8279716064403
324.49638974994;33.902187070488
324.518006811567;33.9220750028869
324.539623873194;33.8841995994143
324.56124093482;33.7888791600984
324.582857996447;33.6394047393358
324.604475058073;33.435492403674
324.6260921197;33.1858760870589
324.647709181326;32.9136804960743
324.669326242953;32.6372471244612
324.690943304579;32.3660462049881
324.712560366206;32.1084955023513
324.734177427832;31.8769457269012
324.755794489459;31.6847297296599
324.777411551086;31.5399954207754
