Name;BF_ESR_01_Natural_x_gon_140dg_result

Recipe
Accumulations;5;Number of accumulations
RetryCount;0;Number of retries on error
AbortOnError;True;Abort on error
EnableQFactorMeasurement;False;Enable/Disable q-Factor measurement
Bfrom;313;B from
Bto;363;B to
SweepTime;60;Sweep time
Modulation;0.2;Modulation
ModulationFreq;100;Modulation
BHoldEnabled;False;B hold enabled
BHold;0;B hold
MicrowavePower;2;Microwave power
MarkerEnabled;False;
MarkerStartField;0;
MarkerEndField;0;
Mode;;
KineticGFact;0;
KineticTotalTransientTime;0;
KineticTimeResolution;0;
TempFrom;5;
TempUseSlope;False;
TempTo;5;
TempdT;1;
TempSetupTime;0;
GonFrom;0;
GonTo;180;
GonSteps;20;
XRayEnabled;False;
XRayTime;3;
XRayVoltage;40;
XRayCurrent;0.5;
UVEnabled;False;
UVIntensity;0;
UVTime;0;
UVLeadTime;0;
UVWavelength;0;
PowSweepFrom;1;
PowSweepTo;5;
PowSweepSteps;5;
AmpModSweepFrom;0;
AmpModSweepTo;1;
AmpModSweepSteps;10;
ExtTriggerEnabled;False;
ExtTrigLeadTime;0;
ExtTrigOnTime;5;

Meas
BField [mT];MW_Absorption []
313.014698028565;140.894193212532
313.036313340903;140.731119219334
313.057928653242;140.46865803844
313.079543965581;140.180115257755
313.101159277919;139.864841682916
313.122774590258;139.530372033499
313.144389902597;139.18533382466
313.166005214935;138.838222668449
313.187620527274;138.487373231896
313.209235839613;138.134625419576
313.230851151952;137.796954312767
313.25246646429;137.477266584285
313.274081776629;137.171409544338
313.295697088968;136.86635848543
313.317312401306;136.55627449154
313.338927713645;136.247200381097
313.360543025984;135.934614618792
313.382158338322;135.60481037825
313.403773650661;135.25250052908
313.425388963;134.870726987199
313.447004275339;134.460900347787
313.468619587677;134.031322488267
313.490234900016;133.594329653141
313.511850212355;133.142753613794
313.533465524693;132.663814789217
313.555080837032;132.154555048198
313.576696149371;131.627433214832
313.598311461709;131.092089913363
313.619926774048;130.545452857122
313.641542086387;129.98866957067
313.663157398726;129.444490701945
313.684772711064;128.915212352451
313.706388023403;128.392722198672
313.728003335742;127.874378243042
313.74961864808;127.393859368046
313.771233960419;126.9718850145
313.792849272758;126.587154177206
313.814464585096;126.226976668591
313.836079897435;125.883302565685
313.857695209774;125.560990685269
313.879310522113;125.257640664694
313.900925834451;124.957443590365
313.92254114679;124.634792514666
313.944156459129;124.274275631494
313.965771771467;123.895042036578
313.987387083806;123.507649665082
314.009002396145;123.106431788892
314.030617708483;122.689399024504
314.052233020822;122.266538107799
314.073848333161;121.867525078407
314.0954636455;121.510508855889
314.117078957838;121.202970378145
314.138694270177;120.949339380279
314.160309582516;120.747988782932
314.181924894854;120.600167490484
314.203540207193;120.50831114609
314.225155519532;120.462378653037
314.24677083187;120.445857997477
314.268386144209;120.441110143099
314.290001456548;120.436920807798
314.311616768887;120.421683811059
314.333232081225;120.385959388179
314.354847393564;120.318472193834
314.376462705903;120.226308747976
314.398078018241;120.121386757553
314.41969333058;120.011442253705
314.441308642919;119.896535038198
314.462923955257;119.784623187929
314.484539267596;119.688529588403
314.506154579935;119.616122773396
314.527769892274;119.569603287143
314.549385204612;119.547964689252
314.571000516951;119.553107227951
314.59261582929;119.582832557829
314.614231141628;119.623604737995
314.635846453967;119.666450654059
314.657461766306;119.710513527886
314.679077078644;119.763461400257
314.700692390983;119.83015448504
314.722307703322;119.904936125459
314.743923015661;119.986653869269
314.765538327999;120.087083197091
314.787153640338;120.217766794885
314.808768952677;120.383219436401
314.830384265015;120.578811535252
314.851999577354;120.803099573602
314.873614889693;121.065942585573
314.895230202031;121.378375398751
314.91684551437;121.734573703632
314.938460826709;122.096075048992
314.960076139048;122.447067565058
314.981691451386;122.790444253034
315.003306763725;123.116769330429
315.024922076064;123.418333326054
315.046537388402;123.70029169409
315.068152700741;123.962798658367
315.08976801308;124.204161145343
315.111383325418;124.427024650765
315.132998637757;124.633419252075
315.154613950096;124.825239613682
315.176229262435;125.001992101117
315.197844574773;125.157687383543
315.219459887112;125.290001585911
315.241075199451;125.412522818329
315.262690511789;125.545600198737
315.284305824128;125.701127746653
315.305921136467;125.866454310696
315.327536448805;126.028336824633
315.349151761144;126.18730517213
315.370767073483;126.348592891078
315.392382385822;126.519901359487
315.41399769816;126.707355008572
315.435613010499;126.911429740025
315.457228322838;127.131057107394
315.478843635176;127.360784407917
315.500458947515;127.585434438545
315.522074259854;127.79939649481
315.543689572192;128.012924906247
315.565304884531;128.235529836534
315.58692019687;128.4802493199
315.608535509209;128.754865892961
315.630150821547;129.05368373828
315.651766133886;129.358393661633
315.673381446225;129.663019228007
315.694996758563;129.972315922686
315.716612070902;130.29042192909
315.738227383241;130.619235532376
315.759842695579;130.963059089985
315.781458007918;131.32511604034
315.803073320257;131.707098651032
315.824688632596;132.10086078399
315.846303944934;132.506077662829
315.867919257273;132.921811416317
315.889534569612;133.330103485327
315.91114988195;133.737192739512
315.932765194289;134.159001626212
315.954380506628;134.607230458991
315.975995818966;135.062769320082
315.997611131305;135.500075668969
316.019226443644;135.922185180068
316.040841755983;136.324097828744
316.062457068321;136.702195018904
316.08407238066;137.05862644996
316.105687692999;137.407774089552
316.127303005337;137.762677159068
316.148918317676;138.12553439283
316.170533630015;138.475120367075
316.192148942353;138.807896284426
316.213764254692;139.135736665413
316.235379567031;139.464341437005
316.25699487937;139.791972417804
316.278610191708;140.118461397937
316.300225504047;140.43934920236
316.321840816386;140.744390121841
316.343456128724;141.02981971739
316.365071441063;141.304814535681
316.386686753402;141.569907081229
316.40830206574;141.812223441818
316.429917378079;142.019085274282
316.451532690418;142.188885018743
316.473148002757;142.323553634254
316.494763315095;142.417718119394
316.516378627434;142.464453358885
316.537993939773;142.465892134426
316.559609252111;142.428273400367
316.58122456445;142.352675871738
316.602839876789;142.240426997165
316.624455189127;142.093365686027
316.646070501466;141.925319057109
316.667685813805;141.76081510865
316.689301126144;141.61673478293
316.710916438482;141.496764316225
316.732531750821;141.398295014874
316.75414706316;141.319746699951
316.775762375498;141.263002956044
316.797377687837;141.227453032254
316.818993000176;141.210572945073
316.840608312514;141.210268160883
316.862223624853;141.222108383854
316.883838937192;141.234116945106
316.905454249531;141.234444149086
316.927069561869;141.217954520071
316.948684874208;141.190159032472
316.970300186547;141.158912342942
316.991915498885;141.122409998183
317.013530811224;141.077246631035
317.035146123563;141.027038335848
317.056761435901;140.980927874588
317.07837674824;140.947270945306
317.099992060579;140.934422523178
317.121607372918;140.945756610657
317.143222685256;140.978177085933
317.164837997595;141.035445903627
317.186453309934;141.117910245926
317.208068622272;141.215496700086
317.229683934611;141.324061725556
317.25129924695;141.445643044958
317.272914559288;141.574273296255
317.294529871627;141.700163200757
317.316145183966;141.821169084531
317.337760496305;141.944576665712
317.359375808643;142.073881292969
317.380991120982;142.207211067779
317.402606433321;142.348579670552
317.424221745659;142.509753115517
317.445837057998;142.683789105793
317.467452370337;142.854598891574
317.489067682675;143.035820933348
317.510682995014;143.234811798419
317.532298307353;143.448096064748
317.553913619692;143.672178149326
317.57552893203;143.903573266662
317.597144244369;144.133362183501
317.618759556708;144.353774576804
317.640374869046;144.561964906661
317.661990181385;144.754467782943
317.683605493724;144.926111611105
317.705220806062;145.070608283192
317.726836118401;145.184722425413
317.74845143074;145.277917380269
317.770066743079;145.353326454968
317.791682055417;145.408488296054
317.813297367756;145.444452691453
317.834912680095;145.465109094465
317.856527992433;145.476692273352
317.878143304772;145.49134396471
317.899758617111;145.522122100153
317.921373929449;145.577097074734
317.942989241788;145.657956038918
317.964604554127;145.762659786729
317.986219866466;145.885879633876
318.007835178804;146.026415175518
318.029450491143;146.187227177669
318.051065803482;146.365663774663
318.07268111582;146.550324721081
318.094296428159;146.731293925723
318.115911740498;146.905089788877
318.137527052837;147.067779277653
318.159142365175;147.215196163807
318.180757677514;147.35082911714
318.202372989853;147.479803358826
318.223988302191;147.588969008502
318.24560361453;147.662682925011
318.267218926869;147.695510860887
318.288834239207;147.685290308069
318.310449551546;147.624249664466
318.332064863885;147.496850902373
318.353680176224;147.291169593079
318.375295488562;147.010185746471
318.396910800901;146.658551291208
318.41852611324;146.248085274468
318.440141425578;145.788193676722
318.461756737917;145.286183073889
318.483372050256;144.760661512727
318.504987362594;144.236045717396
318.526602674933;143.707051841607
318.548217987272;143.165013065541
318.56983329961;142.635743884018
318.591448611949;142.145201780585
318.613063924288;141.699331475661
318.634679236627;141.291885365846
318.656294548965;140.921206465178
318.677909861304;140.5802308158
318.699525173643;140.24989716133
318.721140485981;139.924106460392
318.74275579832;139.602883237848
318.764371110659;139.27537607399
318.785986422998;138.920585745771
318.807601735336;138.53646984838
318.829217047675;138.122691811152
318.850832360014;137.66552972259
318.872447672352;137.154105102196
318.894062984691;136.605431496908
318.91567829703;136.013698175941
318.937293609368;135.361280037132
318.958908921707;134.651732027147
318.980524234046;133.899328283105
319.002139546385;133.120675060143
319.023754858723;132.317668183646
319.045370171062;131.489396752924
319.066985483401;130.662561675472
319.088600795739;129.855990470641
319.110216108078;129.0557279809
319.131831420417;128.248534233576
319.153446732755;127.469060651283
319.175062045094;126.736329671359
319.196677357433;126.040362770967
319.218292669772;125.387422036703
319.23990798211;124.776328346516
319.261523294449;124.184985908625
319.283138606788;123.612715267156
319.304753919126;123.061902916506
319.326369231465;122.525661052705
319.347984543804;122.013844449092
319.369599856142;121.536850394798
319.391215168481;121.087573297841
319.41283048082;120.657481184482
319.434445793158;120.251520151756
319.456061105497;119.869338176995
319.477676417836;119.502816041492
319.499291730175;119.14652375489
319.520907042513;118.799159214416
319.542522354852;118.455299428392
319.564137667191;118.109782749534
319.585752979529;117.76095031424
319.607368291868;117.403407860962
319.628983604207;117.040858330131
319.650598916546;116.686632849492
319.672214228884;116.343422899013
319.693829541223;116.008239237831
319.715444853562;115.669943935468
319.7370601659;115.320054098035
319.758675478239;114.9526017774
319.780290790578;114.573024717849
319.801906102916;114.181585576132
319.823521415255;113.753102481382
319.845136727594;113.292960132033
319.866752039933;112.826799542604
319.888367352271;112.354989713507
319.90998266461;111.870875181267
319.931597976949;111.371585679901
319.953213289287;110.863038091894
319.974828601626;110.359429525226
319.996443913965;109.853437672763
320.018059226303;109.355319984783
320.039674538642;108.864920532472
320.061289850981;108.379206465066
320.08290516332;107.897146160781
320.104520475658;107.416325301165
320.126135787997;106.950503091132
320.147751100336;106.516056492984
320.169366412674;106.114389867212
320.190981725013;105.755406772786
320.212597037352;105.445791799413
320.23421234969;105.178633991974
320.255827662029;104.934242287343
320.277442974368;104.707932359921
320.299058286707;104.513038144406
320.320673599045;104.36036007273
320.342288911384;104.238303141368
320.363904223723;104.127360466865
320.385519536061;104.008967569567
320.4071348484;103.857804712943
320.428750160739;103.64073092902
320.450365473077;103.355663273421
320.471980785416;103.011393296714
320.493596097755;102.596461516089
320.515211410094;102.089343792554
320.536826722432;101.462405333779
320.558442034771;100.708371445297
320.58005734711;99.8435924497315
320.601672659448;98.8947794991283
320.623287971787;97.9052997726112
320.644903284126;96.8638603798047
320.666518596464;95.7485991379591
320.688133908803;94.6127044051605
320.709749221142;93.5293523082725
320.731364533481;92.5172293756964
320.752979845819;91.5733270320788
320.774595158158;90.6996177399815
320.796210470497;89.8963345166959
320.817825782835;89.1557238564536
320.839441095174;88.4724931780197
320.861056407513;87.8465674607488
320.882671719851;87.2676429754015
320.90428703219;86.7471035739047
320.925902344529;86.2895441472295
320.947517656868;85.8659721091492
320.969132969206;85.4415205622071
320.990748281545;85.0083521294434
321.012363593884;84.5748509032408
321.033978906222;84.1277876390886
321.055594218561;83.641984431842
321.0772095309;83.1100002467346
321.098824843238;82.5224635507449
321.120440155577;81.8606323406244
321.142055467916;81.1166538071364
321.163670780255;80.3002362173174
321.185286092593;79.4261483593681
321.206901404932;78.5262734925366
321.228516717271;77.6179209886554
321.250132029609;76.6804779196799
321.271747341948;75.6891916907265
321.293362654287;74.6525224782317
321.314977966625;73.6123025520167
321.336593278964;72.5860767339758
321.358208591303;71.5646439610016
321.379823903642;70.5623513069897
321.40143921598;69.6317144402819
321.423054528319;68.808120043492
321.444669840658;68.0733365400579
321.466285152996;67.405434606964
321.487900465335;66.7980845080522
321.509515777674;66.2594946080941
321.531131090012;65.7993438354979
321.552746402351;65.4140900616197
321.57436171469;65.1014168625989
321.595977027029;64.8584489337777
321.617592339367;64.6730150733473
321.639207651706;64.5359663834724
321.660822964045;64.4432529940501
321.682438276383;64.3920422147509
321.704053588722;64.3661594493141
321.725668901061;64.3501208513002
321.747284213399;64.3370239192135
321.768899525738;64.3263225201857
321.790514838077;64.313730281041
321.812130150416;64.2868742741608
321.833745462754;64.2379173361234
321.855360775093;64.1647559443454
321.876976087432;64.0688031266666
321.89859139977;63.9570097665124
321.920206712109;63.8453035485177
321.941822024448;63.7388999820603
321.963437336786;63.6380777997578
321.985052649125;63.5438932263403
322.006667961464;63.4631162799051
322.028283273803;63.3999685295958
322.049898586141;63.3524478489228
322.07151389848;63.315542610934
322.093129210819;63.2811648725831
322.114744523157;63.2454452306673
322.136359835496;63.2077115432546
322.157975147835;63.1702695788299
322.179590460173;63.1339487793752
322.201205772512;63.1024300655301
322.222821084851;63.0846533354731
322.24443639719;63.0856617159561
322.266051709528;63.1067747850132
322.287667021867;63.1473779265133
322.309282334206;63.2086874261051
322.330897646544;63.2906325740855
322.352512958883;63.3903388124744
322.374128271222;63.5026883055607
322.39574358356;63.6223478966601
322.417358895899;63.7443747179482
322.438974208238;63.8579378563124
322.460589520577;63.9463614840359
322.482204832915;63.9933050619824
322.503820145254;63.9989142413878
322.525435457593;63.9711669931585
322.547050769931;63.9139263359217
322.56866608227;63.8279332460851
322.590281394609;63.7202198065509
322.611896706947;63.60057002763
322.633512019286;63.4754704569536
322.655127331625;63.3493909638413
322.676742643964;63.2297842812509
322.698357956302;63.1200025148641
322.719973268641;63.0206591306762
322.74158858098;62.9360450154866
322.763203893318;62.8700740330273
322.784819205657;62.8236881041677
322.806434517996;62.7939226567753
322.828049830334;62.7767087097758
322.849665142673;62.7747978349224
322.871280455012;62.7947664132209
322.892895767351;62.8465970414553
322.914511079689;62.9384352423695
322.936126392028;63.0665184357608
322.957741704367;63.235507012454
322.979357016705;63.4561282986337
323.000972329044;63.7341850372253
323.022587641383;64.0663498915898
323.044202953721;64.4519359313746
323.06581826606;64.903820269402
323.087433578399;65.4450268359427
323.109048890738;66.0261248316572
323.130664203076;66.5977661472724
323.152279515415;67.1361355753262
323.173894827754;67.6565248278669
323.195510140092;68.1848062180514
323.217125452431;68.7353656550242
323.23874076477;69.298035051209
323.260356077108;69.8551138519455
323.281971389447;70.3909088921607
323.303586701786;70.8952756671291
323.325202014125;71.3729432027507
323.346817326463;71.824066441527
323.368432638802;72.2442037881334
323.390047951141;72.6171216688256
323.411663263479;72.914435564642
323.433278575818;73.1405838729729
323.454893888157;73.3075699590369
323.476509200495;73.4258543774006
323.498124512834;73.4993896798904
323.519739825173;73.5301892498478
323.541355137512;73.5268185338721
323.56297044985;73.5063407582712
323.584585762189;73.482861887691
323.606201074528;73.4638309475376
323.627816386866;73.4473234590256
323.649431699205;73.4392463246955
323.671047011544;73.4446947090956
323.692662323882;73.4675842456801
323.714277636221;73.501220205212
323.73589294856;73.534887159208
323.757508260899;73.5628748090189
323.779123573237;73.5796698178979
323.800738885576;73.5721194536754
323.822354197915;73.5321466312406
323.843969510253;73.4689439838656
323.865584822592;73.3902834559627
323.887200134931;73.2916132880244
323.908815447269;73.1681954293735
323.930430759608;73.0163236100186
323.952046071947;72.8301131632206
323.973661384286;72.6108256177879
323.995276696624;72.3762855228476
324.016892008963;72.1387149175668
324.038507321302;71.8990537800177
324.06012263364;71.6589541495073
324.081737945979;71.4238486250847
324.103353258318;71.1985132258515
324.124968570657;70.9890123310067
324.146583882995;70.812713882737
324.168199195334;70.674016969425
324.189814507673;70.5648880736947
324.211429820011;70.4760021889756
324.23304513235;70.4080603755609
324.254660444689;70.3596482754771
324.276275757027;70.3110568445706
324.297891069366;70.2471472228268
324.319506381705;70.1533518091897
324.341121694043;70.0146264095064
324.362737006382;69.820596311239
324.384352318721;69.5633650547453
324.40596763106;69.2352223173217
324.427582943398;68.8259936292445
324.449198255737;68.3297837612947
324.470813568076;67.7464033001866
324.492428880414;67.0940084390284
324.514044192753;66.4145370945016
324.535659505092;65.7137551798657
324.55727481743;64.9408453198718
324.578890129769;64.0874189094858
324.600505442108;63.1825349900548
324.622120754447;62.2492936229149
324.643736066785;61.2930859982044
324.665351379124;60.3109097460273
324.686966691463;59.3276016556693
324.708582003801;58.3694091549336
324.73019731614;57.4391124035596
324.751812628479;56.5197857224268
