Name;BF_ESR_01_90s_Y_gon_160dg_result

Recipe
Accumulations;5;Number of accumulations
RetryCount;0;Number of retries on error
AbortOnError;True;Abort on error
EnableQFactorMeasurement;False;Enable/Disable q-Factor measurement
Bfrom;313;B from
Bto;363;B to
SweepTime;60;Sweep time
Modulation;0.2;Modulation
ModulationFreq;100;Modulation
BHoldEnabled;False;B hold enabled
BHold;0;B hold
MicrowavePower;2;Microwave power
MarkerEnabled;False;
MarkerStartField;0;
MarkerEndField;0;
Mode;;
KineticGFact;0;
KineticTotalTransientTime;0;
KineticTimeResolution;0;
TempFrom;5;
TempUseSlope;False;
TempTo;5;
TempdT;1;
TempSetupTime;0;
GonFrom;0;
GonTo;180;
GonSteps;20;
XRayEnabled;False;
XRayTime;3;
XRayVoltage;40;
XRayCurrent;0.5;
UVEnabled;False;
UVIntensity;0;
UVTime;0;
UVLeadTime;0;
UVWavelength;0;
PowSweepFrom;1;
PowSweepTo;5;
PowSweepSteps;5;
AmpModSweepFrom;0;
AmpModSweepTo;1;
AmpModSweepSteps;10;
ExtTriggerEnabled;False;
ExtTrigLeadTime;0;
ExtTrigOnTime;5;

Meas
BField [mT];MW_Absorption []
313.013545303345;64.6265417965579
313.035150064088;64.415208775591
313.056754824832;64.1459507677789
313.078359585575;63.8466956541495
313.099964346319;63.5159657803316
313.121569107062;63.1385802188448
313.143173867806;62.7210033203523
313.164778628549;62.2723005085126
313.186383389293;61.7907199970551
313.207988150036;61.2902247650783
313.22959291078;60.7964751380771
313.251197671523;60.3153192745489
313.272802432267;59.841267931206
313.29440719301;59.3839009961758
313.316011953754;58.9487175632324
313.337616714497;58.5466690434228
313.359221475241;58.1995129782777
313.380826235984;57.9063600740785
313.402430996728;57.6585288762227
313.424035757471;57.4579707563974
313.445640518215;57.3082622331509
313.467245278958;57.2103278889162
313.488850039702;57.1581145215279
313.510454800445;57.1516845586185
313.532059561189;57.1929393446116
313.553664321932;57.2782025117583
313.575269082676;57.4027987909888
313.596873843419;57.5665114871805
313.618478604163;57.7698601502834
313.640083364906;58.0129944885274
313.66168812565;58.2701765070903
313.683292886393;58.517886992717
313.704897647137;58.7478172044063
313.726502407881;58.949954589836
313.748107168624;59.1176178093945
313.769711929367;59.2472837335378
313.791316690111;59.3324307825827
313.812921450855;59.3685050366911
313.834526211598;59.3633494758013
313.856130972342;59.3265063126679
313.877735733085;59.2736195476902
313.899340493829;59.2044195996346
313.920945254572;59.1172608448628
313.942550015316;59.016813274609
313.964154776059;58.9131797182492
313.985759536803;58.81265612543
314.007364297546;58.7146458182201
314.02896905829;58.6328855857821
314.050573819033;58.5707226310463
314.072178579777;58.5124932937569
314.09378334052;58.4458268135013
314.115388101264;58.3708241051185
314.136992862007;58.2867362441871
314.158597622751;58.1912979556546
314.180202383494;58.0841376740062
314.201807144238;57.9680122903731
314.223411904981;57.8408704067073
314.245016665725;57.68585655311
314.266621426468;57.5140595015233
314.288226187212;57.3528114971431
314.309830947955;57.2007767256612
314.331435708699;57.0602169264737
314.353040469442;56.9485945209147
314.374645230186;56.8660690266847
314.396249990929;56.8165154034744
314.417854751673;56.793061169766
314.439459512416;56.7902488971554
314.46106427316;56.8033935611506
314.482669033903;56.8246414125228
314.504273794647;56.8529107871786
314.52587855539;56.8813209115538
314.547483316134;56.8995589935146
314.569088076877;56.9026334394618
314.590692837621;56.886780904396
314.612297598364;56.8451462669454
314.633902359108;56.78359081037
314.655507119851;56.7178325662701
314.677111880595;56.6563742291044
314.698716641338;56.6010777772791
314.720321402082;56.5466337958448
314.741926162825;56.4906686709186
314.763530923569;56.4412749381776
314.785135684312;56.4041499977693
314.806740445056;56.3765678718371
314.828345205799;56.3436474623268
314.849949966543;56.30313402321
314.871554727286;56.2522673899668
314.89315948803;56.1852193671332
314.914764248773;56.0958239066926
314.936369009517;55.9727029342514
314.95797377026;55.8063168192488
314.979578531004;55.5915453014462
315.001183291747;55.3335640226572
315.022788052491;55.0690915134913
315.044392813234;54.810688338669
315.065997573978;54.5491675384965
315.087602334721;54.2765994096123
315.109207095465;54.0029356914222
315.130811856208;53.7538269083563
315.152416616952;53.5449957745511
315.174021377695;53.3770888497514
315.195626138439;53.2501452959789
315.217230899182;53.1709434991562
315.238835659926;53.1449413305629
315.260440420669;53.173929004527
315.282045181413;53.2599610632253
315.303649942156;53.4052491762377
315.3252547029;53.5908974470501
315.346859463644;53.7993807266408
315.368464224387;54.0289219040593
315.39006898513;54.2827941148465
315.411673745874;54.5555571117795
315.433278506618;54.8228659077721
315.454883267361;55.0665922014985
315.476488028105;55.2912258296933
315.498092788848;55.4939069898885
315.519697549592;55.6717791792805
315.541302310335;55.8141670986285
315.562907071079;55.9182874236021
315.584511831822;55.9846897744595
315.606116592566;56.0133469190485
315.627721353309;56.0009228547581
315.649326114053;55.9467303229787
315.670930874796;55.850526987374
315.69253563554;55.715058033448
315.714140396283;55.5460693827403
315.735745157027;55.3547827478517
315.75734991777;55.1530412928414
315.778954678514;54.9495917990586
315.800559439257;54.7489893326059
315.822164200001;54.5525065113534
315.843768960744;54.3589958600201
315.865373721488;54.1803752390963
315.886978482231;54.0541594420944
315.908583242975;53.9960478800342
315.930188003718;53.9974374733806
315.951792764462;54.0577558943227
315.973397525205;54.1750908589666
315.995002285949;54.3367549768134
316.016607046692;54.5356233178868
316.038211807436;54.7763926526169
316.059816568179;55.0674899082804
316.081421328923;55.3836408811154
316.103026089666;55.6844341698854
316.12463085041;55.9695745453252
316.146235611153;56.2371197139609
316.167840371897;56.483002196736
316.18944513264;56.7160399708953
316.211049893384;56.9408731158576
316.232654654127;57.1431517877509
316.254259414871;57.3176483914565
316.275864175614;57.4714831874175
316.297468936358;57.6073636383574
316.319073697101;57.7228660053709
316.340678457845;57.8187503446327
316.362283218588;57.9005135828828
316.383887979332;57.9634152344426
316.405492740075;57.994140927809
316.427097500819;57.9882066973435
316.448702261562;57.9512942140191
316.470307022306;57.8812591575328
316.491911783049;57.7718353459614
316.513516543793;57.6186368821574
316.535121304536;57.4263892633454
316.55672606528;57.2032140215692
316.578330826023;56.9633645799788
316.599935586767;56.715076847477
316.62154034751;56.4619487707033
316.643145108254;56.2081044405005
316.664749868997;55.9578400104548
316.686354629741;55.7140255387103
316.707959390484;55.4883442644734
316.729564151228;55.2935240090233
316.751168911971;55.128878715101
316.772773672715;54.9834009094659
316.794378433458;54.8520205560131
316.815983194202;54.7351705768651
316.837587954945;54.634700911798
316.859192715689;54.5459881679271
316.880797476432;54.4647651412098
316.902402237176;54.3935578614496
316.924006997919;54.3251334735938
316.945611758663;54.2445463321216
316.967216519407;54.1420332431093
316.98882128015;54.0121469052055
317.010426040894;53.8484829014748
317.032030801637;53.6443685707676
317.053635562381;53.4076792350745
317.075240323124;53.1504505732502
317.096845083868;52.8640941017751
317.118449844611;52.5347838449055
317.140054605355;52.1802768871847
317.161659366098;51.8359638017313
317.183264126842;51.5134718943622
317.204868887585;51.2115359631602
317.226473648329;50.9278028382092
317.248078409072;50.6690158778465
317.269683169816;50.4571442625975
317.291287930559;50.305176504849
317.312892691303;50.2125952110462
317.334497452046;50.1735315637604
317.35610221279;50.1919748995262
317.377706973533;50.2640537633181
317.399311734277;50.3796076306553
317.42091649502;50.5320954366037
317.442521255764;50.7203948029438
317.464126016507;50.9466623848654
317.485730777251;51.1909858949297
317.507335537994;51.4220547300391
317.528940298738;51.6350315074926
317.550545059481;51.8253885036666
317.572149820225;51.9752805734953
317.593754580968;52.0803779632962
317.615359341712;52.1454268953274
317.636964102455;52.171753789702
317.658568863199;52.1493899308347
317.680173623942;52.076934981805
317.701778384686;51.9685704358749
317.723383145429;51.8445176939584
317.744987906173;51.7161969955288
317.766592666916;51.5965488451627
317.78819742766;51.4955190005396
317.809802188403;51.4150861390423
317.831406949147;51.3577936867721
317.85301170989;51.3270298338837
317.874616470634;51.3257691646899
317.896221231377;51.3475172587968
317.917825992121;51.377979780984
317.939430752864;51.4151426369471
317.961035513608;51.4535953514957
317.982640274351;51.4816624490878
318.004245035095;51.4867506547843
318.025849795838;51.4604130773102
318.047454556582;51.3990517360513
318.069059317325;51.3013573382376
318.090664078069;51.1685920909607
318.112268838812;51.0104795550639
318.133873599556;50.8377165683764
318.155478360299;50.6555906992824
318.177083121043;50.4711306864299
318.198687881786;50.2900679538603
318.22029264253;50.1140328347762
318.241897403273;49.9440186018727
318.263502164017;49.7818767475534
318.28510692476;49.6325837832455
318.306711685504;49.5048285431351
318.328316446247;49.3952166569629
318.349921206991;49.2967112469265
318.371525967734;49.2077915458922
318.393130728478;49.1239528184298
318.414735489221;49.0418492632693
318.436340249965;48.9546559826238
318.457945010709;48.8591367158564
318.479549771452;48.761796349141
318.501154532196;48.6648370211762
318.522759292939;48.5520544656388
318.544364053683;48.4135125656493
318.565968814426;48.2542582893518
318.58757357517;48.0789096259326
318.609178335913;47.8885151074127
318.630783096657;47.6850991013498
318.6523878574;47.4712904980929
318.673992618144;47.2441095017337
318.695597378887;47.0072295945835
318.717202139631;46.7659293320093
318.738806900374;46.5189422825012
318.760411661118;46.262388680774
318.782016421861;46.0107124087901
318.803621182605;45.7853301269796
318.825225943348;45.5991945093322
318.846830704092;45.4473901059433
318.868435464835;45.3195411706721
318.890040225579;45.2082057938183
318.911644986322;45.1131424666767
318.933249747066;45.0432207337493
318.954854507809;45.0010915430124
318.976459268553;44.9858461939663
318.998064029296;44.9934230341112
319.01966879004;45.0166281529959
319.041273550783;45.0627759578597
319.062878311527;45.1358319628869
319.08448307227;45.2299203532839
319.106087833014;45.3393309923987
319.127692593757;45.4655745806368
319.149297354501;45.6054889166122
319.170902115244;45.7489883011864
319.192506875988;45.8875167020233
319.214111636731;46.0153917613935
319.235716397475;46.1279754913225
319.257321158218;46.2108739904959
319.278925918962;46.2542997922049
319.300530679705;46.2581344377079
319.322135440449;46.2210122388991
319.343740201192;46.1451314846551
319.365344961936;46.0322331698705
319.386949722679;45.892275359949
319.408554483423;45.7456059383246
319.430159244166;45.6034295875848
319.45176400491;45.4701844819511
319.473368765653;45.3481117485224
319.494973526397;45.2395675405877
319.51657828714;45.1521404609165
319.538183047884;45.0927196789067
319.559787808627;45.0552152443535
319.581392569371;45.0289335254346
319.602997330114;45.0077229323286
319.624602090858;44.9893486856627
319.646206851601;44.9690250780668
319.667811612345;44.9435333780445
319.689416373088;44.9085992648022
319.711021133832;44.8539458226269
319.732625894575;44.7785522368207
319.754230655319;44.6964621058083
319.775835416062;44.6241623314167
319.797440176806;44.5755734506934
319.819044937549;44.5537306622413
319.840649698293;44.5616188540398
319.862254459036;44.6006297786757
319.88385921978;44.6622921239076
319.905463980523;44.7358286524985
319.927068741267;44.8164481114999
319.94867350201;44.9039109168767
319.970278262754;44.9964964967223
319.991883023497;45.0750772248712
320.013487784241;45.1146561675455
320.035092544984;45.1063920151077
320.056697305728;45.0479977072887
320.078302066472;44.9326742327491
320.099906827215;44.7659911098743
320.121511587959;44.5584631074455
320.143116348702;44.3171880158945
320.164721109446;44.0429375106533
320.186325870189;43.7396317705411
320.207930630933;43.4171625020735
320.229535391676;43.0888650310139
320.25114015242;42.7620818796591
320.272744913163;42.4389505162261
320.294349673907;42.1223809447796
320.31595443465;41.8213513344465
320.337559195394;41.5428321883679
320.359163956137;41.2830598699873
320.380768716881;41.0394471658502
320.402373477624;40.8160398384105
320.423978238368;40.6142281231164
320.445582999111;40.4322052693116
320.467187759855;40.2810509571229
320.488792520598;40.185153245583
320.510397281342;40.1480211173623
320.532002042085;40.161047351947
320.553606802829;40.2184245185924
320.575211563572;40.316250604011
320.596816324316;40.4522032158963
320.618421085059;40.6212120279615
320.640025845803;40.8083061424345
320.661630606546;41.0025919875189
320.68323536729;41.2020434072897
320.704840128033;41.4002139276477
320.726444888777;41.5899925981984
320.74804964952;41.7719587643211
320.769654410264;41.9585310417822
320.791259171007;42.1635730607238
320.812863931751;42.3808279498296
320.834468692494;42.5971623808267
320.856073453238;42.819160772732
320.877678213981;43.0525102587649
320.899282974725;43.2903671765749
320.920887735468;43.5205581656903
320.942492496212;43.7378212459065
320.964097256955;43.9447779470577
320.985702017699;44.1450692390099
321.007306778442;44.3439859602261
321.028911539186;44.5427939867593
321.050516299929;44.7372577116807
321.072121060673;44.9252898704913
321.093725821416;45.1092211398513
321.11533058216;45.2970538075899
321.136935342903;45.4931020279084
321.158540103647;45.696822082706
321.18014486439;45.90951496513
321.201749625134;46.1336686744164
321.223354385877;46.3755585158322
321.244959146621;46.6318529363209
321.266563907364;46.8848108318789
321.288168668108;47.1157835830391
321.309773428851;47.303396206129
321.331378189595;47.4300086453287
321.352982950338;47.487092944966
321.374587711082;47.4597084233248
321.396192471825;47.3349120006515
321.417797232569;47.1071931107289
321.439401993312;46.7685331666356
321.461006754056;46.3147206380515
321.482611514799;45.7548075309561
321.504216275543;45.1007513286168
321.525821036286;44.3745187668582
321.54742579703;43.6102844559971
321.569030557773;42.84113142475
321.590635318517;42.1020001712376
321.612240079261;41.4513778140271
321.633844840004;40.8851501945135
321.655449600747;40.3914788116592
321.677054361491;39.9860705754838
321.698659122235;39.6951716241106
321.720263882978;39.4984356192939
321.741868643722;39.3605604680259
321.763473404465;39.2632335904991
321.785078165209;39.192161597904
321.806682925952;39.1317491531881
321.828287686696;39.0620438692664
321.849892447439;38.9695007928368
321.871497208183;38.8471281048904
321.893101968926;38.6904435654898
321.91470672967;38.4971894597886
321.936311490413;38.2716809232056
321.957916251157;38.0207074262058
321.9795210119;37.7483255542056
322.001125772644;37.4486160447293
322.022730533387;37.1194539395164
322.044335294131;36.7748787098247
322.065940054874;36.4257704965171
322.087544815618;36.0769932485468
322.109149576361;35.7370506527096
322.130754337105;35.4139882840979
322.152359097848;35.1200986037286
322.173963858592;34.8598061253147
322.195568619335;34.6325926053422
322.217173380079;34.4374702828617
322.238778140822;34.2812588657175
322.260382901566;34.1778166647041
322.281987662309;34.1349432158174
322.303592423053;34.13661687373
322.325197183796;34.1889412768096
322.34680194454;34.2950562986545
322.368406705283;34.4577001474987
322.390011466027;34.6760323311344
322.41161622677;34.9536585629684
322.433220987514;35.2795302029521
322.454825748257;35.6210799368848
322.476430509001;35.9726362992421
322.498035269744;36.3493480278856
322.519640030488;36.7479126704841
322.541244791231;37.1476374857556
322.562849551975;37.5465429001064
322.584454312718;37.9492687789642
322.606059073462;38.3542231855746
322.627663834205;38.7548762147732
322.649268594949;39.1409840481346
322.670873355692;39.5026522766112
322.692478116436;39.841821041755
322.714082877179;40.1634559190935
322.735687637923;40.4769866683604
322.757292398666;40.7875558237371
322.77889715941;41.0846901816273
322.800501920153;41.3650868384876
322.822106680897;41.6322700877695
322.84371144164;41.8852789997367
322.865316202384;42.1127306359153
322.886920963127;42.2949041344796
322.908525723871;42.4180534685975
322.930130484614;42.4826274774083
322.951735245358;42.4956505423676
322.973340006101;42.4514608761404
322.994944766845;42.3386749232029
323.016549527588;42.1510742140669
323.038154288332;41.9063390000672
323.059759049075;41.6183074708416
323.081363809819;41.2772701129234
323.102968570562;40.8899749623383
323.124573331306;40.4732119312588
323.146178092049;40.041796134465
323.167782852793;39.6040777886149
323.189387613537;39.1606292136594
323.21099237428;38.7225989735322
323.232597135024;38.3122716717496
323.254201895767;37.9469609758105
323.275806656511;37.6242028442024
323.297411417254;37.3390631037761
323.319016177998;37.0923330095274
323.340620938741;36.8732829531038
323.362225699485;36.6770173843482
323.383830460228;36.4926904184361
323.405435220972;36.3101287447542
323.427039981715;36.1278813271035
323.448644742459;35.9460200924779
323.470249503202;35.758439981226
323.491854263946;35.5530393640352
323.513459024689;35.3203946293341
323.535063785433;35.0680128859087
323.556668546176;34.8154875040404
323.57827330692;34.5705619539546
323.599878067663;34.3301023087456
323.621482828407;34.0996614068034
323.64308758915;33.8989409019393
323.664692349894;33.7296340468533
323.686297110637;33.590236960259
323.707901871381;33.5011520041917
323.729506632124;33.4710732590106
323.751111392868;33.498623818546
323.772716153611;33.567279123314
323.794320914355;33.6520005032448
323.815925675098;33.7514419117975
323.837530435842;33.8637532521006
323.859135196585;33.9742209205304
323.880739957329;34.0821265600397
323.902344718072;34.1861027331971
323.923949478816;34.2763526712911
323.945554239559;34.3531841356116
323.967159000303;34.4191334011922
323.988763761046;34.4698225875369
324.01036852179;34.5103524348776
324.031973282533;34.555611525648
324.053578043277;34.6174262448053
324.07518280402;34.6997094196995
324.096787564764;34.7926147518071
324.118392325507;34.8860796952451
324.139997086251;34.9830465708821
324.161601846994;35.0956566290124
324.183206607738;35.2290793534896
324.204811368481;35.3610654678173
324.226416129225;35.4781760345032
324.248020889968;35.5772381670659
324.269625650712;35.6568654151671
324.291230411455;35.714973597964
324.312835172199;35.7524669338535
324.334439932942;35.7683670219098
324.356044693686;35.7710357899581
324.377649454429;35.7689996997403
324.399254215173;35.7638243674305
324.420858975916;35.7608092676038
324.44246373666;35.7773902494036
324.464068497403;35.8225105166622
324.485673258147;35.9017286566573
324.50727801889;36.0097220282818
324.528882779634;36.1459296883876
324.550487540377;36.3101626291284
324.572092301121;36.5036439822302
324.593697061864;36.7249350001647
324.615301822608;36.957845003429
324.636906583351;37.1970900718471
324.658511344095;37.4450167519127
324.680116104838;37.7005537686133
324.701720865582;37.9611761716461
324.723325626326;38.2302837563652
324.744930387069;38.5199624942473
