Name;BF_ESR_01_7202s_X_gon_80dg_result

Recipe
Accumulations;5;Number of accumulations
RetryCount;0;Number of retries on error
AbortOnError;True;Abort on error
EnableQFactorMeasurement;False;Enable/Disable q-Factor measurement
Bfrom;313;B from
Bto;363;B to
SweepTime;60;Sweep time
Modulation;0.2;Modulation
ModulationFreq;100;Modulation
BHoldEnabled;False;B hold enabled
BHold;0;B hold
MicrowavePower;2;Microwave power
MarkerEnabled;False;
MarkerStartField;0;
MarkerEndField;0;
Mode;;
KineticGFact;0;
KineticTotalTransientTime;0;
KineticTimeResolution;0;
TempFrom;5;
TempUseSlope;False;
TempTo;5;
TempdT;1;
TempSetupTime;0;
GonFrom;0;
GonTo;180;
GonSteps;20;
XRayEnabled;False;
XRayTime;3;
XRayVoltage;40;
XRayCurrent;0.5;
UVEnabled;False;
UVIntensity;0;
UVTime;0;
UVLeadTime;0;
UVWavelength;0;
PowSweepFrom;1;
PowSweepTo;5;
PowSweepSteps;5;
AmpModSweepFrom;0;
AmpModSweepTo;1;
AmpModSweepSteps;10;
ExtTriggerEnabled;False;
ExtTrigLeadTime;0;
ExtTrigOnTime;5;

Meas
BField [mT];MW_Absorption []
313.028490982056;144.858908862594
313.050094758829;144.817278659709
313.071698535602;144.863461247467
313.093302312376;144.975761209829
313.114906089149;145.141413166173
313.136509865923;145.35392720829
313.158113642696;145.608451430289
313.179717419469;145.893249110781
313.201321196243;146.193462837683
313.222924973016;146.497311096394
313.244528749789;146.794447531418
313.266132526563;147.078359585928
313.287736303336;147.3523720473
313.309340080109;147.622392545202
313.330943856883;147.885593433844
313.352547633656;148.141888338491
313.37415141043;148.399865129393
313.395755187203;148.672628103543
313.417358963976;148.966984467753
313.43896274075;149.266524940781
313.460566517523;149.55589987806
313.482170294296;149.845694655677
313.50377407107;150.135487010246
313.525377847843;150.416067192136
313.546981624616;150.680892048108
313.56858540139;150.941176035887
313.590189178163;151.199107474574
313.611792954937;151.443074878776
313.63339673171;151.660910440081
313.655000508483;151.85017059473
313.676604285257;152.012491859579
313.69820806203;152.139044888572
313.719811838803;152.223572411766
313.741415615577;152.270301608345
313.76301939235;152.28069882303
313.784623169124;152.255545873988
313.806226945897;152.201313782011
313.82783072267;152.126628462727
313.849434499444;152.032676695909
313.871038276217;151.910294356154
313.89264205299;151.77159736753
313.914245829764;151.638278229996
313.935849606537;151.51594119764
313.95745338331;151.414999963806
313.979057160084;151.346675047008
314.000660936857;151.308068449669
314.022264713631;151.291991431063
314.043868490404;151.299800412154
314.065472267177;151.337455856046
314.087076043951;151.409644169929
314.108679820724;151.515254457389
314.130283597497;151.649392927591
314.151887374271;151.808349927423
314.173491151044;151.984289187852
314.195094927817;152.170872108657
314.216698704591;152.363441808353
314.238302481364;152.558623900453
314.259906258138;152.759910393146
314.281510034911;152.969300518503
314.303113811684;153.175211907957
314.324717588458;153.366919317554
314.346321365231;153.558654458973
314.367925142004;153.776479815626
314.389528918778;154.042307215067
314.411132695551;154.327734615193
314.432736472325;154.59648220416
314.454340249098;154.851320548774
314.475944025871;155.111486569864
314.497547802645;155.380244591133
314.519151579418;155.643441965006
314.540755356191;155.89362259934
314.562359132965;156.126166280699
314.583962909738;156.335044063743
314.605566686511;156.503235100916
314.627170463285;156.620058111595
314.648774240058;156.700343811744
314.670378016832;156.757867369936
314.691981793605;156.787182031784
314.713585570378;156.769593324646
314.735189347152;156.697029430063
314.756793123925;156.581384699063
314.778396900698;156.436919325671
314.800000677472;156.266711419596
314.821604454245;156.078411779824
314.843208231018;155.884763603477
314.864812007792;155.695414720587
314.886415784565;155.518744640187
314.908019561339;155.360247195606
314.929623338112;155.223123560969
314.951227114885;155.125175933329
314.972830891659;155.087990168347
314.994434668432;155.109922414586
315.016038445205;155.183467451888
315.037642221979;155.316060793562
315.059245998752;155.503521349581
315.080849775526;155.726000245256
315.102453552299;155.962243060365
315.124057329072;156.196430438128
315.145661105846;156.421174196168
315.167264882619;156.63466679138
315.188868659392;156.835773459362
315.210472436166;157.020073607097
315.232076212939;157.179040181265
315.253679989712;157.285251492277
315.275283766486;157.324505829652
315.296887543259;157.298019407064
315.318491320033;157.225960970997
315.340095096806;157.116486340243
315.361698873579;156.96682789605
315.383302650353;156.782418802155
315.404906427126;156.567509617462
315.426510203899;156.32569100041
315.448113980673;156.058837303793
315.469717757446;155.767880394623
315.491321534219;155.448600861002
315.512925310993;155.094538854119
315.534529087766;154.734535323353
315.55613286454;154.390151729057
315.577736641313;154.056515171961
315.599340418086;153.720560757421
315.62094419486;153.382017037213
315.642547971633;153.04949726857
315.664151748406;152.721251732739
315.68575552518;152.396827587908
315.707359301953;152.082491008617
315.728963078727;151.782581006899
315.7505668555;151.493878327809
315.772170632273;151.218518720647
315.793774409047;150.964553187077
315.81537818582;150.731354244112
315.836981962593;150.520733619613
315.858585739367;150.337470835747
315.88018951614;150.184332264788
315.901793292913;150.062158262544
315.923397069687;149.964822485722
315.94500084646;149.886190604674
315.966604623234;149.8219398347
315.988208400007;149.768146950123
316.00981217678;149.722824512565
316.031415953554;149.684538172629
316.053019730327;149.649681190164
316.0746235071;149.611586098545
316.096227283874;149.564984449247
316.117831060647;149.509969404056
316.13943483742;149.454891410823
316.161038614194;149.401563295443
316.182642390967;149.343996765832
316.204246167741;149.291029673719
316.225849944514;149.256481533318
316.247453721287;149.253985217342
316.269057498061;149.286976122278
316.290661274834;149.343256470857
316.312265051607;149.412785751426
316.333868828381;149.494324963347
316.355472605154;149.586520298277
316.377076381928;149.68188502887
316.398680158701;149.767103705087
316.420283935474;149.833236831121
316.441887712248;149.880702016969
316.463491489021;149.909562229502
316.485095265794;149.910286400513
316.506699042568;149.874642951518
316.528302819341;149.808742149694
316.549906596114;149.722311920437
316.571510372888;149.6208330241
316.593114149661;149.512230566111
316.614717926435;149.412332187032
316.636321703208;149.329073180683
316.657925479981;149.264467812927
316.679529256755;149.220803582105
316.701133033528;149.202727329092
316.722736810301;149.210124008534
316.744340587075;149.243619227533
316.765944363848;149.305544778176
316.787548140621;149.399591211811
316.809151917395;149.527816603591
316.830755694168;149.682937509115
316.852359470942;149.848943705207
316.873963247715;150.020562170496
316.895567024488;150.202269562458
316.917170801262;150.398702960574
316.938774578035;150.594647872816
316.960378354808;150.771425351056
316.981982131582;150.925349593334
317.003585908355;151.057219641024
317.025189685129;151.157033943004
317.046793461902;151.215081526769
317.068397238675;151.234524056252
317.090001015449;151.23063618105
317.111604792222;151.2148491052
317.133208568995;151.182667074291
317.154812345769;151.134563879943
317.176416122542;151.080287006877
317.198019899315;151.029609715553
317.219623676089;150.986139642203
317.241227452862;150.946557599208
317.262831229636;150.912798959924
317.284435006409;150.882210056276
317.306038783182;150.847476946369
317.327642559956;150.803384607778
317.349246336729;150.75233659703
317.370850113502;150.703923530236
317.392453890276;150.664209000942
317.414057667049;150.622878577665
317.435661443822;150.570129022431
317.457265220596;150.49614528423
317.478868997369;150.401341976962
317.500472774143;150.290881789337
317.522076550916;150.164955169046
317.543680327689;150.020658640521
317.565284104463;149.85415878307
317.586887881236;149.663766662999
317.608491658009;149.456869089952
317.630095434783;149.242718846408
317.651699211556;149.021072581074
317.67330298833;148.790906494379
317.694906765103;148.551128943314
317.716510541876;148.296820054617
317.73811431865;148.024673577774
317.759718095423;147.745492497168
317.781321872196;147.462959813327
317.80292564897;147.166206103968
317.824529425743;146.865973315169
317.846133202516;146.572153695271
317.86773697929;146.287137843107
317.889340756063;146.016437474011
317.910944532837;145.773479262121
317.93254830961;145.568590171547
317.954152086383;145.40042888619
317.975755863157;145.264706547614
317.99735963993;145.158849642336
318.018963416703;145.075132368425
318.040567193477;145.000284179963
318.06217097025;144.924730990525
318.083774747024;144.848043118092
318.105378523797;144.773695879764
318.12698230057;144.70352312796
318.148586077344;144.630791002867
318.170189854117;144.543869210762
318.19179363089;144.442277268046
318.213397407664;144.33543348322
318.235001184437;144.23119423814
318.25660496121;144.137886860947
318.278208737984;144.064797163004
318.299812514757;144.017701421993
318.321416291531;144.001446388484
318.343020068304;144.014429670582
318.364623845077;144.042243048936
318.386227621851;144.079666198098
318.407831398624;144.149291438632
318.429435175397;144.256436980085
318.451038952171;144.391281905186
318.472642728944;144.546232149237
318.494246505717;144.703626919837
318.515850282491;144.859259913526
318.537454059264;145.023500972046
318.559057836038;145.194918945326
318.580661612811;145.370919287474
318.602265389584;145.553482066012
318.623869166358;145.728986007067
318.645472943131;145.881296563279
318.667076719904;146.007323884711
318.688680496678;146.11954969603
318.710284273451;146.231087861243
318.731888050225;146.332891715326
318.753491826998;146.408709652772
318.775095603771;146.451189801247
318.796699380545;146.4659227699
318.818303157318;146.458312199739
318.839906934091;146.406380610863
318.861510710865;146.298328530717
318.883114487638;146.14860829655
318.904718264411;145.956092442935
318.926322041185;145.716509755263
318.947925817958;145.436822454016
318.969529594732;145.127651660455
318.991133371505;144.793617479611
319.012737148278;144.424397716667
319.034340925052;144.018255068029
319.055944701825;143.605672781217
319.077548478598;143.203070375389
319.099152255372;142.827583507192
319.120756032145;142.489158058515
319.142359808919;142.167900710288
319.163963585692;141.847221315638
319.185567362465;141.541845864393
319.207171139239;141.279767800407
319.228774916012;141.048770023649
319.250378692785;140.824356913174
319.271982469559;140.593096056569
319.293586246332;140.343742026277
319.315190023105;140.066768099181
319.336793799879;139.761942546064
319.358397576652;139.42737452321
319.380001353426;139.054689911569
319.401605130199;138.631734503629
319.423208906972;138.144131131435
319.444812683746;137.595022777137
319.466416460519;137.010535842653
319.488020237292;136.399404359911
319.509624014066;135.7560122277
319.531227790839;135.081967064743
319.552831567612;134.393540406768
319.574435344386;133.696807778513
319.596039121159;132.980115453771
319.617642897933;132.227332990136
319.639246674706;131.428764206307
319.660850451479;130.63827928787
319.682454228253;129.899835016054
319.704058005026;129.18037076574
319.725661781799;128.470151859858
319.747265558573;127.791684019552
319.768869335346;127.157842413566
319.79047311212;126.557355043277
319.812076888893;125.970342167107
319.833680665666;125.395400369892
319.85528444244;124.870326472268
319.876888219213;124.373871828539
319.898491995986;123.890536563406
319.92009577276;123.420622098115
319.941699549533;122.973518830668
319.963303326306;122.555537474776
319.98490710308;122.178516127171
320.006510879853;121.849452442913
320.028114656627;121.572196997168
320.0497184334;121.345721682819
320.071322210173;121.170289683365
320.092925986947;121.037426366415
320.11452976372;120.954465276648
320.136133540493;120.918342523001
320.157737317267;120.905545651093
320.17934109404;120.892300744188
320.200944870813;120.859396089195
320.222548647587;120.789299655309
320.24415242436;120.662912712362
320.265756201134;120.462106276608
320.287359977907;120.174744043554
320.30896375468;119.799079296229
320.330567531454;119.334164104311
320.352171308227;118.776310665422
320.373775085;118.124409267936
320.395378861774;117.376949489291
320.416982638547;116.534777376715
320.438586415321;115.62012886275
320.460190192094;114.676010263939
320.481793968867;113.730085290518
320.503397745641;112.789297086235
320.525001522414;111.874944954667
320.546605299187;111.006248752004
320.568209075961;110.181991018097
320.589812852734;109.393607404585
320.611416629507;108.637005853373
320.633020406281;107.931148697425
320.654624183054;107.300260585591
320.676227959828;106.752780294594
320.697831736601;106.287674693033
320.719435513374;105.893749714639
320.741039290148;105.547622420866
320.762643066921;105.239023117066
320.784246843694;104.997302828124
320.805850620468;104.834491192423
320.827454397241;104.735595408608
320.849058174014;104.686900706712
320.870661950788;104.681253265456
320.892265727561;104.710603470645
320.913869504335;104.766973379027
320.935473281108;104.837725286101
320.957077057881;104.894239699226
320.978680834655;104.92044231641
321.000284611428;104.909821113728
321.021888388201;104.848709280367
321.043492164975;104.72182761776
321.065095941748;104.518574159649
321.086699718522;104.229544231252
321.108303495295;103.869982091982
321.129907272068;103.464313698218
321.151511048842;103.014902823058
321.173114825615;102.518751429612
321.194718602388;101.984343185082
321.216322379162;101.430944303502
321.237926155935;100.886456680664
321.259529932708;100.383606318653
321.281133709482;99.9391195212559
321.302737486255;99.5615632326603
321.324341263029;99.2587174405765
321.345945039802;99.0376735156327
321.367548816575;98.9020252033916
321.389152593349;98.8398882450335
321.410756370122;98.832377815863
321.432360146895;98.8562372028692
321.453963923669;98.8901550085861
321.475567700442;98.9176019992131
321.497171477215;98.9314914601752
321.518775253989;98.9289152492135
321.540379030762;98.9057741268027
321.561982807536;98.8587162328266
321.583586584309;98.7899564239228
321.605190361082;98.6989936499795
321.626794137856;98.5855321268659
321.648397914629;98.4497962873866
321.670001691402;98.2872532713248
321.691605468176;98.1148245097948
321.713209244949;97.9566053255185
321.734813021723;97.8237044704119
321.756416798496;97.7049777279826
321.778020575269;97.5922270770363
321.799624352043;97.4853940113171
321.821228128816;97.3839496801363
321.842831905589;97.2919680652826
321.864435682363;97.2083825105055
321.886039459136;97.1298778180387
321.907643235909;97.0521019387384
321.929247012683;96.9652445101483
321.950850789456;96.8651546792366
321.97245456623;96.7475839329103
321.994058343003;96.6145658163324
322.015662119776;96.469037379243
322.03726589655;96.3107407508583
322.058869673323;96.1357098703588
322.080473450096;95.9492578411541
322.10207722687;95.7647387995432
322.123681003643;95.5899881557459
322.145284780416;95.429531620428
322.16688855719;95.2861868278304
322.188492333963;95.1687109536628
322.210096110737;95.1010709038743
322.23169988751;95.0894180983606
322.253303664283;95.1234067253351
322.274907441057;95.1931490973973
322.29651121783;95.2886689027472
322.318114994603;95.4018464816007
322.339718771377;95.5311977050317
322.36132254815;95.6747153661513
322.382926324924;95.8197644900677
322.404530101697;95.9535729700919
322.42613387847;96.0729799093077
322.447737655244;96.1792714928445
322.469341432017;96.2779069684676
322.49094520879;96.3710746931327
322.512548985564;96.4596799434856
322.534152762337;96.5484619494038
322.55575653911;96.6481123127645
322.577360315884;96.7602729264172
322.598964092657;96.8843386499855
322.620567869431;97.0207096895343
322.642171646204;97.1642975999776
322.663775422977;97.3093352802005
322.685379199751;97.454009660866
322.706982976524;97.5900435985258
322.728586753297;97.7064448866721
322.750190530071;97.7947923860388
322.771794306844;97.8496721411579
322.793398083617;97.8766178365665
322.815001860391;97.877734876895
322.836605637164;97.8504368639008
322.858209413938;97.7916730379841
322.879813190711;97.7174954438314
322.901416967484;97.6385232728555
322.923020744258;97.5513731249181
322.944624521031;97.4681721856524
322.966228297804;97.399324895189
322.987832074578;97.3466627430487
323.009435851351;97.3102951391637
323.031039628125;97.2892921174766
323.052643404898;97.2835015439195
323.074247181671;97.2951657740526
323.095850958445;97.319804584884
323.117454735218;97.3502547797995
323.139058511991;97.3762987836975
323.160662288765;97.3912956443907
323.182266065538;97.4013782899465
323.203869842311;97.4065109346737
323.225473619085;97.3786362348193
323.247077395858;97.30502584419
323.268681172632;97.1905400758898
323.290284949405;97.0388810151864
323.311888726178;96.8541043407216
323.333492502952;96.6387665240081
323.355096279725;96.3956919465582
323.376700056498;96.1488192917352
323.398303833272;95.9184440735269
323.419907610045;95.7091593381397
323.441511386818;95.5203207448111
323.463115163592;95.3444033282772
323.484718940365;95.1825687451907
323.506322717139;95.0404317975087
323.527926493912;94.9125592859164
323.549530270685;94.7980129960107
323.571134047459;94.7046081091819
323.592737824232;94.6347638926283
323.614341601005;94.5817238737926
323.635945377779;94.535298188371
323.657549154552;94.5012398917117
323.679152931326;94.487400446851
323.700756708099;94.4990803239145
323.722360484872;94.5379560348221
323.743964261646;94.6040889433253
323.765568038419;94.6961700512767
323.787171815192;94.812608408229
323.808775591966;94.9442879158415
323.830379368739;95.0886430516555
323.851983145512;95.2504530042379
323.873586922286;95.4278079039344
323.895190699059;95.6045350107037
323.916794475833;95.7742420939546
323.938398252606;95.9350874183176
323.960002029379;96.0850207330294
323.981605806153;96.222078713081
324.003209582926;96.3262895830344
324.024813359699;96.3873200841678
324.046417136473;96.3962938144333
324.068020913246;96.3412783864467
324.08962469002;96.2241948840507
324.111228466793;96.0470980503378
324.132832243566;95.8098127857343
324.15443602034;95.4972862058724
324.176039797113;95.0988685738447
324.197643573886;94.628433669685
324.21924735066;94.0969731186964
324.240851127433;93.5066047936482
324.262454904206;92.8564879336731
324.28405868098;92.1431043604616
324.305662457753;91.3752855639385
324.327266234527;90.5658408225233
324.3488700113;89.7272885617814
324.370473788073;88.8698181003004
324.392077564847;87.988573107173
324.41368134162;87.0662423462615
324.435285118393;86.1008669581295
324.456888895167;85.1098464722263
324.47849267194;84.1128332268053
324.500096448714;83.1151145466667
324.521700225487;82.137579428392
324.54330400226;81.2053630094678
324.564907779034;80.3238936579326
324.586511555807;79.4682639743003
324.60811533258;78.6183964623726
324.629719109354;77.7677663610392
324.651322886127;76.9184361689454
324.6729266629;76.0758879778969
324.694530439674;75.2545408115962
324.716134216447;74.4857541115269
324.737737993221;73.7703542892092
324.759341769994;73.0922486927905
324.780945546767;72.4487233256762
