Name;BF_ESR_01_1800s_X_gon_100dg_result

Recipe
Accumulations;5;Number of accumulations
RetryCount;0;Number of retries on error
AbortOnError;True;Abort on error
EnableQFactorMeasurement;False;Enable/Disable q-Factor measurement
Bfrom;313;B from
Bto;363;B to
SweepTime;60;Sweep time
Modulation;0.2;Modulation
ModulationFreq;100;Modulation
BHoldEnabled;False;B hold enabled
BHold;0;B hold
MicrowavePower;2;Microwave power
MarkerEnabled;False;
MarkerStartField;0;
MarkerEndField;0;
Mode;;
KineticGFact;0;
KineticTotalTransientTime;0;
KineticTimeResolution;0;
TempFrom;5;
TempUseSlope;False;
TempTo;5;
TempdT;1;
TempSetupTime;0;
GonFrom;0;
GonTo;180;
GonSteps;20;
XRayEnabled;False;
XRayTime;3;
XRayVoltage;40;
XRayCurrent;0.5;
UVEnabled;False;
UVIntensity;0;
UVTime;0;
UVLeadTime;0;
UVWavelength;0;
PowSweepFrom;1;
PowSweepTo;5;
PowSweepSteps;5;
AmpModSweepFrom;0;
AmpModSweepTo;1;
AmpModSweepSteps;10;
ExtTriggerEnabled;False;
ExtTrigLeadTime;0;
ExtTrigOnTime;5;

Meas
BField [mT];MW_Absorption []
313.021981048584;110.120500621183
313.043587199874;110.100282096542
313.065193351165;110.057534824192
313.086799502455;110.020521392925
313.108405653746;109.991723739883
313.130011805036;109.963458820925
313.151617956327;109.938192891701
313.173224107617;109.919478917804
313.194830258907;109.902223378779
313.216436410198;109.880786075863
313.238042561488;109.85444224993
313.259648712779;109.820683791418
313.281254864069;109.77754695477
313.302861015359;109.721097101943
313.32446716665;109.642198438015
313.34607331794;109.540382479026
313.367679469231;109.420489234409
313.389285620521;109.285081393165
313.410891771812;109.145560589162
313.432497923102;109.005782078961
313.454104074392;108.863302647217
313.475710225683;108.722524865811
313.497316376973;108.579451202374
313.518922528264;108.436450231104
313.540528679554;108.299209645816
313.562134830844;108.165275456306
313.583740982135;108.025292915973
313.605347133425;107.881714628886
313.626953284716;107.770704746517
313.648559436006;107.697802800556
313.670165587297;107.65004793461
313.691771738587;107.620192016289
313.713377889877;107.607526869533
313.734984041168;107.61153600543
313.756590192458;107.630227205774
313.778196343749;107.665092044588
313.799802495039;107.711021287456
313.821408646329;107.755141935024
313.84301479762;107.793491131047
313.86462094891;107.82206108177
313.886227100201;107.828473511431
313.907833251491;107.803552665178
313.929439402782;107.759076563344
313.951045554072;107.68994696284
313.972651705362;107.576737633636
313.994257856653;107.434645541881
314.015864007943;107.29055581253
314.037470159234;107.15412804956
314.059076310524;107.032690785265
314.080682461814;106.93431593284
314.102288613105;106.867643967665
314.123894764395;106.839713844488
314.145500915686;106.856094801813
314.167107066976;106.918325288722
314.188713218267;107.016150042539
314.210319369557;107.133381171325
314.231925520847;107.260361620451
314.253531672138;107.387428460494
314.275137823428;107.4998963706
314.296743974719;107.586416329454
314.318350126009;107.635099817504
314.3399562773;107.625588399692
314.36156242859;107.552055142255
314.38316857988;107.414708294354
314.404774731171;107.22278304161
314.426380882461;106.98394625056
314.447987033752;106.712088948796
314.469593185042;106.426581733739
314.491199336332;106.139800785804
314.512805487623;105.866244856169
314.534411638913;105.621461210593
314.556017790204;105.411733699197
314.577623941494;105.23387080226
314.599230092785;105.081267722224
314.620836244075;104.952237657775
314.642442395365;104.842972925659
314.664048546656;104.751095786414
314.685654697946;104.68334357747
314.707260849237;104.645895733262
314.728867000527;104.637270533843
314.750473151817;104.659243231312
314.772079303108;104.700379599612
314.793685454398;104.764342947105
314.815291605689;104.866517632744
314.836897756979;105.005854433651
314.85850390827;105.161643081039
314.88011005956;105.323222024166
314.90171621085;105.495883812129
314.923322362141;105.685849674738
314.944928513431;105.903690305946
314.966534664722;106.155890818395
314.988140816012;106.440672166222
315.009746967302;106.760547054384
315.031353118593;107.119561009927
315.052959269883;107.510336586904
315.074565421174;107.93085495226
315.096171572464;108.370499587169
315.117777723755;108.803630941488
315.139383875045;109.215282631105
315.160990026335;109.607131957102
315.182596177626;109.984974516703
315.204202328916;110.350636029363
315.225808480207;110.704356880334
315.247414631497;111.048314430426
315.269020782787;111.394274412493
315.290626934078;111.754916534825
315.312233085368;112.137530324574
315.333839236659;112.538261467285
315.355445387949;112.947531752264
315.37705153924;113.376602873051
315.39865769053;113.839040756892
315.42026384182;114.34158853768
315.441869993111;114.882088307483
315.463476144401;115.434867174658
315.485082295692;115.981357226958
315.506688446982;116.517789741398
315.528294598273;117.042834211638
315.549900749563;117.55239747046
315.571506900853;118.017748735518
315.593113052144;118.417327498855
315.614719203434;118.734312458057
315.636325354725;118.971737766784
315.657931506015;119.138315371898
315.679537657305;119.233400792785
315.701143808596;119.255437465606
315.722749959886;119.214719632545
315.744356111177;119.114375472304
315.765962262467;118.964778159039
315.787568413758;118.786368569361
315.809174565048;118.596949102429
315.830780716338;118.41096414129
315.852386867629;118.24801939625
315.873993018919;118.121471029918
315.89559917021;118.035317446096
315.9172053215;117.995087297654
315.93881147279;118.005674700486
315.960417624081;118.060255058826
315.982023775371;118.151499797994
316.003629926662;118.272945631284
316.025236077952;118.417577082425
316.046842229243;118.584625271053
316.068448380533;118.771175063052
316.090054531823;118.960259229536
316.111660683114;119.146330424851
316.133266834404;119.328923779717
316.154872985695;119.500405911885
316.176479136985;119.665028107132
316.198085288275;119.831723917953
316.219691439566;119.991469605005
316.241297590856;120.137862116727
316.262903742147;120.277817915655
316.284509893437;120.415058716702
316.306116044728;120.550051077994
316.327722196018;120.686756803321
316.349328347308;120.830571304059
316.370934498599;120.982275726133
316.392540649889;121.126306781227
316.41414680118;121.250507094532
316.43575295247;121.352845979607
316.457359103761;121.428216869209
316.478965255051;121.479747017692
316.500571406341;121.513341588964
316.522177557632;121.530123495676
316.543783708922;121.527503125133
316.565389860213;121.505878647048
316.586996011503;121.471059931953
316.608602162793;121.429511642842
316.630208314084;121.390897674352
316.651814465374;121.36082724795
316.673420616665;121.3451038524
316.695026767955;121.349946643271
316.716632919246;121.377206592918
316.738239070536;121.431175719488
316.759845221826;121.516428909043
316.781451373117;121.636857334088
316.803057524407;121.790515556967
316.824663675698;121.97131629653
316.846269826988;122.180179914256
316.867875978278;122.419290399717
316.889482129569;122.685923924243
316.911088280859;122.964816168377
316.93269443215;123.248745518598
316.95430058344;123.545149132745
316.975906734731;123.858815307247
316.997512886021;124.172686680656
317.019119037311;124.490873021487
317.040725188602;124.830072212655
317.062331339892;125.200259765448
317.083937491183;125.585669846314
317.105543642473;125.956627236406
317.127149793763;126.318853875679
317.148755945054;126.691600519622
317.170362096344;127.078713968269
317.191968247635;127.482709443985
317.213574398925;127.890502569193
317.235180550216;128.286905948081
317.256786701506;128.667512221915
317.278392852796;129.023042404284
317.299999004087;129.360846706752
317.321605155377;129.695663199523
317.343211306668;130.040337659011
317.364817457958;130.379495346192
317.386423609248;130.685616436089
317.408029760539;130.958712370602
317.429635911829;131.207077070371
317.45124206312;131.433503964711
317.47284821441;131.636441400056
317.494454365701;131.809847128669
317.516060516991;131.947214263587
317.537666668281;132.046564077157
317.559272819572;132.106188360063
317.580878970862;132.117704963462
317.602485122153;132.070780947813
317.624091273443;131.965236320148
317.645697424734;131.800671955919
317.667303576024;131.58463237317
317.688909727314;131.335272827553
317.710515878605;131.067413738047
317.732122029895;130.774538849532
317.753728181186;130.454633624196
317.775334332476;130.122222702528
317.796940483766;129.81312723536
317.818546635057;129.543628975735
317.840152786347;129.312731775722
317.861758937638;129.11934142055
317.883365088928;128.962007912914
317.904971240219;128.837957140498
317.926577391509;128.744203107151
317.948183542799;128.676827872239
317.96978969409;128.625722527957
317.99139584538;128.582963388182
318.013001996671;128.539158564642
318.034608147961;128.476196228362
318.056214299251;128.379828804008
318.077820450542;128.249049508616
318.099426601832;128.084972659747
318.121032753123;127.884216543491
318.142638904413;127.6426424782
318.164245055704;127.368338490207
318.185851206994;127.071194489206
318.207457358284;126.751192609662
318.229063509575;126.397390552696
318.250669660865;126.012784014993
318.272275812156;125.623988457911
318.293881963446;125.243150217625
318.315488114736;124.865025377313
318.337094266027;124.482457208366
318.358700417317;124.094965799581
318.380306568608;123.710368672338
318.401912719898;123.33676630381
318.423518871189;122.969404866399
318.445125022479;122.59724045209
318.466731173769;122.219345303696
318.48833732506;121.8402774002
318.50994347635;121.46004191766
318.531549627641;121.088234984592
318.553155778931;120.736982473269
318.574761930222;120.409819279259
318.596368081512;120.111346941664
318.617974232802;119.85821328003
318.639580384093;119.670206540465
318.661186535383;119.54592558721
318.682792686674;119.469574921703
318.704398837964;119.428552037301
318.726004989254;119.414370621366
318.747611140545;119.417948284329
318.769217291835;119.430897800252
318.790823443126;119.443186230891
318.812429594416;119.442285444132
318.834035745707;119.420706886266
318.855641896997;119.366507539619
318.877248048287;119.279279248867
318.898854199578;119.168986604824
318.920460350868;119.040038745728
318.942066502159;118.892239892698
318.963672653449;118.73089520514
318.985278804739;118.571062837664
319.00688495603;118.422207639634
319.02849110732;118.289907678286
319.050097258611;118.17296077995
319.071703409901;118.074138405244
319.093309561192;118.001689760888
319.114915712482;117.955981122737
319.136521863772;117.939642970763
319.158128015063;117.954183990982
319.179734166353;117.995614550775
319.201340317644;118.066273087695
319.222946468934;118.162111864993
319.244552620225;118.263071972997
319.266158771515;118.362969686294
319.287764922805;118.466727826764
319.309371074096;118.570141032477
319.330977225386;118.672020405547
319.352583376677;118.778573970384
319.374189527967;118.883846019715
319.395795679257;118.980019266917
319.417401830548;119.060544475253
319.439007981838;119.124730971385
319.460614133129;119.17374550842
319.482220284419;119.211795580022
319.50382643571;119.252100525247
319.525432587;119.288927017721
319.54703873829;119.309555365621
319.568644889581;119.313438431109
319.590251040871;119.305374953205
319.611857192162;119.300335644278
319.633463343452;119.305480403821
319.655069494742;119.313232841933
319.676675646033;119.318346766659
319.698281797323;119.319144295571
319.719887948614;119.306633696387
319.741494099904;119.282008487037
319.763100251195;119.248626022907
319.784706402485;119.202586806369
319.806312553775;119.146961747007
319.827918705066;119.089264947578
319.849524856356;119.037322028314
319.871131007647;119.00076373361
319.892737158937;118.989317537971
319.914343310227;119.016486681094
319.935949461518;119.101428340424
319.957555612808;119.259665321032
319.979161764099;119.484559325631
320.000767915389;119.762702845766
320.02237406668;120.099981036182
320.04398021797;120.49986222365
320.06558636926;120.955390986323
320.087192520551;121.460088331396
320.108798671841;122.007453394993
320.130404823132;122.578489814919
320.152010974422;123.156694642561
320.173617125713;123.737705119439
320.195223277003;124.321463113962
320.216829428293;124.919472844822
320.238435579584;125.529683961514
320.260041730874;126.120514208724
320.281647882165;126.672089621779
320.303254033455;127.189081772742
320.324860184745;127.680170418625
320.346466336036;128.131532407308
320.368072487326;128.519635188554
320.389678638617;128.845311664981
320.411284789907;129.115392165691
320.432890941198;129.322616557344
320.454497092488;129.457058837565
320.476103243778;129.514739551104
320.497709395069;129.496027095264
320.519315546359;129.404612665039
320.54092169765;129.241627906762
320.56252784894;129.007284932986
320.58413400023;128.712593230484
320.605740151521;128.377092135443
320.627346302811;128.013172498623
320.648952454102;127.632810542736
320.670558605392;127.253452274922
320.692164756683;126.891076269391
320.713770907973;126.556931048312
320.735377059263;126.253911600374
320.756983210554;125.985121022299
320.778589361844;125.748173315458
320.800195513135;125.543865474323
320.821801664425;125.378126978491
320.843407815715;125.244998934012
320.865013967006;125.134953326633
320.886620118296;125.041104109114
320.908226269587;124.950511305558
320.929832420877;124.844257124211
320.951438572168;124.707140988263
320.973044723458;124.529468624083
320.994650874748;124.304553035886
321.016257026039;124.023219420674
321.037863177329;123.674033495371
321.05946932862;123.257026877416
321.08107547991;122.790662379391
321.1026816312;122.286176425008
321.124287782491;121.736825596601
321.145893933781;121.132482681016
321.167500085072;120.49838371483
321.189106236362;119.859406515053
321.210712387653;119.211555383124
321.232318538943;118.566702731683
321.253924690233;117.95857465906
321.275530841524;117.396197710142
321.297136992814;116.878098057151
321.318743144105;116.420854022493
321.340349295395;116.025635815988
321.361955446686;115.684294161519
321.383561597976;115.396249008277
321.405167749266;115.17438305099
321.426773900557;115.030053868564
321.448380051847;114.956726664981
321.469986203138;114.945718531915
321.491592354428;114.98631341348
321.513198505718;115.073370238611
321.534804657009;115.214773722605
321.556410808299;115.425379101309
321.57801695959;115.710305945574
321.59962311088;116.050237333283
321.621229262171;116.424507352285
321.642835413461;116.827187004001
321.664441564751;117.224054379827
321.686047716042;117.581143089176
321.707653867332;117.896781653641
321.729260018623;118.181359295029
321.750866169913;118.429210092991
321.772472321203;118.62822040111
321.794078472494;118.77447916556
321.815684623784;118.868703908041
321.837290775075;118.910581657812
321.858896926365;118.89647873805
321.880503077656;118.818614385011
321.902109228946;118.671030266139
321.923715380236;118.453984946648
321.945321531527;118.181493424089
321.966927682817;117.869857904051
321.988533834108;117.526658620312
322.010139985398;117.166079363563
322.031746136688;116.805301735208
322.053352287979;116.440007413788
322.074958439269;116.068076292847
322.09656459056;115.691017203491
322.11817074185;115.297342569436
322.139776893141;114.884400301107
322.161383044431;114.467263062425
322.182989195721;114.061751742361
322.204595347012;113.659290462457
322.226201498302;113.24916658767
322.247807649593;112.839322692605
322.269413800883;112.443477507227
322.291019952173;112.073574920477
322.312626103464;111.745120155347
322.334232254754;111.465945413942
322.355838406045;111.246344535837
322.377444557335;111.099238498318
322.399050708626;111.023833878792
322.420656859916;111.010904200866
322.442263011206;111.055807585028
322.463869162497;111.152211241213
322.485475313787;111.282913090151
322.507081465078;111.426110701587
322.528687616368;111.568294036294
322.550293767659;111.702035080505
322.571899918949;111.815298282316
322.593506070239;111.889828659794
322.61511222153;111.924780863232
322.63671837282;111.921550358748
322.658324524111;111.875930745142
322.679930675401;111.780228288958
322.701536826691;111.630605321113
322.723142977982;111.41749281425
322.744749129272;111.133593828237
322.766355280563;110.785718365171
322.787961431853;110.395599125852
322.809567583144;109.995535004815
322.831173734434;109.597509987164
322.852779885724;109.204513053507
322.874386037015;108.812876489576
322.895992188305;108.443425415177
322.917598339596;108.113603843116
322.939204490886;107.831670938015
322.960810642176;107.596465730963
322.982416793467;107.405151696856
323.004022944757;107.260757261767
323.025629096048;107.156277719558
323.047235247338;107.081501065538
323.068841398629;107.017651367259
323.090447549919;106.943318255108
323.112053701209;106.842384936413
323.1336598525;106.712057288027
323.15526600379;106.542128474968
323.176872155081;106.315926414531
323.198478306371;106.023441499471
323.220084457661;105.654714193941
323.241690608952;105.196705520489
323.263296760242;104.626465273018
323.284902911533;103.99370502084
323.306509062823;103.319097834347
323.328115214114;102.58582248634
323.349721365404;101.785898080371
323.371327516694;100.969774668173
323.392933667985;100.182596847466
323.414539819275;99.4125019293628
323.436145970566;98.636393421478
323.457752121856;97.856998803711
323.479358273146;97.0946372263821
323.500964424437;96.3673667675321
323.522570575727;95.689659474978
323.544176727018;95.0864496314796
323.565782878308;94.5598082347552
323.587389029599;94.0985765876713
323.608995180889;93.7159754585519
323.630601332179;93.4342614293033
323.65220748347;93.2352381024873
323.67381363476;93.1166163977754
323.695419786051;93.0681866184445
323.717025937341;93.0914589422547
323.738632088632;93.1729341586476
323.760238239922;93.2841606942742
323.781844391212;93.3966782346614
323.803450542503;93.4981529756698
323.825056693793;93.5853851162754
323.846662845084;93.6446920893866
323.868268996374;93.6579029003325
323.889875147664;93.6118018976825
323.911481298955;93.5065549843358
323.933087450245;93.3391440774606
323.954693601536;93.1134663393179
323.976299752826;92.8283419296859
323.997905904117;92.4911033369308
324.019512055407;92.1282517841032
324.041118206697;91.7496863271327
324.062724357988;91.3682647089799
324.084330509278;90.9942051012799
324.105936660569;90.6292350213
324.127542811859;90.2715713068654
324.149148963149;89.917775896938
324.17075511444;89.5659811858368
324.19236126573;89.2139555176549
324.213967417021;88.8585467724818
324.235573568311;88.490690525103
324.257179719602;88.0760401948133
324.278785870892;87.5871981818676
324.300392022182;87.0213416385754
324.321998173473;86.3815723211632
324.343604324763;85.6647930981079
324.365210476054;84.8668008344275
324.386816627344;83.9959089278784
324.408422778634;83.057037961743
324.430028929925;82.0284624600276
324.451635081215;80.9017241410666
324.473241232506;79.7001748796247
324.494847383796;78.4519306767216
324.516453535087;77.2027339048861
324.538059686377;75.9464576957952
324.559665837667;74.6356295561022
324.581271988958;73.263125471154
324.602878140248;71.8841630617983
324.624484291539;70.517209779413
324.646090442829;69.150408518116
324.667696594119;67.7909893825148
324.68930274541;66.4663787471425
324.7109088967;65.2166934209595
324.732515047991;64.050241492218
324.754121199281;62.9492824013736
324.775727350572;61.8986144622902
