Name;BF_ESR_01_360s_Y_gon_40dg_result

Recipe
Accumulations;5;Number of accumulations
RetryCount;0;Number of retries on error
AbortOnError;True;Abort on error
EnableQFactorMeasurement;False;Enable/Disable q-Factor measurement
Bfrom;313;B from
Bto;363;B to
SweepTime;60;Sweep time
Modulation;0.2;Modulation
ModulationFreq;100;Modulation
BHoldEnabled;False;B hold enabled
BHold;0;B hold
MicrowavePower;2;Microwave power
MarkerEnabled;False;
MarkerStartField;0;
MarkerEndField;0;
Mode;;
KineticGFact;0;
KineticTotalTransientTime;0;
KineticTimeResolution;0;
TempFrom;5;
TempUseSlope;False;
TempTo;5;
TempdT;1;
TempSetupTime;0;
GonFrom;0;
GonTo;180;
GonSteps;20;
XRayEnabled;False;
XRayTime;3;
XRayVoltage;40;
XRayCurrent;0.5;
UVEnabled;False;
UVIntensity;0;
UVTime;0;
UVLeadTime;0;
UVWavelength;0;
PowSweepFrom;1;
PowSweepTo;5;
PowSweepSteps;5;
AmpModSweepFrom;0;
AmpModSweepTo;1;
AmpModSweepSteps;10;
ExtTriggerEnabled;False;
ExtTrigLeadTime;0;
ExtTrigOnTime;5;

Meas
BField [mT];MW_Absorption []
313.02061050415;65.5770372315257
313.042225640502;65.3614710448298
313.063840776854;65.0569010714398
313.085455913205;64.6664950526603
313.107071049557;64.1713740549242
313.128686185909;63.5502317079548
313.15030132226;62.8199478877679
313.171916458612;62.0143961570045
313.193531594964;61.1551637045743
313.215146731315;60.2640338827183
313.236761867667;59.3727769723681
313.258377004018;58.4913007045118
313.27999214037;57.6219298674405
313.301607276722;56.8181318440528
313.323222413073;56.1177236573346
313.344837549425;55.5312874612654
313.366452685777;55.0551259527385
313.388067822128;54.6700339579178
313.40968295848;54.3555785026933
313.431298094832;54.113682696298
313.452913231183;53.9446451841976
313.474528367535;53.8284800395176
313.496143503887;53.7365976963293
313.517758640238;53.6478187834172
313.53937377659;53.5543708767068
313.560988912941;53.4512682023222
313.582604049293;53.3361483228439
313.604219185645;53.2193708730743
313.625834321996;53.1112703706974
313.647449458348;53.010789920558
313.6690645947;52.9247455495692
313.690679731051;52.8655113223478
313.712294867403;52.844247078967
313.733910003755;52.8689712345324
313.755525140106;52.9434649327185
313.777140276458;53.0712194897174
313.79875541281;53.2442503006995
313.820370549161;53.4562498633327
313.841985685513;53.7115985307778
313.863600821864;54.0131884913084
313.885215958216;54.3545065632914
313.906831094568;54.7069398106656
313.928446230919;55.0477388970433
313.950061367271;55.3734237156046
313.971676503623;55.6794484395381
313.993291639974;55.9569617361696
314.014906776326;56.1996809227717
314.036521912678;56.4020276532646
314.058137049029;56.5597031068351
314.079752185381;56.6784229250081
314.101367321732;56.7668901175607
314.122982458084;56.831505172749
314.144597594436;56.8756352015837
314.166212730787;56.8941876075308
314.187827867139;56.8893657307789
314.209443003491;56.8685529874608
314.231058139842;56.830801691437
314.252673276194;56.7728156508146
314.274288412546;56.694093077223
314.295903548897;56.598677165475
314.317518685249;56.4863390857872
314.339133821601;56.3541149874011
314.360748957952;56.1959386897149
314.382364094304;56.0122971439194
314.403979230655;55.8121838102284
314.425594367007;55.598707661537
314.447209503359;55.3682659072178
314.46882463971;55.1213105897791
314.490439776062;54.8607885923086
314.512054912414;54.5952238184749
314.533670048765;54.3480164890706
314.555285185117;54.1273283061952
314.576900321469;53.9265553301355
314.59851545782;53.7458453735991
314.620130594172;53.5951247340638
314.641745730524;53.4722689277638
314.663360866875;53.3681208149261
314.684976003227;53.2758906066563
314.706591139578;53.1924092030709
314.72820627593;53.1152248221454
314.749821412282;53.0371564786142
314.771436548633;52.9581721171813
314.793051684985;52.8836035307246
314.814666821337;52.8257869644314
314.836281957688;52.7859348228687
314.85789709404;52.7576694890707
314.879512230392;52.7466347711428
314.901127366743;52.7611107228715
314.922742503095;52.8004985541848
314.944357639446;52.8624943396863
314.965972775798;52.9527988651005
314.98758791215;53.0790572085481
315.009203048501;53.2335531482973
315.030818184853;53.4084070239407
315.052433321205;53.6019912796632
315.074048457556;53.8107386427762
315.095663593908;54.0175032450591
315.11727873026;54.2051574833327
315.138893866611;54.3696084061829
315.160509002963;54.5216845378559
315.182124139315;54.6723961249182
315.203739275666;54.8093193178556
315.225354412018;54.9113672988805
315.246969548369;54.9870983416373
315.268584684721;55.0455269146724
315.290199821073;55.086701401264
315.311814957424;55.0987498930847
315.333430093776;55.0822615915522
315.355045230128;55.0484818341008
315.376660366479;55.0048971589492
315.398275502831;54.9547113643047
315.419890639183;54.9003456362732
315.441505775534;54.841490561696
315.463120911886;54.7765787824033
315.484736048237;54.7096438768634
315.506351184589;54.6462878445222
315.527966320941;54.5865151697755
315.549581457292;54.5287415657741
315.571196593644;54.4678837887917
315.592811729996;54.4005553628509
315.614426866347;54.3287035885551
315.636042002699;54.2540103819649
315.657657139051;54.1748642246986
315.679272275402;54.082706251745
315.700887411754;53.972132156538
315.722502548106;53.8543211052855
315.744117684457;53.7442614428992
315.765732820809;53.6513213198617
315.78734795716;53.5758872573558
315.808963093512;53.5108463177874
315.830578229864;53.4443111396818
315.852193366215;53.3798349519456
315.873808502567;53.3336175609253
315.895423638919;53.3030406082464
315.91703877527;53.2783525446685
315.938653911622;53.2573717895312
315.960269047974;53.2305045981026
315.981884184325;53.1861330876645
316.003499320677;53.128607065601
316.025114457029;53.084624588789
316.04672959338;53.0659638765914
316.068344729732;53.0523215438606
316.089959866083;53.0342517759081
316.111575002435;53.0190595592612
316.133190138787;53.0108060352284
316.154805275138;53.0134805758265
316.17642041149;53.0352928314062
316.198035547842;53.0805602632552
316.219650684193;53.1527076911381
316.241265820545;53.2522677052909
316.262880956897;53.3819128234804
316.284496093248;53.5461328302413
316.3061112296;53.7429455079864
316.327726365951;53.9616971506509
316.349341502303;54.1950887245897
316.370956638655;54.4422656693674
316.392571775006;54.6965201027461
316.414186911358;54.942534481159
316.43580204771;55.1680157613973
316.457417184061;55.3716359589594
316.479032320413;55.5435077518956
316.500647456765;55.6776732863284
316.522262593116;55.7664534967332
316.543877729468;55.8185796632613
316.56549286582;55.8322709966605
316.587108002171;55.8052133293346
316.608723138523;55.7337529451558
316.630338274874;55.6281339397157
316.651953411226;55.5114589498759
316.673568547578;55.3902596220747
316.695183683929;55.2603989316744
316.716798820281;55.1257546097612
316.738413956633;54.9930819116517
316.760029092984;54.8690425650713
316.781644229336;54.7606937327056
316.803259365688;54.6739776892891
316.824874502039;54.6220398766229
316.846489638391;54.6118705994788
316.868104774743;54.6315200284881
316.889719911094;54.6614048204263
316.911335047446;54.6961572358297
316.932950183797;54.7388342175079
316.954565320149;54.7960374183107
316.976180456501;54.8641833462479
316.997795592852;54.9247325436869
317.019410729204;54.9744808118602
317.041025865556;55.0105054990542
317.062641001907;55.0357525948372
317.084256138259;55.0531486930968
317.105871274611;55.0664823755529
317.127486410962;55.0899549495614
317.149101547314;55.132397225387
317.170716683665;55.1895203204607
317.192331820017;55.261938077224
317.213946956369;55.3692941311706
317.23556209272;55.5171261351318
317.257177229072;55.702743586019
317.278792365424;55.9193582942202
317.300407501775;56.1653471517531
317.322022638127;56.4443790269098
317.343637774479;56.7508410234918
317.36525291083;57.071518130481
317.386868047182;57.3906106896369
317.408483183534;57.6914742784033
317.430098319885;57.9607731325997
317.451713456237;58.1892642534467
317.473328592588;58.3576544707704
317.49494372894;58.4511482851135
317.516558865292;58.4682673336933
317.538174001643;58.4072395766387
317.559789137995;58.2613864048619
317.581404274347;58.0445087266131
317.603019410698;57.7785948557895
317.62463454705;57.4722233420905
317.646249683402;57.1315292179925
317.667864819753;56.7731042937931
317.689479956105;56.4071963542969
317.711095092457;56.0475434237373
317.732710228808;55.7118517267266
317.75432536516;55.4084757672913
317.775940501511;55.1498937400139
317.797555637863;54.93276548465
317.819170774215;54.752212938488
317.840785910566;54.6147848412374
317.862401046918;54.5245972983557
317.88401618327;54.4792186199041
317.905631319621;54.4785585666205
317.927246455973;54.5253331396374
317.948861592325;54.6093820795117
317.970476728676;54.7100737823961
317.992091865028;54.8187770279389
318.013707001379;54.938341020035
318.035322137731;55.068490562847
318.056937274083;55.2053606342422
318.078552410434;55.3440837848934
318.100167546786;55.4749270487464
318.121782683138;55.5877030298698
318.143397819489;55.6806581513445
318.165012955841;55.7526763116034
318.186628092193;55.8020412780484
318.208243228544;55.8251412786522
318.229858364896;55.8171245739021
318.251473501248;55.7802523616478
318.273088637599;55.7189515600476
318.294703773951;55.6332494316662
318.316318910302;55.5269138489821
318.337934046654;55.4041979947138
318.359549183006;55.26649555658
318.381164319357;55.1152081364326
318.402779455709;54.9533655944582
318.424394592061;54.783553459869
318.446009728412;54.6016094996813
318.467624864764;54.4123239077548
318.489240001116;54.2286269934845
318.510855137467;54.049910225387
318.532470273819;53.8754780513806
318.554085410171;53.7038233579267
318.575700546522;53.5308561094342
318.597315682874;53.3614716564096
318.618930819225;53.2096360736322
318.640545955577;53.0817015173
318.662161091929;52.9781748912592
318.68377622828;52.8973410189083
318.705391364632;52.833210056587
318.727006500984;52.7715121975901
318.748621637335;52.712477611517
318.770236773687;52.6477388956184
318.791851910039;52.5728491370634
318.81346704639;52.4907506694595
318.835082182742;52.3944936328428
318.856697319093;52.2636667826354
318.878312455445;52.0998435944501
318.899927591797;51.9106005171579
318.921542728148;51.6986976168877
318.9431578645;51.4624397430517
318.964773000852;51.2091266421534
318.986388137203;50.9472426712659
319.008003273555;50.6770687049762
319.029618409907;50.3991918082388
319.051233546258;50.1204013672337
319.07284868261;49.8576961122897
319.094463818962;49.6205122072363
319.116078955313;49.406596514159
319.137694091665;49.2079753892503
319.159309228016;49.0220768051108
319.180924364368;48.8594579605213
319.20253950072;48.7248498974929
319.224154637071;48.6224263693561
319.245769773423;48.5531600251887
319.267384909775;48.5082050154789
319.289000046126;48.4761798284013
319.310615182478;48.45305637015
319.33223031883;48.4421849108353
319.353845455181;48.4465999924486
319.375460591533;48.4635847489701
319.397075727885;48.4811726274065
319.418690864236;48.4918478220631
319.440306000588;48.4979688211863
319.461921136939;48.5073394030488
319.483536273291;48.5228770723276
319.505151409643;48.5458558833199
319.526766545994;48.5727185741812
319.548381682346;48.6023817370603
319.569996818698;48.6339000767169
319.591611955049;48.6646358530113
319.613227091401;48.6913326605095
319.634842227753;48.7116277002037
319.656457364104;48.7256445602247
319.678072500456;48.734231046092
319.699687636807;48.7486898094556
319.721302773159;48.7780252417772
319.742917909511;48.8207477907041
319.764533045862;48.869067502681
319.786148182214;48.9119505154101
319.807763318566;48.9555775395518
319.829378454917;49.0057935867204
319.850993591269;49.0615385974208
319.872608727621;49.1270436883282
319.894223863972;49.2023557625054
319.915839000324;49.2877267772499
319.937454136676;49.3820019884185
319.959069273027;49.4843400429031
319.980684409379;49.5912591568391
320.00229954573;49.7035593950029
320.023914682082;49.8269176829493
320.045529818434;49.960120103065
320.067144954785;50.085616617287
320.088760091137;50.1870391359833
320.110375227489;50.2627272938619
320.13199036384;50.3074063854749
320.153605500192;50.3070477150276
320.175220636544;50.2515396414047
320.196835772895;50.1469403736131
320.218450909247;50.001955554691
320.240066045599;49.8085215489771
320.26168118195;49.5541699921201
320.283296318302;49.2450882764605
320.304911454653;48.8950617661421
320.326526591005;48.508814793109
320.348141727357;48.0803625627216
320.369756863708;47.6088929402662
320.39137200006;47.1246696299664
320.412987136412;46.660133516168
320.434602272763;46.2113545914664
320.456217409115;45.7561506199885
320.477832545467;45.3060909445564
320.499447681818;44.9209023918144
320.52106281817;44.5905625122806
320.542677954521;44.2847395193439
320.564293090873;43.990434158988
320.585908227225;43.7074444062516
320.607523363576;43.4394961968793
320.629138499928;43.1948202826482
320.65075363628;42.985283683205
320.672368772631;42.8162931257596
320.693983908983;42.6894698393042
320.715599045335;42.6034289549668
320.737214181686;42.5623458524433
320.758829318038;42.5698013929998
320.78044445439;42.6277738477986
320.802059590741;42.7397295481498
320.823674727093;42.9070950246092
320.845289863444;43.1310527925439
320.866904999796;43.4127762347499
320.888520136148;43.7497348993718
320.910135272499;44.1277483991574
320.931750408851;44.5310150452304
320.953365545203;44.9508943355733
320.974980681554;45.3754304898676
320.996595817906;45.7966724355126
321.018210954258;46.2199081226499
321.039826090609;46.6476701607847
321.061441226961;47.0659937547838
321.083056363313;47.4701745241673
321.104671499664;47.8778361481722
321.126286636016;48.2990419206075
321.147901772367;48.7033432197598
321.169516908719;49.0727688857749
321.191132045071;49.4198901359528
321.212747181422;49.7530299426905
321.234362317774;50.0659660156966
321.255977454126;50.3576980239821
321.277592590477;50.6246913739262
321.299207726829;50.8416528386
321.320822863181;50.9816268392471
321.342437999532;51.0324677255723
321.364053135884;50.9916600562622
321.385668272235;50.8550043547672
321.407283408587;50.6162843580387
321.428898544939;50.2881038102468
321.45051368129;49.9088216473618
321.472128817642;49.494601520185
321.493743953994;49.0215614726326
321.515359090345;48.4610416684413
321.536974226697;47.8490882602259
321.558589363049;47.2768488992468
321.5802044994;46.7622500542986
321.601819635752;46.2951374312345
321.623434772104;45.8782195597571
321.645049908455;45.5116819202878
321.666665044807;45.2027672575528
321.688280181158;44.9596007840448
321.70989531751;44.784076131051
321.731510453862;44.6612606308895
321.753125590213;44.577806897159
321.774740726565;44.5306267916322
321.796355862917;44.5197819697375
321.817970999268;44.5404095677446
321.83958613562;44.5714893149282
321.861201271972;44.5904437716987
321.882816408323;44.6077989128054
321.904431544675;44.6363491981277
321.926046681027;44.6692622381547
321.947661817378;44.6764331810661
321.96927695373;44.6389805528377
321.990892090081;44.5560303890105
322.012507226433;44.4261470888977
322.034122362785;44.2424234093123
322.055737499136;44.0026120344611
322.077352635488;43.7040743973063
322.09896777184;43.338323394814
322.120582908191;42.8998881800796
322.142198044543;42.4086174430552
322.163813180895;41.8951485584053
322.185428317246;41.3682566318516
322.207043453598;40.8413331569645
322.228658589949;40.3322295246931
322.250273726301;39.853378101112
322.271888862653;39.4155114901314
322.293503999004;39.0298439538306
322.315119135356;38.7190010493989
322.336734271708;38.4862717617171
322.358349408059;38.3154549087373
322.379964544411;38.2000210601033
322.401579680763;38.1485579841946
322.423194817114;38.1572149904766
322.444809953466;38.1946185476602
322.466425089818;38.2487078551571
322.488040226169;38.3151971655449
322.509655362521;38.3900125602907
322.531270498872;38.4662336439961
322.552885635224;38.5311605460799
322.574500771576;38.5731904442305
322.596115907927;38.6006779266689
322.617731044279;38.620300080511
322.639346180631;38.6299136316512
322.660961316982;38.6392839903478
322.682576453334;38.6499556011349
322.704191589686;38.6448728314614
322.725806726037;38.6125003970198
322.747421862389;38.5614859457909
322.769036998741;38.4942517795808
322.790652135092;38.4013303733411
322.812267271444;38.2798896742511
322.833882407795;38.1320193563584
322.855497544147;37.9520975581535
322.877112680499;37.746153356046
322.89872781685;37.5226919909853
322.920342953202;37.2742397845865
322.941958089554;36.9967272794357
322.963573225905;36.7109931105821
322.985188362257;36.439182337962
323.006803498609;36.1906089242314
323.02841863496;35.9740623001352
323.050033771312;35.7889688249387
323.071648907664;35.62754024913
323.093264044015;35.4954506275702
323.114879180367;35.3998490807444
323.136494316718;35.3459172334615
323.15810945307;35.3310280703221
323.179724589422;35.3527176975435
323.201339725773;35.4101884808176
323.222954862125;35.4950183035192
323.244569998477;35.5936790074741
323.266185134828;35.6948415382675
323.28780027118;35.8007071368835
323.309415407532;35.9110549101639
323.331030543883;36.021219689897
323.352645680235;36.1249108062405
323.374260816586;36.2171125358757
323.395875952938;36.2928699322823
323.41749108929;36.3401998769342
323.439106225641;36.3499924977119
323.460721361993;36.3222429520066
323.482336498345;36.2584632113051
323.503951634696;36.1557208366322
323.525566771048;36.014325949497
323.5471819074;35.8328654677809
323.568797043751;35.6060070019183
323.590412180103;35.3418551458704
323.612027316455;35.0568198053601
323.633642452806;34.7611069961416
323.655257589158;34.4702570213755
323.676872725509;34.2000155801946
323.698487861861;33.9557980066133
323.720102998213;33.7454883579963
323.741718134564;33.5846816428727
323.763333270916;33.477076022441
323.784948407268;33.4046942211
323.806563543619;33.35771955342
323.828178679971;33.3391062281423
323.849793816323;33.3478036995842
323.871408952674;33.3726700219454
323.893024089026;33.4045064294805
323.914639225378;33.4390785334934
323.936254361729;33.4724603261304
323.957869498081;33.4990865139377
323.979484634432;33.505788854996
324.001099770784;33.4843264089806
324.022714907136;33.4459201341425
324.044330043487;33.4009291043115
324.065945179839;33.3492465960582
324.087560316191;33.2916079447242
324.109175452542;33.228156666107
324.130790588894;33.160056616614
324.152405725246;33.0975377386385
324.174020861597;33.0383300027324
324.195635997949;32.9652249767962
324.2172511343;32.8760169359403
324.238866270652;32.7753180240018
324.260481407004;32.6583847650074
324.282096543355;32.5130819191163
324.303711679707;32.3286638813078
324.325326816059;32.0976397662328
324.34694195241;31.8275515866532
324.368557088762;31.5260975876373
324.390172225114;31.1972560230558
324.411787361465;30.8470289833471
324.433402497817;30.4724756018061
324.455017634169;30.0677562138377
324.47663277052;29.6376793739427
324.498247906872;29.1939663887145
324.519863043223;28.7453798048066
324.541478179575;28.3247866152383
324.563093315927;27.9371102327668
324.584708452278;27.5662280572111
324.60632358863;27.2040869956696
324.627938724982;26.8735012454598
324.649553861333;26.6007347438321
324.671168997685;26.3842442689382
324.692784134037;26.2263466104547
324.714399270388;26.1218545331239
324.73601440674;26.0716469947235
324.757629543092;26.0756186052713
324.779244679443;26.1276719840881
