Name;BF_ESR_01_1800s_X_gon_160dg_result

Recipe
Accumulations;5;Number of accumulations
RetryCount;0;Number of retries on error
AbortOnError;True;Abort on error
EnableQFactorMeasurement;False;Enable/Disable q-Factor measurement
Bfrom;313;B from
Bto;363;B to
SweepTime;60;Sweep time
Modulation;0.2;Modulation
ModulationFreq;100;Modulation
BHoldEnabled;False;B hold enabled
BHold;0;B hold
MicrowavePower;2;Microwave power
MarkerEnabled;False;
MarkerStartField;0;
MarkerEndField;0;
Mode;;
KineticGFact;0;
KineticTotalTransientTime;0;
KineticTimeResolution;0;
TempFrom;5;
TempUseSlope;False;
TempTo;5;
TempdT;1;
TempSetupTime;0;
GonFrom;0;
GonTo;180;
GonSteps;20;
XRayEnabled;False;
XRayTime;3;
XRayVoltage;40;
XRayCurrent;0.5;
UVEnabled;False;
UVIntensity;0;
UVTime;0;
UVLeadTime;0;
UVWavelength;0;
PowSweepFrom;1;
PowSweepTo;5;
PowSweepSteps;5;
AmpModSweepFrom;0;
AmpModSweepTo;1;
AmpModSweepSteps;10;
ExtTriggerEnabled;False;
ExtTrigLeadTime;0;
ExtTrigOnTime;5;

Meas
BField [mT];MW_Absorption []
313.026594467163;113.885516208576
313.048202862591;113.760449140361
313.069811258019;113.715763659757
313.091419653447;113.750599275891
313.113028048875;113.855971756214
313.134636444303;114.006676283161
313.156244839731;114.186279213908
313.177853235159;114.384930962234
313.199461630587;114.594628807402
313.221070026015;114.796442882647
313.242678421443;114.973588835749
313.264286816871;115.112130930756
313.285895212299;115.208621185912
313.307503607727;115.269483188682
313.329112003155;115.298695299469
313.350720398583;115.296230585635
313.372328794011;115.264528706779
313.393937189439;115.211693765531
313.415545584867;115.143351274437
313.437153980295;115.072325617554
313.458762375723;115.010060082755
313.480370771151;114.960133501929
313.501979166579;114.919832997485
313.523587562007;114.881308302823
313.545195957435;114.844356290573
313.566804352863;114.812117123817
313.588412748291;114.777041463345
313.610021143719;114.724294773883
313.631629539147;114.653591576526
313.653237934575;114.577199605681
313.674846330003;114.49642115815
313.696454725431;114.404788396909
313.718063120858;114.308200230194
313.739671516286;114.217125778483
313.761279911714;114.145449646161
313.782888307142;114.100762089016
313.80449670257;114.081306339981
313.826105097998;114.093114675793
313.847713493426;114.140776587761
313.869321888854;114.222255440688
313.890930284282;114.328886717155
313.91253867971;114.458460859373
313.934147075138;114.610126619284
313.955755470566;114.780911930065
313.977363865994;114.970657569082
313.998972261422;115.182278981578
314.02058065685;115.404818155567
314.042189052278;115.618971449397
314.063797447706;115.816768937169
314.085405843134;115.997432959121
314.107014238562;116.165888900961
314.12862263399;116.322921618511
314.150231029418;116.460966961828
314.171839424846;116.572421150372
314.193447820274;116.657212056361
314.215056215702;116.716907718292
314.23666461113;116.751023772358
314.258273006558;116.764541812811
314.279881401986;116.766640853459
314.301489797414;116.767330105722
314.323098192842;116.772807601073
314.34470658827;116.787452501408
314.366314983698;116.822627350877
314.387923379126;116.895479405946
314.409531774554;117.011983669587
314.431140169982;117.165281533491
314.45274856541;117.350411471712
314.474356960838;117.572517691297
314.495965356266;117.838329750655
314.517573751694;118.139004445608
314.539182147122;118.453716214884
314.56079054255;118.760422271842
314.582398937978;119.043897045447
314.604007333406;119.300357579732
314.625615728834;119.534350709122
314.647224124262;119.754016228583
314.66883251969;119.969798392872
314.690440915118;120.178767024961
314.712049310546;120.383405180187
314.733657705974;120.594710491416
314.755266101402;120.83252349525
314.77687449683;121.108794187929
314.798482892258;121.422871663006
314.820091287686;121.765782358621
314.841699683113;122.124356766954
314.863308078541;122.494477646916
314.884916473969;122.890706120615
314.906524869397;123.314522240306
314.928133264825;123.731836900989
314.949741660253;124.107475442521
314.971350055681;124.431301516905
314.992958451109;124.690413921629
315.014566846537;124.878577163431
315.036175241965;125.013161255844
315.057783637393;125.095030964214
315.079392032821;125.106995868047
315.101000428249;125.051501767081
315.122608823677;124.954487479236
315.144217219105;124.832574285935
315.165825614533;124.696122089559
315.187434009961;124.560283328693
315.209042405389;124.439820790598
315.230650800817;124.343119256119
315.252259196245;124.274599972252
315.273867591673;124.241561922742
315.295475987101;124.250690683182
315.317084382529;124.302457914183
315.338692777957;124.39411379751
315.360301173385;124.515924841617
315.381909568813;124.642359120559
315.403517964241;124.750829946925
315.425126359669;124.840975146266
315.446734755097;124.930925004728
315.468343150525;125.030417332843
315.489951545953;125.115020202511
315.511559941381;125.166949069262
315.533168336809;125.202400331515
315.554776732237;125.238080100352
315.576385127665;125.281268345761
315.597993523093;125.330580880109
315.619601918521;125.382529313269
315.641210313949;125.444429634844
315.662818709377;125.510897020361
315.684427104805;125.576320765089
315.706035500233;125.640235118944
315.727643895661;125.710245606846
315.749252291089;125.790369346677
315.770860686517;125.874493303754
315.792469081945;125.953884537701
315.814077477373;126.02671882899
315.835685872801;126.098942159539
315.857294268229;126.182264607741
315.878902663657;126.282449510837
315.900511059085;126.397999093639
315.922119454513;126.524965453989
315.943727849941;126.670837776454
315.965336245369;126.846277246908
315.986944640796;127.047814178048
316.008553036224;127.268262385414
316.030161431652;127.502735707186
316.05176982708;127.752541042805
316.073378222508;128.018456584593
316.094986617936;128.293321201947
316.116595013364;128.578507927234
316.138203408792;128.879811682217
316.15981180422;129.206409714895
316.181420199648;129.56137876787
316.203028595076;129.915059631681
316.224636990504;130.24046840482
316.246245385932;130.519028051494
316.26785378136;130.742996321243
316.289462176788;130.916610744744
316.311070572216;131.037707216438
316.332678967644;131.100075906524
316.354287363072;131.100190790629
316.3758957585;131.034537319829
316.397504153928;130.902126865894
316.419112549356;130.70685069549
316.440720944784;130.453166062582
316.462329340212;130.146859961337
316.48393773564;129.800560506316
316.505546131068;129.427995323708
316.527154526496;129.032975339637
316.548762921924;128.61925863422
316.570371317352;128.204820419493
316.59197971278;127.798586565569
316.613588108208;127.394939697469
316.635196503636;126.992587456683
316.656804899064;126.602184274391
316.678413294492;126.23885735844
316.70002168992;125.903753193021
316.721630085348;125.594994590436
316.743238480776;125.328171543807
316.764846876204;125.110640636361
316.786455271632;124.936020956179
316.80806366706;124.799323749053
316.829672062488;124.703780047914
316.851280457916;124.660460684984
316.872888853344;124.680256584785
316.894497248772;124.757375931773
316.9161056442;124.89217662215
316.937714039628;125.099783271237
316.959322435056;125.363442461789
316.980930830484;125.662335715625
317.002539225912;125.991048478471
317.02414762134;126.363893393719
317.045756016768;126.776381501125
317.067364412196;127.23419095778
317.088972807624;127.732602170192
317.110581203051;128.225380605365
317.13218959848;128.701751631291
317.153797993907;129.166509760425
317.175406389335;129.606566237908
317.197014784763;130.026194711488
317.218623180191;130.423823532173
317.240231575619;130.774626231888
317.261839971047;131.077830929163
317.283448366475;131.348637345489
317.305056761903;131.579777403204
317.326665157331;131.765490199265
317.348273552759;131.915671674996
317.369881948187;132.046932740362
317.391490343615;132.162114629331
317.413098739043;132.252918137511
317.434707134471;132.313721690295
317.456315529899;132.347714206759
317.477923925327;132.366600577109
317.499532320755;132.37172068168
317.521140716183;132.344830765909
317.542749111611;132.279751796819
317.564357507039;132.186520320499
317.585965902467;132.069839307229
317.607574297895;131.927494485003
317.629182693323;131.754470328334
317.650791088751;131.548821322951
317.672399484179;131.319031260959
317.694007879607;131.077719840178
317.715616275035;130.833528213263
317.737224670463;130.588475567147
317.758833065891;130.341983671753
317.780441461319;130.095951225944
317.802049856747;129.854178224924
317.823658252175;129.620482905521
317.845266647603;129.398528550284
317.866875043031;129.191372396149
317.888483438459;128.999589731542
317.910091833887;128.813611898061
317.931700229315;128.632461755828
317.953308624743;128.448120501011
317.974917020171;128.246032689749
317.996525415599;128.009028329179
318.018133811027;127.726034325353
318.039742206455;127.407458310088
318.061350601883;127.077364301722
318.082958997311;126.741555310716
318.104567392739;126.390428237108
318.126175788167;126.023915575542
318.147784183595;125.646596243973
318.169392579023;125.269055252283
318.191000974451;124.907926028949
318.212609369879;124.563566085457
318.234217765307;124.231283211963
318.255826160735;123.916054874778
318.277434556162;123.629844761375
318.29904295159;123.375609481964
318.320651347018;123.145311506265
318.342259742446;122.933315604837
318.363868137874;122.74703527323
318.385476533302;122.588759370103
318.40708492873;122.449503439403
318.428693324158;122.323635749491
318.450301719586;122.220496069783
318.471910115014;122.154953161686
318.493518510442;122.136044305892
318.51512690587;122.152123736293
318.536735301298;122.17670523944
318.558343696726;122.198781878167
318.579952092154;122.213142281474
318.601560487582;122.217265244288
318.62316888301;122.208500900596
318.644777278438;122.17776883743
318.666385673866;122.104305002141
318.687994069294;121.966706237593
318.709602464722;121.758723644613
318.73121086015;121.480660645406
318.752819255578;121.115302071527
318.774427651006;120.64333455455
318.796036046434;120.083601276371
318.817644441862;119.464941945595
318.83925283729;118.795943117754
318.860861232718;118.077564344623
318.882469628146;117.313304806781
318.904078023574;116.52775167004
318.925686419002;115.75123044026
318.94729481443;114.984654087704
318.968903209858;114.209455336543
318.990511605286;113.409467414886
319.012120000714;112.616865010665
319.033728396142;111.869382687571
319.05533679157;111.161829192997
319.076945186998;110.484989951262
319.098553582426;109.824574241997
319.120161977854;109.171266558416
319.141770373282;108.535898871743
319.16337876871;107.926483450514
319.184987164138;107.339772697771
319.206595559566;106.778412630562
319.228203954994;106.258040844377
319.249812350422;105.798882126046
319.27142074585;105.413628438814
319.293029141278;105.108815677948
319.314637536706;104.891863554628
319.336245932134;104.74995693814
319.357854327562;104.655268031225
319.37946272299;104.589010877414
319.401071118417;104.53392912093
319.422679513845;104.479301696752
319.444287909273;104.413141840408
319.465896304701;104.322325942686
319.487504700129;104.186135887779
319.509113095557;103.995748159662
319.530721490985;103.749028898717
319.552329886413;103.433108184009
319.573938281841;103.039522527173
319.595546677269;102.585982239594
319.617155072697;102.091279378918
319.638763468125;101.571608699218
319.660371863553;101.038333858905
319.681980258981;100.498021597096
319.703588654409;99.9611501723024
319.725197049837;99.4462526436367
319.746805445265;98.9691979199181
319.768413840693;98.5299035415137
319.790022236121;98.1246845441221
319.811630631549;97.7639590289836
319.833239026977;97.4643698212355
319.854847422405;97.2307295916048
319.876455817833;97.0576130669918
319.898064213261;96.926950164089
319.919672608689;96.8264786187132
319.941281004117;96.7546299657175
319.962889399545;96.718271923891
319.984497794973;96.7202753600318
320.006106190401;96.7524227113934
320.027714585829;96.8144733828853
320.049322981257;96.9124118210527
320.070931376685;97.0538295443912
320.092539772113;97.2539110885908
320.114148167541;97.5132542031711
320.135756562969;97.813951350698
320.157364958397;98.1448121491028
320.178973353825;98.5071101136707
320.200581749253;98.9099080182876
320.222190144681;99.3584379610265
320.243798540109;99.8349109425158
320.265406935537;100.311446974276
320.287015330965;100.770654105701
320.308623726393;101.210139814325
320.330232121821;101.627192507744
320.351840517249;102.021371682194
320.373448912677;102.380964157357
320.395057308105;102.697395789312
320.416665703533;102.971676927281
320.438274098961;103.206101575658
320.459882494389;103.378185152353
320.481490889817;103.468372718519
320.503099285245;103.469704034818
320.524707680673;103.379029827408
320.5463160761;103.195145761929
320.567924471528;102.949152286574
320.589532866956;102.646456314333
320.611141262384;102.296201876386
320.632749657812;101.915021812262
320.65435805324;101.516376792137
320.675966448668;101.1098080995
320.697574844096;100.708655010167
320.719183239524;100.323988126021
320.740791634952;99.9602662323893
320.76240003038;99.6137273325201
320.784008425808;99.2820950535238
320.805616821236;98.966163303408
320.827225216664;98.6625189631105
320.848833612092;98.3751270498146
320.87044200752;98.0940334774465
320.892050402948;97.7848178274401
320.913658798376;97.4201761829611
320.935267193804;97.0016541087913
320.956875589232;96.5378981363646
320.97848398466;96.0312795840067
321.000092380088;95.4832011469914
321.021700775516;94.8978758503937
321.043309170944;94.2747177851514
321.064917566372;93.60414106212
321.0865259618;92.8816173313533
321.108134357228;92.1137203547853
321.129742752656;91.3100572416379
321.151351148084;90.4861515695585
321.172959543512;89.6528192097673
321.19456793894;88.8025877773151
321.216176334368;87.9219075764005
321.237784729796;87.0111969148797
321.259393125224;86.0815317610391
321.281001520652;85.1281896758464
321.30260991608;84.1708587628466
321.324218311508;83.2432558699565
321.345826706936;82.3556192095997
321.367435102364;81.502994452704
321.389043497792;80.6835717599986
321.41065189322;79.9115002670435
321.432260288648;79.2061589713571
321.453868684076;78.587720749773
321.475477079504;78.0665942258518
321.497085474932;77.642079919645
321.51869387036;77.319194213208
321.540302265788;77.1009649456174
321.561910661216;76.977985947358
321.583519056644;76.9346748547464
321.605127452072;76.9489505070513
321.6267358475;76.9997843225787
321.648344242928;77.0737223092197
321.669952638355;77.163552632566
321.691561033784;77.2550957075266
321.713169429211;77.3314075404767
321.734777824639;77.3780067106514
321.756386220067;77.3896263454053
321.777994615495;77.3674486923446
321.799603010923;77.3084222342096
321.821211406351;77.2112268138703
321.842819801779;77.0779441780655
321.864428197207;76.8994909515032
321.886036592635;76.6764080436748
321.907644988063;76.4289176614317
321.929253383491;76.1680369692345
321.950861778919;75.8832926181018
321.972470174347;75.5635941738865
321.994078569775;75.2080771577427
322.015686965203;74.8375680391715
322.037295360631;74.4771344892171
322.058903756059;74.1431463201841
322.080512151487;73.8219344762393
322.102120546915;73.5055109908357
322.123728942343;73.195879794409
322.145337337771;72.895255390358
322.166945733199;72.6089408341826
322.188554128627;72.3403446731507
322.210162524055;72.0904111923396
322.231770919483;71.8593020320647
322.253379314911;71.6482037089415
322.274987710339;71.4575559771392
322.296596105767;71.2835858728309
322.318204501195;71.1178197769213
322.339812896623;70.9620012609484
322.361421292051;70.8277391966855
322.383029687479;70.721516648141
322.404638082907;70.6384593962557
322.426246478335;70.5681161222005
322.447854873763;70.4959550659621
322.469463269191;70.4059830748959
322.491071664619;70.2936323483869
322.512680060047;70.1647988441598
322.534288455475;70.0142593428916
322.555896850903;69.837619367889
322.577505246331;69.6472277691324
322.599113641759;69.4530837415879
322.620722037187;69.2529731849075
322.642330432615;69.0368149596272
322.663938828043;68.7968567125925
322.685547223471;68.5507857723798
322.707155618899;68.3138268450064
322.728764014327;68.088009941007
322.750372409755;67.8729110473497
322.771980805183;67.6633835241012
322.793589200611;67.4497851985767
322.815197596039;67.2280422014336
322.836805991466;67.0113449398002
322.858414386894;66.8131133072726
322.880022782322;66.6286383790079
322.90163117775;66.4496768459975
322.923239573178;66.2700604766491
322.944847968606;66.0824263823527
322.966456364034;65.8823430018845
322.988064759462;65.674730995839
323.00967315489;65.4571617513729
323.031281550318;65.2239010250158
323.052889945746;64.9681060684128
323.074498341174;64.6891347270303
323.096106736602;64.4050442039956
323.11771513203;64.1219309899042
323.139323527458;63.8419817036067
323.160931922886;63.5807225013657
323.182540318314;63.3464625870521
323.204148713742;63.1488879511101
323.22575710917;62.992654438235
323.247365504598;62.8809274416003
323.268973900026;62.8147825486059
323.290582295454;62.7802560811379
323.312190690882;62.7728470412372
323.33379908631;62.8048747362369
323.355407481738;62.8652834256944
323.377015877166;62.9497639750224
323.398624272594;63.0549509588663
323.420232668022;63.1703545561814
323.44184106345;63.2920097942292
323.463449458878;63.4173226619338
323.485057854306;63.542703117169
323.506666249734;63.6671206762705
323.528274645162;63.7949144799103
323.54988304059;63.9316258267567
323.571491436018;64.0803907438762
323.593099831446;64.2470011164836
323.614708226874;64.4381344829564
323.636316622302;64.6481602032416
323.65792501773;64.849092128885
323.679533413158;65.0416561570134
323.701141808586;65.2352789522507
323.722750204014;65.4378069556826
323.744358599442;65.6447181023265
323.76596699487;65.8410721786304
323.787575390298;66.0171336177717
323.809183785726;66.1576218528143
323.830792181154;66.2642074828875
323.852400576582;66.3393268311154
323.87400897201;66.3791693237878
323.895617367438;66.382236618324
323.917225762866;66.3492616968579
323.938834158294;66.2866148320664
323.960442553721;66.2006413791426
323.982050949149;66.1058024872419
324.003659344577;66.0015301482984
324.025267740005;65.8895858401211
324.046876135433;65.7803855313537
324.068484530861;65.682408272873
324.090092926289;65.5958205627292
324.111701321717;65.5188207449516
324.133309717145;65.4443997095046
324.154918112573;65.3570788425887
324.176526508001;65.2366165237355
324.198134903429;65.0830820058101
324.219743298857;64.9188773693528
324.241351694285;64.7267610215187
324.262960089713;64.4808575888392
324.284568485141;64.1692045333882
324.306176880569;63.7881603587735
324.327785275997;63.3471753612425
324.349393671425;62.8714106240917
324.371002066853;62.360023895827
324.392610462281;61.7954899763895
324.414218857709;61.1820226992418
324.435827253137;60.5343362971477
324.457435648565;59.8420508521274
324.479044043993;59.1306822783906
324.500652439421;58.4325226122865
324.522260834849;57.7501391575259
324.543869230277;57.0830533133335
324.565477625705;56.4454860756612
324.587086021133;55.8379000056322
324.608694416561;55.2333102953019
324.630302811989;54.6166709295806
324.651911207417;54.0267250406579
324.673519602845;53.4964389331561
324.695127998273;53.0029025295951
324.716736393701;52.5304073083746
324.738344789129;52.0977453033717
324.759953184557;51.7162627030028
