Name;BF_ESR_01_360s_Y_gon_160dg_result

Recipe
Accumulations;5;Number of accumulations
RetryCount;0;Number of retries on error
AbortOnError;True;Abort on error
EnableQFactorMeasurement;False;Enable/Disable q-Factor measurement
Bfrom;313;B from
Bto;363;B to
SweepTime;60;Sweep time
Modulation;0.2;Modulation
ModulationFreq;100;Modulation
BHoldEnabled;False;B hold enabled
BHold;0;B hold
MicrowavePower;2;Microwave power
MarkerEnabled;False;
MarkerStartField;0;
MarkerEndField;0;
Mode;;
KineticGFact;0;
KineticTotalTransientTime;0;
KineticTimeResolution;0;
TempFrom;5;
TempUseSlope;False;
TempTo;5;
TempdT;1;
TempSetupTime;0;
GonFrom;0;
GonTo;180;
GonSteps;20;
XRayEnabled;False;
XRayTime;3;
XRayVoltage;40;
XRayCurrent;0.5;
UVEnabled;False;
UVIntensity;0;
UVTime;0;
UVLeadTime;0;
UVWavelength;0;
PowSweepFrom;1;
PowSweepTo;5;
PowSweepSteps;5;
AmpModSweepFrom;0;
AmpModSweepTo;1;
AmpModSweepSteps;10;
ExtTriggerEnabled;False;
ExtTrigLeadTime;0;
ExtTrigOnTime;5;

Meas
BField [mT];MW_Absorption []
313.013332672119;74.8831856396102
313.034949113259;74.369253057121
313.056565554399;73.6961331638072
313.078181995539;72.9492628566302
313.099798436679;72.1545502398359
313.121414877818;71.3227633974945
313.143031318958;70.4738730733725
313.164647760098;69.6117096990053
313.186264201238;68.7481018530713
313.207880642378;67.9295163301844
313.229497083518;67.1790530832837
313.251113524658;66.4805372509385
313.272729965798;65.8201331336779
313.294346406937;65.2397565711598
313.315962848077;64.7953425067877
313.337579289217;64.4727442316188
313.359195730357;64.2332161234714
313.380812171497;64.0581032214079
313.402428612637;63.9388858536417
313.424045053777;63.8728477226372
313.445661494917;63.8415574423895
313.467277936056;63.8265601777854
313.488894377196;63.8192465763103
313.510510818336;63.805070821847
313.532127259476;63.7708635187317
313.553743700616;63.7103238591998
313.575360141756;63.6225347412141
313.596976582896;63.5076064976716
313.618593024036;63.3725348644789
313.640209465175;63.2329261383911
313.661825906315;63.099963275328
313.683442347455;62.9790346143215
313.705058788595;62.8849721511367
313.726675229735;62.8169906961299
313.748291670875;62.7776198455309
313.769908112015;62.7617691843385
313.791524553154;62.7418662591325
313.813140994294;62.7004939968141
313.834757435434;62.6500157874558
313.856373876574;62.5894288420987
313.877990317714;62.5083403487221
313.899606758854;62.4007645159888
313.921223199994;62.266738084035
313.942839641134;62.1057724452018
313.964456082274;61.9264995941839
313.986072523413;61.7470755163845
314.007688964553;61.5697345018561
314.029305405693;61.3986861769036
314.050921846833;61.2575679613949
314.072538287973;61.1657081222196
314.094154729113;61.1134578504248
314.115771170253;61.0960212164364
314.137387611392;61.1199609294416
314.159004052532;61.1762408911899
314.180620493672;61.2665031507915
314.202236934812;61.3853607022985
314.223853375952;61.524480902185
314.245469817092;61.6764255375164
314.267086258232;61.8260691219803
314.288702699372;61.9650770213599
314.310319140511;62.081501513795
314.331935581651;62.1688580393655
314.353552022791;62.2275454896486
314.375168463931;62.2599721798443
314.396784905071;62.2702462151773
314.418401346211;62.2502463916588
314.440017787351;62.1932572845366
314.461634228491;62.1049590327131
314.48325066963;61.9942935189574
314.50486711077;61.8624397513167
314.52648355191;61.7103635041045
314.54809999305;61.5551177470265
314.56971643419;61.4055593980524
314.59133287533;61.2530062670962
314.61294931647;61.0883156810024
314.634565757609;60.9063175371404
314.656182198749;60.7206108866039
314.677798639889;60.5504159846046
314.699415081029;60.3993553930421
314.721031522169;60.2607616576817
314.742647963309;60.1269897162776
314.764264404449;59.9995121848154
314.785880845589;59.8928933850773
314.807497286728;59.8158475258008
314.829113727868;59.7669814272922
314.850730169008;59.7429195774741
314.872346610148;59.744362878407
314.893963051288;59.7808246279297
314.915579492428;59.8500898509244
314.937195933568;59.9406382853854
314.958812374708;60.0436455732266
314.980428815847;60.154486528102
315.002045256987;60.2690707001957
315.023661698127;60.3786100337155
315.045278139267;60.4705888509058
315.066894580407;60.5302170038317
315.088511021547;60.5455229577143
315.110127462687;60.5081688017366
315.131743903827;60.4085757147932
315.153360344966;60.2438784092086
315.174976786106;60.0210877700772
315.196593227246;59.7476293218325
315.218209668386;59.4321883238404
315.239826109526;59.0821516803219
315.261442550666;58.7012719965079
315.283058991806;58.3033798023477
315.304675432946;57.8989053234233
315.326291874085;57.4933849008203
315.347908315225;57.0815658443251
315.369524756365;56.6666252927556
315.391141197505;56.2774041897164
315.412757638645;55.914075698671
315.434374079785;55.557314240254
315.455990520925;55.1967704429217
315.477606962065;54.8584170988039
315.499223403204;54.5594396372747
315.520839844344;54.3002312621371
315.542456285484;54.0682865234296
315.564072726624;53.8642787376339
315.585689167764;53.6909358808066
315.607305608904;53.5491853595636
315.628922050044;53.437914254135
315.650538491183;53.3565382597076
315.672154932323;53.3065461297017
315.693771373463;53.2799659474044
315.715387814603;53.2691047348434
315.737004255743;53.2761811814895
315.758620696883;53.3051597599878
315.780237138023;53.3487637022108
315.801853579163;53.4014666556466
315.823470020302;53.4640481166732
315.845086461442;53.5446007178014
315.866702902582;53.6545463609253
315.888319343722;53.7848059943842
315.909935784862;53.9179630134612
315.931552226002;54.0516982081974
315.953168667142;54.1824591619749
315.974785108282;54.3123657164096
315.996401549421;54.44515389127
316.018017990561;54.5774651948526
316.039634431701;54.7039854649479
316.061250872841;54.8222316041216
316.082867313981;54.9273083379945
316.104483755121;55.0163695594473
316.126100196261;55.089811396133
316.1477166374;55.1539868648745
316.16933307854;55.2092358247849
316.19094951968;55.2467750676033
316.21256596082;55.2626849457977
316.23418240196;55.264575168233
316.2557988431;55.2606960844323
316.27741528424;55.2490866495771
316.29903172538;55.2236532759102
316.32064816652;55.1772575794094
316.342264607659;55.1081302264551
316.363881048799;55.0344115006299
316.385497489939;54.9738197404773
316.407113931079;54.913442249675
316.428730372219;54.8387993712319
316.450346813359;54.7487967933633
316.471963254499;54.6429279459601
316.493579695638;54.5206206025224
316.515196136778;54.3889074694087
316.536812577918;54.2520536448268
316.558429019058;54.1034433540048
316.580045460198;53.9447420380416
316.601661901338;53.7843868421655
316.623278342478;53.6203552385843
316.644894783618;53.4569275145778
316.666511224757;53.2995383946645
316.688127665897;53.146620087969
316.709744107037;53.0020617898099
316.731360548177;52.8665144698299
316.752976989317;52.7466768901578
316.774593430457;52.6439513047459
316.796209871597;52.5552083224716
316.817826312737;52.4840236255337
316.839442753876;52.4272315668422
316.861059195016;52.3704722669776
316.882675636156;52.3157457855641
316.904292077296;52.2602571851636
316.925908518436;52.1910823773923
316.947524959576;52.1184715147711
316.969141400716;52.0608786123879
316.990757841856;52.0196358873144
317.012374282995;51.9988587384066
317.033990724135;52.0153004480694
317.055607165275;52.0626893636497
317.077223606415;52.1349971451189
317.098840047555;52.2295964830218
317.120456488695;52.3429489227703
317.142072929835;52.4700464501806
317.163689370974;52.6075928316565
317.185305812114;52.7515044189933
317.206922253254;52.8848834202096
317.228538694394;52.9921937144705
317.250155135534;53.0672655911949
317.271771576674;53.1077239726613
317.293388017814;53.1084775152509
317.315004458954;53.0646967836553
317.336620900093;52.9834346856026
317.358237341233;52.8806768373544
317.379853782373;52.7626562785912
317.401470223513;52.6226658957057
317.423086664653;52.4593143910184
317.444703105793;52.281454998879
317.466319546933;52.0993330917209
317.487935988073;51.9150916054828
317.509552429212;51.7292238621545
317.531168870352;51.5344506892166
317.552785311492;51.3192990496351
317.574401752632;51.0789479810597
317.596018193772;50.8224690598035
317.617634634912;50.5573282488503
317.639251076052;50.2910226193285
317.660867517191;50.0328307819715
317.682483958331;49.7883984829108
317.704100399471;49.558554001487
317.725716840611;49.3479487369272
317.747333281751;49.1672244882323
317.768949722891;49.014959160427
317.790566164031;48.8820885213175
317.812182605171;48.770249481617
317.833799046311;48.6895009271062
317.85541548745;48.6530766625158
317.87703192859;48.6626868568537
317.89864836973;48.7105084379247
317.92026481087;48.7845764785153
317.94188125201;48.8743625463578
317.96349769315;48.9730969559821
317.98511413429;49.0779656751687
318.006730575429;49.185246825558
318.028347016569;49.2885679653574
318.049963457709;49.3772007347551
318.071579898849;49.4451803638351
318.093196339989;49.4934913285373
318.114812781129;49.5241632372537
318.136429222269;49.540482931794
318.158045663409;49.5459295762822
318.179662104548;49.5418268874914
318.201278545688;49.5330457870138
318.222894986828;49.5313580526108
318.244511427968;49.5496414225553
318.266127869108;49.5959528843912
318.287744310248;49.6710643765129
318.309360751388;49.777238966412
318.330977192528;49.9193858886757
318.352593633667;50.0934140373963
318.374210074807;50.2882659544355
318.395826515947;50.4926484020146
318.417442957087;50.7033020964494
318.439059398227;50.9109577488374
318.460675839367;51.0911218103387
318.482292280507;51.242517242456
318.503908721647;51.3614459937265
318.525525162786;51.4406643295694
318.547141603926;51.4763313402795
318.568758045066;51.464294457051
318.590374486206;51.4038075338881
318.611990927346;51.2840909515924
318.633607368486;51.1042929507225
318.655223809626;50.8867804602118
318.676840250766;50.6515375660708
318.698456691905;50.3988889592968
318.720073133045;50.118768301031
318.741689574185;49.7995717350058
318.763306015325;49.4513693278861
318.784922456465;49.1140806433718
318.806538897605;48.7956375950574
318.828155338745;48.4853712758815
318.849771779884;48.1826971123632
318.871388221024;47.9040494586755
318.893004662164;47.6557833577939
318.914621103304;47.4362841498371
318.936237544444;47.2590511739697
318.957853985584;47.1363605213761
318.979470426724;47.0697871558389
319.001086867864;47.0272494269451
319.022703309003;46.9971682784929
319.044319750143;46.9884504035703
319.065936191283;47.0003207001159
319.087552632423;47.0209251367634
319.109169073563;47.0363318744708
319.130785514703;47.0340899978228
319.152401955843;47.0068850643242
319.174018396983;46.9587321313118
319.195634838122;46.8847924725972
319.217251279262;46.7805559505684
319.238867720402;46.6375341112607
319.260484161542;46.4324549479525
319.282100602682;46.144263697425
319.303717043822;45.7983125696224
319.325333484962;45.4351155173141
319.346949926102;45.0596757294504
319.368566367241;44.6609612363298
319.390182808381;44.2405468067675
319.411799249521;43.814616625644
319.433415690661;43.4066537942857
319.455032131801;43.0302142242418
319.476648572941;42.6888520057364
319.498265014081;42.3917287367047
319.51988145522;42.1456119124007
319.54149789636;41.9722494882352
319.5631143375;41.8983160023686
319.58473077864;41.9188983075492
319.60634721978;42.0199313180909
319.62796366092;42.1903638586587
319.64958010206;42.4274575687176
319.6711965432;42.7173710232496
319.692812984339;43.0374934996718
319.714429425479;43.3576588485849
319.736045866619;43.6574529420061
319.757662307759;43.9339964882541
319.779278748899;44.1852161458944
319.800895190039;44.3967335999579
319.822511631179;44.5560470648127
319.844128072319;44.6533327077871
319.865744513458;44.6896474926119
319.887360954598;44.6683971277452
319.908977395738;44.5980291307133
319.930593836878;44.4897314377436
319.952210278018;44.3546069181578
319.973826719158;44.201027378893
319.995443160298;44.0367660356051
320.017059601438;43.8734436411273
320.038676042577;43.7190564910238
320.060292483717;43.5782906167298
320.081908924857;43.4583045562914
320.103525365997;43.3568983992821
320.125141807137;43.2672503887317
320.146758248277;43.1830315432694
320.168374689417;43.0989152305766
320.189991130557;43.0156753812575
320.211607571696;42.9327589639657
320.233224012836;42.8391675118897
320.254840453976;42.7221338843723
320.276456895116;42.5735468637791
320.298073336256;42.3916371546496
320.319689777396;42.184232449653
320.341306218536;41.9559582230132
320.362922659675;41.7039274173937
320.384539100815;41.4322335202478
320.406155541955;41.1621840076373
320.427771983095;40.9060975458207
320.449388424235;40.6607010696178
320.471004865375;40.4245763463676
320.492621306515;40.2006059486619
320.514237747655;39.9959248659997
320.535854188794;39.8120620724906
320.557470629934;39.6401487166777
320.579087071074;39.4665865644306
320.600703512214;39.2836184508108
320.622319953354;39.0963027242777
320.643936394494;38.9129309852656
320.665552835634;38.7339760421475
320.687169276774;38.5545906530925
320.708785717913;38.3728139483205
320.730402159053;38.1927941173013
320.752018600193;38.0248357737028
320.773635041333;37.8825482314313
320.795251482473;37.7714900900253
320.816867923613;37.6864886196017
320.838484364753;37.6221573829887
320.860100805893;37.5747739308884
320.881717247032;37.547706933433
320.903333688172;37.5414776956652
320.924950129312;37.5525901798809
320.946566570452;37.5795638387949
320.968183011592;37.630126860218
320.989799452732;37.7149874357304
321.011415893872;37.8297464156731
321.033032335012;37.9598672596798
321.054648776151;38.0979178058159
321.076265217291;38.2667368802204
321.097881658431;38.4855192286314
321.119498099571;38.758380430572
321.141114540711;39.0719003136778
321.162730981851;39.4056948992689
321.184347422991;39.7509890128266
321.20596386413;40.1035829267097
321.22758030527;40.4558827819068
321.24919674641;40.8076606210221
321.27081318755;41.1653141344412
321.29242962869;41.5208089713525
321.31404606983;41.8341315719792
321.33566251097;42.0949915715182
321.35727895211;42.3060669678038
321.378895393249;42.4696805480238
321.400511834389;42.5786653864172
321.422128275529;42.6280853084903
321.443744716669;42.6162509089016
321.465361157809;42.5403446640456
321.486977598949;42.4047628656791
321.508594040089;42.21454965436
321.530210481229;41.9798749447717
321.551826922368;41.7163813156988
321.573443363508;41.434797882406
321.595059804648;41.1420566172776
321.616676245788;40.8401912388994
321.638292686928;40.5328435475052
321.659909128068;40.2266219546614
321.681525569208;39.9284536413211
321.703142010348;39.6396432003998
321.724758451487;39.367966478699
321.746374892627;39.1190979509829
321.767991333767;38.8891940669478
321.789607774907;38.666672036219
321.811224216047;38.4378083689726
321.832840657187;38.2021268706118
321.854457098327;37.9531473751612
321.876073539466;37.6745507442647
321.897689980606;37.3537481432664
321.919306421746;36.9876279658376
321.940922862886;36.5873020701586
321.962539304026;36.1694725563186
321.984155745166;35.7356837995578
322.005772186306;35.2880782927409
322.027388627446;34.8314345600822
322.049005068585;34.3732016792632
322.070621509725;33.9188308456411
322.092237950865;33.4754213215491
322.113854392005;33.0441363067643
322.135470833145;32.6289748906372
322.157087274285;32.2512606637914
322.178703715425;31.9266273145521
322.200320156565;31.6376007942904
322.221936597704;31.3734626717941
322.243553038844;31.1459277881946
322.265169479984;30.9728439748115
322.286785921124;30.8519584490896
322.308402362264;30.7746651154926
322.330018803404;30.7298271240814
322.351635244544;30.7098773548545
322.373251685684;30.7145355146457
322.394868126823;30.7476459071063
322.416484567963;30.8142313073787
322.438101009103;30.9121079584068
322.459717450243;31.0254590844458
322.481333891383;31.1463545033069
322.502950332523;31.2727339636864
322.524566773663;31.3983511527902
322.546183214803;31.5105161761029
322.567799655942;31.5975416685033
322.589416097082;31.6570783252584
322.611032538222;31.6855954919491
322.632648979362;31.6646021012697
322.654265420502;31.5904366330288
322.675881861642;31.4771285405109
322.697498302782;31.329640954532
322.719114743921;31.1475200036644
322.740731185061;30.9453317933867
322.762347626201;30.770796964811
322.783964067341;30.6346796149069
322.805580508481;30.5281633733968
322.827196949621;30.4553663747585
322.848813390761;30.4318513234211
322.870429831901;30.4658604368206
322.89204627304;30.5460535000788
322.91366271418;30.647248425863
322.93527915532;30.7580957487855
322.95689559646;30.8789115887965
322.9785120376;31.0076639193482
323.00012847874;31.1300634691829
323.02174491988;31.2295764081134
323.04336136102;31.3021318619171
323.064977802159;31.3435197456956
323.086594243299;31.3344013446425
323.108210684439;31.2751046197469
323.129827125579;31.1804322370877
323.151443566719;31.0630265890828
323.173060007859;30.9271348838577
323.194676448999;30.7875482356325
323.216292890139;30.6590174755029
323.237909331278;30.5413827443244
323.259525772418;30.4375734279977
323.281142213558;30.3636898733568
323.302758654698;30.3251053022333
323.324375095838;30.3095529492528
323.345991536978;30.3062665577839
323.367607978118;30.3178195647674
323.389224419257;30.3490541480989
323.410840860397;30.3961831607647
323.432457301537;30.4487377167575
323.454073742677;30.5032725491341
323.475690183817;30.5505967025719
323.497306624957;30.5820585825751
323.518923066097;30.592815061072
323.540539507237;30.5844603254119
323.562155948376;30.5582928126096
323.583772389516;30.5065469733093
323.605388830656;30.4187906999844
323.627005271796;30.2898589428147
323.648621712936;30.1327365957493
323.670238154076;29.9654745793958
323.691854595216;29.7869029351554
323.713471036356;29.5863909272335
323.735087477495;29.3559611008038
323.756703918635;29.1121579566272
323.778320359775;28.8793978470366
323.799936800915;28.6660867969353
323.821553242055;28.4818719938379
323.843169683195;28.3366331062075
323.864786124335;28.2346852543833
323.886402565475;28.179234746417
323.908019006614;28.1729370306698
323.929635447754;28.2160902263296
323.951251888894;28.3061843131544
323.972868330034;28.4358850358651
323.994484771174;28.5954764556331
324.016101212314;28.7776941193716
324.037717653454;28.9807057139014
324.059334094594;29.1917601798858
324.080950535733;29.3968207008324
324.102566976873;29.5933959422681
324.124183418013;29.7758997865672
324.145799859153;29.9350900340922
324.167416300293;30.0674285619097
324.189032741433;30.1708583775789
324.210649182573;30.2454423136037
324.232265623712;30.297511287386
324.253882064852;30.3267813963162
324.275498505992;30.3226360575078
324.297114947132;30.2803176025284
324.318731388272;30.2256422769458
324.340347829412;30.16239978638
324.361964270552;30.0900130206315
324.383580711692;30.0071986597641
324.405197152831;29.9052088235461
324.426813593971;29.7803332492777
324.448430035111;29.645186511262
324.470046476251;29.5082860068334
324.491662917391;29.3615654625736
324.513279358531;29.1983070245084
324.534895799671;29.0190402488656
324.556512240811;28.8282684751248
324.57812868195;28.6448714122212
324.59974512309;28.4694117260418
324.62136156423;28.302976943493
324.64297800537;28.1465653377077
324.66459444651;27.9980858827264
324.68621088765;27.8624885338103
324.70782732879;27.7443747349612
324.72944376993;27.6448603477819
324.751060211069;27.5620404529184
