Name;BF_ESR_01_3600s_X_gon_20dg_result

Recipe
Accumulations;5;Number of accumulations
RetryCount;0;Number of retries on error
AbortOnError;True;Abort on error
EnableQFactorMeasurement;False;Enable/Disable q-Factor measurement
Bfrom;313;B from
Bto;363;B to
SweepTime;60;Sweep time
Modulation;0.2;Modulation
ModulationFreq;100;Modulation
BHoldEnabled;False;B hold enabled
BHold;0;B hold
MicrowavePower;2;Microwave power
MarkerEnabled;False;
MarkerStartField;0;
MarkerEndField;0;
Mode;;
KineticGFact;0;
KineticTotalTransientTime;0;
KineticTimeResolution;0;
TempFrom;5;
TempUseSlope;False;
TempTo;5;
TempdT;1;
TempSetupTime;0;
GonFrom;0;
GonTo;180;
GonSteps;20;
XRayEnabled;False;
XRayTime;3;
XRayVoltage;40;
XRayCurrent;0.5;
UVEnabled;False;
UVIntensity;0;
UVTime;0;
UVLeadTime;0;
UVWavelength;0;
PowSweepFrom;1;
PowSweepTo;5;
PowSweepSteps;5;
AmpModSweepFrom;0;
AmpModSweepTo;1;
AmpModSweepSteps;10;
ExtTriggerEnabled;False;
ExtTrigLeadTime;0;
ExtTrigOnTime;5;

Meas
BField [mT];MW_Absorption []
313.022431945801;129.735160403788
313.044038718464;131.387202728707
313.065645491128;133.019437719473
313.087252263792;134.639629103019
313.108859036456;136.29921031888
313.130465809119;138.028923680028
313.152072581783;139.828368286887
313.173679354447;141.673119188355
313.19528612711;143.558024089114
313.216892899774;145.534481961586
313.238499672438;147.631175114172
313.260106445101;149.779623978357
313.281713217765;151.898044080047
313.303319990429;153.966133079537
313.324926763092;156.0080950211
313.346533535756;158.045873908912
313.36814030842;160.116560890674
313.389747081083;162.287980446518
313.411353853747;164.540067222548
313.432960626411;166.892013029338
313.454567399074;169.376951424662
313.476174171738;171.959376184499
313.497780944402;174.524395881981
313.519387717065;177.063830601377
313.540994489729;179.696328255607
313.562601262393;182.485941525428
313.584208035057;185.285418218883
313.60581480772;187.969494303418
313.627421580384;190.552327093457
313.649028353048;193.101715887584
313.670635125711;195.696012946181
313.692241898375;198.402639081437
313.713848671039;201.205810288953
313.735455443702;203.988443680544
313.757062216366;206.712839383526
313.77866898903;209.397744262571
313.800275761693;212.058694642511
313.821882534357;214.723709181831
313.843489307021;217.396897126341
313.865096079684;220.066127892857
313.886702852348;222.820616991675
313.908309625012;225.674026488927
313.929916397675;228.484739823128
313.951523170339;231.232555453572
313.973129943003;233.966945935969
313.994736715667;236.641311623982
314.01634348833;239.207552608632
314.037950260994;241.688209421161
314.059557033658;244.13408932107
314.081163806321;246.61126815397
314.102770578985;249.135161906916
314.124377351649;251.625402338376
314.145984124312;254.02074330298
314.167590896976;256.371468079596
314.18919766964;258.720158990915
314.210804442303;261.083484764706
314.232411214967;263.438300581609
314.254017987631;265.811285230025
314.275624760294;268.232340087664
314.297231532958;270.662188875571
314.318838305622;273.020604751777
314.340445078285;275.232544565832
314.362051850949;277.334235177523
314.383658623613;279.418476629673
314.405265396277;281.524759732585
314.42687216894;283.577533606617
314.448478941604;285.497356191191
314.470085714268;287.285601699617
314.491692486931;288.973523100894
314.513299259595;290.550083458273
314.534906032259;291.995241068654
314.556512804922;293.319843960798
314.578119577586;294.55606791808
314.59972635025;295.712877953608
314.621333122913;296.782485960691
314.642939895577;297.771228262026
314.664546668241;298.707093391792
314.686153440904;299.628262360149
314.707760213568;300.564352677659
314.729366986232;301.501538801961
314.750973758896;302.41634264003
314.772580531559;303.298433244033
314.794187304223;304.17947076783
314.815794076887;305.091103664323
314.83740084955;306.010873306539
314.859007622214;306.905046525005
314.880614394878;307.779120670494
314.902221167541;308.621879745584
314.923827940205;309.420522333688
314.945434712869;310.190135157043
314.967041485532;310.924279994289
314.988648258196;311.597292779906
315.01025503086;312.205135840303
315.031861803523;312.764696091796
315.053468576187;313.274447884193
315.075075348851;313.702478087464
315.096682121514;314.027124327552
315.118288894178;314.254866241947
315.139895666842;314.402871255838
315.161502439505;314.485469269432
315.183109212169;314.498303568409
315.204715984833;314.425500694703
315.226322757497;314.25900196415
315.24792953016;314.004591586922
315.269536302824;313.686215155527
315.291143075488;313.332314763555
315.312749848151;312.947130416421
315.334356620815;312.524890080573
315.355963393479;312.050520558885
315.377570166142;311.533846791908
315.399176938806;311.008500365313
315.42078371147;310.485986826949
315.442390484133;309.947545178572
315.463997256797;309.365952898148
315.485604029461;308.727029350241
315.507210802124;308.050770604135
315.528817574788;307.338875968468
315.550424347452;306.547165206037
315.572031120115;305.630848731888
315.593637892779;304.626355378143
315.615244665443;303.566814268514
315.636851438107;302.427322160123
315.65845821077;301.216558582303
315.680064983434;299.974783866701
315.701671756098;298.720163157057
315.723278528761;297.451254855899
315.744885301425;296.161690140368
315.766492074089;294.845832928704
315.788098846752;293.482169135722
315.809705619416;292.063679012268
315.83131239208;290.625117782424
315.852919164743;289.219698257457
315.874525937407;287.841996045265
315.896132710071;286.467297553663
315.917739482734;285.074443214323
315.939346255398;283.642220091265
315.960953028062;282.173012016288
315.982559800725;280.691462534482
316.004166573389;279.179710416351
316.025773346053;277.655067398839
316.047380118716;276.155181202402
316.06898689138;274.674683652587
316.090593664044;273.136329572203
316.112200436708;271.49957877174
316.133807209371;269.806351426803
316.155413982035;268.100297185461
316.177020754699;266.346936719514
316.198627527362;264.476502627928
316.220234300026;262.467704249378
316.24184107269;260.390172756347
316.263447845353;258.235058975292
316.285054618017;255.937844632075
316.306661390681;253.530379850875
316.328268163344;251.128653260854
316.349874936008;248.775480262534
316.371481708672;246.450714424878
316.393088481335;244.120364736423
316.414695253999;241.734562217897
316.436302026663;239.34491240721
316.457908799327;237.037840864304
316.47951557199;234.718600232293
316.501122344654;232.308769463044
316.522729117318;229.793765374784
316.544335889981;227.175968191963
316.565942662645;224.522933399563
316.587549435309;221.875856196733
316.609156207972;219.22746410941
316.630762980636;216.564449472619
316.6523697533;213.899645343635
316.673976525963;211.22252282895
316.695583298627;208.471850051747
316.717190071291;205.595871444372
316.738796843954;202.645142493719
316.760403616618;199.696949283831
316.782010389282;196.776363999801
316.803617161945;193.898733846933
316.825223934609;191.064855246978
316.846830707273;188.318995759915
316.868437479937;185.675098786667
316.8900442526;183.187863593974
316.911651025264;180.964811867476
316.933257797928;178.932259882207
316.954864570591;176.960882814356
316.976471343255;174.963556401865
316.998078115919;172.913308969005
317.019684888582;170.900804354946
317.041291661246;168.999505838267
317.06289843391;167.21381581053
317.084505206573;165.526710719816
317.106111979237;163.863789440335
317.127718751901;162.163366922967
317.149325524564;160.386384211769
317.170932297228;158.512832567465
317.192539069892;156.582256755803
317.214145842555;154.671128960716
317.235752615219;152.814047495476
317.257359387883;150.949902438693
317.278966160547;149.008791411732
317.30057293321;146.96695672787
317.322179705874;144.876783320305
317.343786478538;142.873422555465
317.365393251201;140.967489298612
317.387000023865;139.030006419709
317.408606796529;136.998410757166
317.430213569192;134.87929663558
317.451820341856;132.706433962298
317.47342711452;130.501416070153
317.495033887183;128.246815551593
317.516640659847;125.862770899314
317.538247432511;123.315107944944
317.559854205174;120.661492552646
317.581460977838;117.994316726201
317.603067750502;115.390900271752
317.624674523165;112.758676624431
317.646281295829;109.970542877402
317.667888068493;106.934165789335
317.689494841156;103.776483396354
317.71110161382;100.709501891443
317.732708386484;97.6358337186371
317.754315159148;94.4635141523192
317.775921931811;91.3218375743155
317.797528704475;88.3656127919436
317.819135477139;85.5866161615135
317.840742249802;82.8112302069943
317.862349022466;79.8511704326334
317.88395579513;76.7617686420099
317.905562567793;73.6791821729889
317.927169340457;70.6747003893933
317.948776113121;67.6911480634373
317.970382885784;64.6855575935577
317.991989658448;61.7820670860902
318.013596431112;58.9942343033469
318.035203203775;56.2466508023877
318.056809976439;53.5258439954392
318.078416749103;50.8287675346081
318.100023521767;48.1309797403695
318.12163029443;45.3812131346867
318.143237067094;42.6175586438563
318.164843839758;39.9591595957729
318.186450612421;37.4296157746174
318.208057385085;34.96032655681
318.229664157749;32.5376773281284
318.251270930412;30.1933858270325
318.272877703076;27.9547877144943
318.29448447574;25.7858623529112
318.316091248403;23.6284833667117
318.337698021067;21.5477804149469
318.359304793731;19.5427965571945
318.380911566394;17.5724090800651
318.402518339058;15.6114821497407
318.424125111722;13.6822633670877
318.445731884385;11.7981818959871
318.467338657049;9.91511781638047
318.488945429713;7.97988073804797
318.510552202377;6.02159395592913
318.53215897504;4.14737779008661
318.553765747704;2.43084037012167
318.575372520368;0.837204369987873
318.596979293031;-0.70742995921232
318.618586065695;-2.20263351344629
318.640192838359;-3.6114001322608
318.661799611022;-4.94403810951735
318.683406383686;-6.21563398363993
318.70501315635;-7.39523770926762
318.726619929013;-8.44914751718518
318.748226701677;-9.37735886655771
318.769833474341;-10.2018903755198
318.791440247004;-10.9378252603384
318.813047019668;-11.586339296939
318.834653792332;-12.1437095545766
318.856260564995;-12.6133044782562
318.877867337659;-13.0070283639843
318.899474110323;-13.3428094271486
318.921080882986;-13.6455823528573
318.94268765565;-13.9290880442197
318.964294428314;-14.2028793847149
318.985901200978;-14.4552408941764
319.007507973641;-14.6721581218988
319.029114746305;-14.8768176147375
319.050721518969;-15.0827355455429
319.072328291632;-15.2899154245572
319.093935064296;-15.4900162210648
319.11554183696;-15.6718476617253
319.137148609623;-15.8300687385837
319.158755382287;-15.9533673235263
319.180362154951;-16.0379043731252
319.201968927614;-16.0969646832066
319.223575700278;-16.1440297912636
319.245182472942;-16.1718943296658
319.266789245605;-16.1543395184985
319.288396018269;-16.0874170154317
319.310002790933;-15.9836004802095
319.331609563596;-15.8466674399817
319.35321633626;-15.6767032664274
319.374823108924;-15.4803459668048
319.396429881588;-15.2716346702524
319.418036654251;-15.0374890625414
319.439643426915;-14.7648827211325
319.461250199579;-14.4584834578896
319.482856972242;-14.1183154789217
319.504463744906;-13.7398167386637
319.52607051757;-13.3272902444476
319.547677290233;-12.8825754467449
319.569284062897;-12.4077210211689
319.590890835561;-11.908775219813
319.612497608224;-11.3862121043349
319.634104380888;-10.8278867669757
319.655711153552;-10.214203147486
319.677317926215;-9.53406742595094
319.698924698879;-8.83239913782371
319.720531471543;-8.14042348025227
319.742138244207;-7.45625631259701
319.76374501687;-6.76508571995963
319.785351789534;-6.06639794974403
319.806958562198;-5.36679260998575
319.828565334861;-4.66622075202683
319.850172107525;-3.97583093049722
319.871778880189;-3.31969576339276
319.893385652852;-2.69746198930146
319.914992425516;-2.09895288841153
319.93659919818;-1.53291743450103
319.958205970843;-1.00833058863115
319.979812743507;-0.500641873570061
320.001419516171;0.00472848241773249
320.023026288834;0.485777890659122
320.044633061498;0.929242488738936
320.066239834162;1.36429317870521
320.087846606825;1.82373746986947
320.109453379489;2.31693369820228
320.131060152153;2.82331986270063
320.152666924816;3.3456544585017
320.17427369748;3.90079804874738
320.195880470144;4.48812845150667
320.217487242808;5.11712632823979
320.239094015471;5.78045843764143
320.260700788135;6.45514657588416
320.282307560799;7.11253884541095
320.303914333462;7.7286623343486
320.325521106126;8.30716953275265
320.34712787879;8.85510713221845
320.368734651453;9.35451544202375
320.390341424117;9.79785984253168
320.411948196781;10.1899534608405
320.433554969444;10.5154822606728
320.455161742108;10.7714527742877
320.476768514772;10.9647586333184
320.498375287435;11.0996489868317
320.519982060099;11.1842732736278
320.541588832763;11.2443461444338
320.563195605426;11.2998038235984
320.58480237809;11.3511067457094
320.606409150754;11.3990326521318
320.628015923418;11.4502775068979
320.649622696081;11.5160503003534
320.671229468745;11.6084182592067
320.692836241409;11.7343661109674
320.714443014072;11.8876286114777
320.736049786736;12.0612894626293
320.7576565594;12.2575476992506
320.779263332063;12.4792086319975
320.800870104727;12.7158459910844
320.822476877391;12.9550550520219
320.844083650054;13.1939194660026
320.865690422718;13.442421416611
320.887297195382;13.7121728663392
320.908903968045;14.0022681495551
320.930510740709;14.2976683609059
320.952117513373;14.5868417184012
320.973724286036;14.8716304746884
320.9953310587;15.157988781726
321.016937831364;15.4512674157063
321.038544604028;15.7462259790046
321.060151376691;16.0368322489647
321.081758149355;16.3286678081391
321.103364922019;16.631558576768
321.124971694682;16.94819417221
321.146578467346;17.2738057234384
321.16818524001;17.6063112966015
321.189792012673;17.9412952610036
321.211398785337;18.2640415247704
321.233005558001;18.5678104226823
321.254612330664;18.8649477625824
321.276219103328;19.1708416861482
321.297825875992;19.4992162269999
321.319432648655;19.8462640701378
321.341039421319;20.2005206761886
321.362646193983;20.5673681426185
321.384252966647;20.9497474253836
321.40585973931;21.3325658436416
321.427466511974;21.713721751433
321.449073284638;22.1113986886386
321.470680057301;22.525311508946
321.492286829965;22.9499373262959
321.513893602629;23.3974302609586
321.535500375292;23.8768527903911
321.557107147956;24.3822018887281
321.57871392062;24.9114031530056
321.600320693283;25.4582806067939
321.621927465947;26.0185154285824
321.643534238611;26.6118134034841
321.665141011274;27.2590871323078
321.686747783938;27.9526620912358
321.708354556602;28.6579180013999
321.729961329265;29.3709351160882
321.751568101929;30.0868135603668
321.773174874593;30.7887870536751
321.794781647256;31.4618026068893
321.81638841992;32.1069434698045
321.837995192584;32.7388811573786
321.859601965248;33.3796987537664
321.881208737911;34.0373198069681
321.902815510575;34.6772699470779
321.924422283239;35.2724893531977
321.946029055902;35.8483862798386
321.967635828566;36.4341048987615
321.98924260123;37.0387306305465
322.010849373893;37.659389060067
322.032456146557;38.298075016298
322.054062919221;38.9459436372379
322.075669691884;39.5865578552495
322.097276464548;40.230082063604
322.118883237212;40.9023806816978
322.140490009875;41.6160926783876
322.162096782539;42.3426102082146
322.183703555203;43.0543490830823
322.205310327866;43.7524802428518
322.22691710053;44.4478167217037
322.248523873194;45.1571131024475
322.270130645858;45.9048176479769
322.291737418521;46.7016383484524
322.313344191185;47.5154923456437
322.334950963849;48.3101215354921
322.356557736512;49.0783882218455
322.378164509176;49.8263217501288
322.39977128184;50.56109575384
322.421378054503;51.2860222867021
322.442984827167;52.0032892994633
322.464591599831;52.7153483125389
322.486198372494;53.4129222197958
322.507805145158;54.0880906140396
322.529411917822;54.7437751222675
322.551018690485;55.3802499963355
322.572625463149;55.9947540759889
322.594232235813;56.5922022059166
322.615839008476;57.1953885073637
322.63744578114;57.829296580059
322.659052553804;58.5125814807492
322.680659326467;59.2319005868215
322.702266099131;59.9764487623001
322.723872871795;60.7679395000078
322.745479644459;61.6162022139114
322.767086417122;62.5187899490596
322.788693189786;63.480650409761
322.81029996245;64.5092040890165
322.831906735113;65.6034623405028
322.853513507777;66.7487858059351
322.875120280441;67.9255842442757
322.896727053104;69.1197901882032
322.918333825768;70.3181867204638
322.939940598432;71.5074666104554
322.961547371095;72.7019380555906
322.983154143759;73.9230406979822
323.004760916423;75.1849487442703
323.026367689086;76.4926482579667
323.04797446175;77.8306545750642
323.069581234414;79.1486670525362
323.091188007078;80.3861401777997
323.112794779741;81.5597800706488
323.134401552405;82.728772919465
323.156008325069;83.9350684280166
323.177615097732;85.1854085512931
323.199221870396;86.476011142136
323.22082864306;87.7503001414692
323.242435415723;88.9727377848856
323.264042188387;90.174478000261
323.285648961051;91.3825091559721
323.307255733714;92.6107381135093
323.328862506378;93.8475404224434
323.350469279042;95.048371071376
323.372076051705;96.1825752041611
323.393682824369;97.2454613995853
323.415289597033;98.2790675516098
323.436896369696;99.327224552911
323.45850314236;100.374032463066
323.480109915024;101.347975148336
323.501716687688;102.233234817006
323.523323460351;103.050221087539
323.544930233015;103.796637716607
323.566537005679;104.464798555245
323.588143778342;105.057720554377
323.609750551006;105.584215742087
323.63135732367;106.063534663151
323.652964096333;106.514454671633
323.674570868997;106.935412121664
323.696177641661;107.326191775521
323.717784414324;107.695477879743
323.739391186988;108.03968721192
323.760997959652;108.353970132917
323.782604732315;108.646866414954
323.804211504979;108.925416553804
323.825818277643;109.193846089134
323.847425050306;109.458486511383
323.86903182297;109.725154367068
323.890638595634;109.974466159421
323.912245368298;110.180103196728
323.933852140961;110.349573317164
323.955458913625;110.486932013413
323.977065686289;110.605441476183
323.998672458952;110.714404619714
324.020279231616;110.8125439936
324.04188600428;110.896455945878
324.063492776943;110.967789557
324.085099549607;111.040323739071
324.106706322271;111.126408915247
324.128313094934;111.225983997461
324.149919867598;111.343091290784
324.171526640262;111.484478391066
324.193133412925;111.650293865996
324.214740185589;111.833045541728
324.236346958253;112.021211656672
324.257953730916;112.198459116208
324.27956050358;112.34846892518
324.301167276244;112.452061829801
324.322774048907;112.510683043169
324.344380821571;112.511053353111
324.365987594235;112.418808614302
324.387594366899;112.216319061395
324.409201139562;111.924918008324
324.430807912226;111.556426729626
324.45241468489;111.097721990153
324.474021457553;110.532359989997
324.495628230217;109.862802044544
324.517235002881;109.116172290403
324.538841775544;108.312376323971
324.560448548208;107.458085337079
324.582055320872;106.554425374845
324.603662093535;105.594986961651
324.625268866199;104.55992288142
324.646875638863;103.454150411343
324.668482411526;102.32179320639
324.69008918419;101.253603027701
324.711695956854;100.254032193273
