Name;BF_ESR_01_360s_Z_gon_0dg_result

Recipe
Accumulations;5;Number of accumulations
RetryCount;0;Number of retries on error
AbortOnError;True;Abort on error
EnableQFactorMeasurement;False;Enable/Disable q-Factor measurement
Bfrom;313;B from
Bto;363;B to
SweepTime;60;Sweep time
Modulation;0.2;Modulation
ModulationFreq;100;Modulation
BHoldEnabled;False;B hold enabled
BHold;0;B hold
MicrowavePower;2;Microwave power
MarkerEnabled;False;
MarkerStartField;0;
MarkerEndField;0;
Mode;;
KineticGFact;0;
KineticTotalTransientTime;0;
KineticTimeResolution;0;
TempFrom;5;
TempUseSlope;False;
TempTo;5;
TempdT;1;
TempSetupTime;0;
GonFrom;0;
GonTo;180;
GonSteps;20;
XRayEnabled;False;
XRayTime;3;
XRayVoltage;40;
XRayCurrent;0.5;
UVEnabled;False;
UVIntensity;0;
UVTime;0;
UVLeadTime;0;
UVWavelength;0;
PowSweepFrom;1;
PowSweepTo;5;
PowSweepSteps;5;
AmpModSweepFrom;0;
AmpModSweepTo;1;
AmpModSweepSteps;10;
ExtTriggerEnabled;False;
ExtTrigLeadTime;0;
ExtTrigOnTime;5;

Meas
BField [mT];MW_Absorption []
313.03015625;63.215291884189
313.051780096376;63.3153737233323
313.073403942752;63.4040948495441
313.095027789128;63.4895976943359
313.116651635504;63.5782957955312
313.13827548188;63.6638692941936
313.159899328257;63.7275418379795
313.181523174633;63.7452446615844
313.203147021009;63.733689128092
313.224770867385;63.7090503591457
313.246394713761;63.6703011737199
313.268018560137;63.607606853693
313.289642406513;63.5212623559727
313.311266252889;63.4351664552882
313.332890099265;63.3646421774987
313.354513945641;63.3179165945026
313.376137792018;63.3027031844766
313.397761638394;63.3210182191552
313.41938548477;63.3689045769154
313.441009331146;63.4459245205138
313.462633177522;63.5533924174942
313.484257023898;63.6888064694116
313.505880870274;63.8459430464976
313.52750471665;64.0144306118564
313.549128563026;64.1848282050792
313.570752409402;64.3591099921649
313.592376255778;64.5276833157357
313.614000102155;64.6830530733764
313.635623948531;64.8183313694415
313.657247794907;64.9406937326262
313.678871641283;65.0664221741656
313.700495487659;65.2005743920832
313.722119334035;65.3419992509832
313.743743180411;65.4901522578938
313.765367026787;65.6441047756425
313.786990873163;65.802269503294
313.808614719539;65.9646390856716
313.830238565916;66.1327854120946
313.851862412292;66.2998234748079
313.873486258668;66.4563323636478
313.895110105044;66.5933195237693
313.91673395142;66.6964084388981
313.938357797796;66.758882232808
313.959981644172;66.7842039352186
313.981605490548;66.7626577870784
314.003229336924;66.689679796576
314.0248531833;66.5665291824661
314.046477029677;66.3931010071449
314.068100876053;66.1689849769557
314.089724722429;65.8930767107401
314.111348568805;65.5749068764607
314.132972415181;65.2272338584435
314.154596261557;64.8676486799959
314.176220107933;64.5020322492094
314.197843954309;64.1332793486163
314.219467800685;63.7720077502313
314.241091647061;63.4350459304291
314.262715493438;63.1338105483086
314.284339339814;62.8710637593282
314.30596318619;62.638204583629
314.327587032566;62.4293053426555
314.349210878942;62.2448347705668
314.370834725318;62.0861578044487
314.392458571694;61.9566613422878
314.41408241807;61.8494199140663
314.435706264446;61.7446361408316
314.457330110822;61.6453324492956
314.478953957198;61.5780198993944
314.500577803575;61.5483194079134
314.522201649951;61.5541783222717
314.543825496327;61.6009502037275
314.565449342703;61.6915270799955
314.587073189079;61.8311316205344
314.608697035455;62.0205934333597
314.630320881831;62.255587299456
314.651944728207;62.5291234458882
314.673568574583;62.8451227303434
314.695192420959;63.2057305677318
314.716816267336;63.5956550143308
314.738440113712;63.9948972843737
314.760063960088;64.3868232925854
314.781687806464;64.7625125507386
314.80331165284;65.1295155191471
314.824935499216;65.4883663472584
314.846559345592;65.8294460590464
314.868183191968;66.1501272087211
314.889807038344;66.4390918455801
314.91143088472;66.6812116922547
314.933054731096;66.8695413499787
314.954678577473;67.0047577002967
314.976302423849;67.0836689533662
314.997926270225;67.1021641089678
315.019550116601;67.0630594136898
315.041173962977;66.9708468702338
315.062797809353;66.8276421219567
315.084421655729;66.6359699227194
315.106045502105;66.4032308796503
315.127669348481;66.1432326820862
315.149293194857;65.8755712843069
315.170917041234;65.6110524123325
315.19254088761;65.3491555008038
315.214164733986;65.0897332212586
315.235788580362;64.8416582471955
315.257412426738;64.6122289686487
315.279036273114;64.4042084104316
315.30066011949;64.2077461043134
315.322283965866;64.0130312151383
315.343907812242;63.8118293617743
315.365531658618;63.5921064761111
315.387155504995;63.341362848703
315.408779351371;63.0465672583675
315.430403197747;62.7106183931222
315.452027044123;62.3445733754958
315.473650890499;61.9617529091823
315.495274736875;61.5629690379794
315.516898583251;61.1440748561593
315.538522429627;60.6982843149795
315.560146276003;60.2416064038638
315.581770122379;59.8111007781183
315.603393968755;59.4170184402233
315.625017815132;59.0394777668467
315.646641661508;58.6797103542483
315.668265507884;58.3508148830512
315.68988935426;58.0678583461972
315.711513200636;57.8443899625905
315.733137047012;57.6806955057756
315.754760893388;57.5725048690258
315.776384739764;57.513433101038
315.79800858614;57.4902576770486
315.819632432516;57.4989382822855
315.841256278893;57.5467254599097
315.862880125269;57.6186566503375
315.884503971645;57.700725812046
315.906127818021;57.7942923806511
315.927751664397;57.9018705141455
315.949375510773;58.0221394005865
315.970999357149;58.1475156458701
315.992623203525;58.2684186895073
316.014247049901;58.3765286332652
316.035870896277;58.4584367533118
316.057494742654;58.4850906734792
316.07911858903;58.4154268665615
316.100742435406;58.2430397648893
316.122366281782;58.0006198471639
316.143990128158;57.6632552113487
316.165613974534;57.2083853474123
316.18723782091;56.6767646101164
316.208861667286;56.1138808442957
316.230485513662;55.5248655910359
316.252109360038;54.9085178059992
316.273733206415;54.2943278002244
316.295357052791;53.783122023896
316.316980899167;53.4165667191614
316.338604745543;53.1954745622221
316.360228591919;53.216404041338
316.381852438295;53.4951350864442
316.403476284671;53.9607123906814
316.425100131047;54.5571543813513
316.446723977423;55.2812303926019
316.468347823799;56.1876369322816
316.489971670175;57.2512522315284
316.511595516552;58.1697791056683
316.533219362928;58.893602306838
316.554843209304;59.4439848016488
316.57646705568;59.8294149819593
316.598090902056;60.0582405055301
316.619714748432;60.1179471815415
316.641338594808;59.9831211456805
316.662962441184;59.7148759164499
316.68458628756;59.4303041360663
316.706210133936;59.1586561530281
316.727833980313;58.89977693496
316.749457826689;58.6629927164336
316.771081673065;58.496785807576
316.792705519441;58.4457988156889
316.814329365817;58.4974667795121
316.835953212193;58.6448678132501
316.857577058569;58.8730534722607
316.879200904945;59.1503314615377
316.900824751321;59.4630241364279
316.922448597697;59.8186760742585
316.944072444074;60.2059658863479
316.96569629045;60.5700309530776
316.987320136826;60.8897745523579
317.008943983202;61.1864303338355
317.030567829578;61.4742336632994
317.052191675954;61.7522866803952
317.07381552233;62.0057552967333
317.095439368706;62.2244876635378
317.117063215082;62.4117916434358
317.138687061458;62.5674012959405
317.160310907835;62.6899723426687
317.181934754211;62.7828267965929
317.203558600587;62.8498627658108
317.225182446963;62.8960626056484
317.246806293339;62.923908461584
317.268430139715;62.9172934145863
317.290053986091;62.8815506437211
317.311677832467;62.8212165352188
317.333301678843;62.7335970631855
317.354925525219;62.6142295972808
317.376549371595;62.4639954050556
317.398173217972;62.2892437536599
317.419797064348;62.1116385338201
317.441420910724;61.9452849307951
317.4630447571;61.7889778511271
317.484668603476;61.6440959410107
317.506292449852;61.5136885456359
317.527916296228;61.4027846845573
317.549540142604;61.3203820620507
317.57116398898;61.2729864290725
317.592787835356;61.252946474688
317.614411681733;61.2507464983388
317.636035528109;61.2558336400644
317.657659374485;61.2509025395719
317.679283220861;61.2106699552576
317.700907067237;61.113899987919
317.722530913613;60.9505732517526
317.744154759989;60.7287892121129
317.765778606365;60.4551125321441
317.787402452741;60.1247119421767
317.809026299117;59.7247776344478
317.830650145494;59.2655450038854
317.85227399187;58.7742724325318
317.873897838246;58.2711915698931
317.895521684622;57.7689755053654
317.917145530998;57.2692550603504
317.938769377374;56.7669628969279
317.96039322375;56.284931892416
317.982017070126;55.8598398522911
318.003640916502;55.4909446847108
318.025264762878;55.1590942589101
318.046888609254;54.8653564542616
318.068512455631;54.6291446186105
318.090136302007;54.4443866267024
318.111760148383;54.2944825736343
318.133383994759;54.1767287837284
318.155007841135;54.0947849688514
318.176631687511;54.0436259268826
318.198255533887;54.0116309288345
318.219879380263;53.9868306769635
318.241503226639;53.9657038885846
318.263127073015;53.960047466574
318.284750919392;53.9793232165945
318.306374765768;54.0210717272346
318.327998612144;54.0828349589541
318.34962245852;54.1660324817375
318.371246304896;54.2728756702189
318.392870151272;54.4023713835572
318.414493997648;54.5501679203971
318.436117844024;54.7120442019125
318.4577416904;54.889359242785
318.479365536776;55.0799812640731
318.500989383153;55.2706866663144
318.522613229529;55.4513184161707
318.544237075905;55.6229066282356
318.565860922281;55.7869123417933
318.587484768657;55.937399379578
318.609108615033;56.0742974367634
318.630732461409;56.2053048794454
318.652356307785;56.3352765217779
318.673980154161;56.46246731915
318.695604000537;56.5739325132413
318.717227846913;56.6640803424629
318.73885169329;56.7395572680627
318.760475539666;56.8096030579702
318.782099386042;56.8681274946435
318.803723232418;56.9107513490733
318.825347078794;56.9398663422329
318.84697092517;56.9392222182868
318.868594771546;56.9039224089297
318.890218617922;56.8378071668894
318.911842464298;56.7450946527834
318.933466310674;56.6328014209174
318.955090157051;56.5111058666914
318.976714003427;56.3682340627852
318.998337849803;56.1970992744424
319.019961696179;56.0111706607239
319.041585542555;55.8139561084221
319.063209388931;55.6109933961068
319.084833235307;55.4111377532471
319.106457081683;55.2287384826366
319.128080928059;55.0657860205916
319.149704774435;54.9193120019547
319.171328620811;54.7966447378379
319.192952467188;54.7051061009296
319.214576313564;54.6384374412559
319.23620015994;54.5931744176011
319.257824006316;54.5746416709744
319.279447852692;54.5818053862998
319.301071699068;54.603579425645
319.322695545444;54.6366524959083
319.34431939182;54.6782178958786
319.365943238196;54.7208635489318
319.387567084572;54.7687313385218
319.409190930949;54.828136763656
319.430814777325;54.8970215996708
319.452438623701;54.9757709811948
319.474062470077;55.0629679443865
319.495686316453;55.1565195133697
319.517310162829;55.2612667454327
319.538934009205;55.3777837455736
319.560557855581;55.503278609879
319.582181701957;55.6281327541792
319.603805548333;55.7420033875927
319.62542939471;55.8428952010754
319.647053241086;55.9332508713638
319.668677087462;56.0133597885379
319.690300933838;56.075585007781
319.711924780214;56.1215675863998
319.73354862659;56.1683174999459
319.755172472966;56.2197906674664
319.776796319342;56.2716311692022
319.798420165718;56.3157967432908
319.820044012094;56.3571799478916
319.841667858471;56.4097895894787
319.863291704847;56.4827637433184
319.884915551223;56.5762356520936
319.906539397599;56.682864268778
319.928163243975;56.7944699041999
319.949787090351;56.9085397985416
319.971410936727;57.0262352229947
319.993034783103;57.1425862509631
320.014658629479;57.2489362566581
320.036282475855;57.3409105888169
320.057906322231;57.4122501836533
320.079530168608;57.4591176414178
320.101154014984;57.4812710669004
320.12277786136;57.4776780666675
320.144401707736;57.4492459966711
320.166025554112;57.4001502924641
320.187649400488;57.3343443675187
320.209273246864;57.2598211839384
320.23089709324;57.1841477793492
320.252520939616;57.1156790919666
320.274144785992;57.0689052817645
320.295768632369;57.0518008657528
320.317392478745;57.0631978327454
320.339016325121;57.1002832142
320.360640171497;57.1604954377169
320.382264017873;57.2379677982281
320.403887864249;57.3205876860565
320.425511710625;57.3995762445187
320.447135557001;57.4661190375635
320.468759403377;57.5171810475986
320.490383249753;57.5523173969594
320.51200709613;57.5692623291234
320.533630942506;57.5690255097139
320.555254788882;57.5509776434792
320.576878635258;57.5135941420792
320.598502481634;57.4582879781243
320.62012632801;57.3949760562974
320.641750174386;57.3345790641329
320.663374020762;57.2840058294802
320.684997867138;57.2446240676331
320.706621713514;57.2283621378092
320.728245559891;57.2398499573722
320.749869406267;57.2633341293808
320.771493252643;57.2976739533094
320.793117099019;57.351280081764
320.814740945395;57.4287510637529
320.836364791771;57.533352799996
320.857988638147;57.6613099943141
320.879612484523;57.8016253861859
320.901236330899;57.9442502035592
320.922860177275;58.0828332649823
320.944484023651;58.2139823159874
320.966107870028;58.3293635454815
320.987731716404;58.419835620899
321.00935556278;58.4812201115462
321.030979409156;58.511710706485
321.052603255532;58.5007340253304
321.074227101908;58.4357094203255
321.095850948284;58.3161182704236
321.11747479466;58.1574296014336
321.139098641036;57.9644179470498
321.160722487412;57.7254289624844
321.182346333789;57.4203035328461
321.203970180165;57.0516759882242
321.225594026541;56.6443168891754
321.247217872917;56.214804387129
321.268841719293;55.7721093973529
321.290465565669;55.317692025679
321.312089412045;54.8565173204991
321.333713258421;54.4140850125129
321.355337104797;54.0142208101579
321.376960951173;53.6697871556733
321.39858479755;53.3851419873107
321.420208643926;53.1658448411936
321.441832490302;53.0091374052564
321.463456336678;52.9120977851008
321.485080183054;52.8705338068207
321.50670402943;52.8712445574539
321.528327875806;52.906993954472
321.549951722182;52.978444616637
321.571575568558;53.0769539223251
321.593199414934;53.1850095237832
321.614823261311;53.2897429515812
321.636447107687;53.3868383306013
321.658070954063;53.4740528592728
321.679694800439;53.5495438399533
321.701318646815;53.6098437542
321.722942493191;53.6641455786346
321.744566339567;53.7237444401965
321.766190185943;53.8011142664944
321.787814032319;53.9095991830973
321.809437878695;54.0505760116064
321.831061725071;54.2084548733466
321.852685571448;54.3790667919188
321.874309417824;54.5666343231702
321.8959332642;54.7648082908627
321.917557110576;54.959637166834
321.939180956952;55.14724653177
321.960804803328;55.3268235824537
321.982428649704;55.4962829768004
322.00405249608;55.6531160725714
322.025676342456;55.7891309240432
322.047300188832;55.8971968511753
322.068924035209;55.9788882145889
322.090547881585;56.0389810752613
322.112171727961;56.0862616550741
322.133795574337;56.1303044119415
322.155419420713;56.1758778219111
322.177043267089;56.2206418998343
322.198667113465;56.2585171629358
322.220290959841;56.2834851202278
322.241914806217;56.2957541220562
322.263538652593;56.2993228876822
322.28516249897;56.2919198635886
322.306786345346;56.2692593709192
322.328410191722;56.2258752406736
322.350034038098;56.1537386223535
322.371657884474;56.0458974381554
322.39328173085;55.904396904728
322.414905577226;55.7389333191971
322.436529423602;55.546318253646
322.458153269978;55.3134028109039
322.479777116354;55.0303680291752
322.50140096273;54.7065834871756
322.523024809107;54.3689604209377
322.544648655483;54.0375521071239
322.566272501859;53.7106571990317
322.587896348235;53.3794218457943
322.609520194611;53.0317728130488
322.631144040987;52.6692495708897
322.652767887363;52.3052126002927
322.674391733739;51.9641298385694
322.696015580115;51.6648372173134
322.717639426491;51.4013724662399
322.739263272868;51.1703476832093
322.760887119244;50.9836837447919
322.78251096562;50.8489258729121
322.804134811996;50.7534301951783
322.825758658372;50.7021894975029
322.847382504748;50.7084790935837
322.869006351124;50.7776961495535
322.8906301975;50.8844605891634
322.912254043876;51.0124509949581
322.933877890252;51.157200791059
322.955501736628;51.3146743143619
322.977125583005;51.4744352617321
322.998749429381;51.6085576638836
323.020373275757;51.7105828211782
323.041997122133;51.7832377230401
323.063620968509;51.8146409784948
323.085244814885;51.794031257852
323.106868661261;51.7463750041907
323.128492507637;51.6945894632392
323.150116354013;51.6410443021447
323.171740200389;51.5901735990784
323.193364046766;51.5473516027344
323.214987893142;51.5163308579519
323.236611739518;51.5028227664412
323.258235585894;51.509097230584
323.27985943227;51.5254814288264
323.301483278646;51.5352339635577
323.323107125022;51.5225712793714
323.344730971398;51.4722856609606
323.366354817774;51.37382825994
323.38797866415;51.2252458906825
323.409602510527;51.0283604417907
323.431226356903;50.7809441355513
323.452850203279;50.4750752843061
323.474474049655;50.1100733275543
323.496097896031;49.7042915151302
323.517721742407;49.2707368207371
323.539345588783;48.8193620654895
323.560969435159;48.3746352455489
323.582593281535;47.9588526141779
323.604217127911;47.5770193935608
323.625840974288;47.2256673509843
323.647464820664;46.9021610345998
323.66908866704;46.6293860572459
323.690712513416;46.4228250655345
323.712336359792;46.2727895689549
323.733960206168;46.170875203053
323.755584052544;46.1192651153252
323.77720789892;46.1181520631648
323.798831745296;46.1573917657
323.820455591672;46.2219090691818
323.842079438048;46.3058104730595
323.863703284425;46.408195388353
323.885327130801;46.5230140675353
323.906950977177;46.640535088056
323.928574823553;46.7485846771418
323.950198669929;46.8368576872393
323.971822516305;46.8998279903202
323.993446362681;46.9385457997194
324.015070209057;46.9566844525451
324.036694055433;46.9545892787241
324.058317901809;46.9298628087425
324.079941748186;46.8862513316762
324.101565594562;46.8346743162237
324.123189440938;46.779383510708
324.144813287314;46.728494059802
324.16643713369;46.6848673259182
324.188060980066;46.6471703107298
324.209684826442;46.6192574395437
324.231308672818;46.6019244383086
324.252932519194;46.5874243547097
324.27455636557;46.5675729257174
324.296180211947;46.5341671411555
324.317804058323;46.48502943807
324.339427904699;46.4214355413941
324.361051751075;46.3407781893839
324.382675597451;46.2388803191608
324.404299443827;46.1119406165097
324.425923290203;45.9581776713733
324.447547136579;45.7785062243801
324.469170982955;45.581366599135
324.490794829331;45.3845110708997
324.512418675708;45.1982460425152
324.534042522084;45.0258998875086
324.55566636846;44.8723130362161
324.577290214836;44.7417989160209
324.598914061212;44.6380801370329
324.620537907588;44.5626668952753
324.642161753964;44.5090154801207
324.66378560034;44.4657377668754
324.685409446716;44.41664648449
324.707033293092;44.3674201490423
324.728657139468;44.3281206270858
324.750280985845;44.2990637993694
324.771904832221;44.2701209787279
324.793528678597;44.2287312962976
