Name;BF_ESR_01_3602s_Z_gon_140dg_result

Recipe
Accumulations;5;Number of accumulations
RetryCount;0;Number of retries on error
AbortOnError;True;Abort on error
EnableQFactorMeasurement;False;Enable/Disable q-Factor measurement
Bfrom;313;B from
Bto;363;B to
SweepTime;60;Sweep time
Modulation;0.2;Modulation
ModulationFreq;100;Modulation
BHoldEnabled;False;B hold enabled
BHold;0;B hold
MicrowavePower;2;Microwave power
MarkerEnabled;False;
MarkerStartField;0;
MarkerEndField;0;
Mode;;
KineticGFact;0;
KineticTotalTransientTime;0;
KineticTimeResolution;0;
TempFrom;5;
TempUseSlope;False;
TempTo;5;
TempdT;1;
TempSetupTime;0;
GonFrom;0;
GonTo;180;
GonSteps;20;
XRayEnabled;False;
XRayTime;3;
XRayVoltage;40;
XRayCurrent;0.5;
UVEnabled;False;
UVIntensity;0;
UVTime;0;
UVLeadTime;0;
UVWavelength;0;
PowSweepFrom;1;
PowSweepTo;5;
PowSweepSteps;5;
AmpModSweepFrom;0;
AmpModSweepTo;1;
AmpModSweepSteps;10;
ExtTriggerEnabled;False;
ExtTrigLeadTime;0;
ExtTrigOnTime;5;

Meas
BField [mT];MW_Absorption []
313.020966110229;102.463155381161
313.042571985581;102.260346222847
313.064177860933;102.035087895471
313.085783736285;101.790147427485
313.107389611637;101.539262711395
313.128995486989;101.299422213999
313.150601362341;101.069627840305
313.172207237692;100.847329052465
313.193813113044;100.638909624092
313.215418988396;100.451043892081
313.237024863748;100.290270938789
313.2586307391;100.160247825374
313.280236614452;100.060199694601
313.301842489804;99.9867868066038
313.323448365155;99.9309028221729
313.345054240507;99.8806912631492
313.366660115859;99.8258332935041
313.388265991211;99.7526410815409
313.409871866563;99.6522061340385
313.431477741915;99.5275147860746
313.453083617266;99.3786864680465
313.474689492618;99.199910127466
313.49629536797;98.9860042589359
313.517901243322;98.7489922283259
313.539507118674;98.507331481477
313.561112994026;98.2738338502908
313.582718869378;98.047422487052
313.604324744729;97.8277243504755
313.625930620081;97.6196532830884
313.647536495433;97.4280094169477
313.669142370785;97.2510309158063
313.690748246137;97.088206310985
313.712354121489;96.9359583699331
313.733959996841;96.7877651001299
313.755565872192;96.6498514729574
313.777171747544;96.5237210244534
313.798777622896;96.3964823659881
313.820383498248;96.2638602445491
313.8419893736;96.1337860804261
313.863595248952;96.0034613834293
313.885201124303;95.8732409330079
313.906806999655;95.7494500219868
313.928412875007;95.635644638095
313.950018750359;95.5308975243696
313.971624625711;95.4260819131002
313.993230501063;95.30966231359
314.014836376415;95.1884793948994
314.036442251766;95.0720471601864
314.058048127118;94.9596524470091
314.07965400247;94.8414606257151
314.101259877822;94.7082278793124
314.122865753174;94.5641679688371
314.144471628526;94.4160022911607
314.166077503878;94.2592651624551
314.187683379229;94.0870585846964
314.209289254581;93.9062396944399
314.230895129933;93.72814967826
314.252501005285;93.5546208828279
314.274106880637;93.3833373161474
314.295712755989;93.2139466958077
314.31731863134;93.059861692547
314.338924506692;92.9380691597147
314.360530382044;92.8492590124239
314.382136257396;92.7831688328943
314.403742132748;92.7326727940876
314.4253480081;92.6959161592942
314.446953883452;92.669486918353
314.468559758803;92.6463909477861
314.490165634155;92.6203518387458
314.511771509507;92.5849105433291
314.533377384859;92.5230357246964
314.554983260211;92.4243442240658
314.576589135563;92.2877277204066
314.598195010915;92.1137549092831
314.619800886266;91.8993658304597
314.641406761618;91.6451815243219
314.66301263697;91.3533628489443
314.684618512322;91.0356281723907
314.706224387674;90.7245744657516
314.727830263026;90.4103733769367
314.749436138377;90.0804734325418
314.771042013729;89.7481013527223
314.792647889081;89.4322250610154
314.814253764433;89.1424929944785
314.835859639785;88.8612918909787
314.857465515137;88.567629869911
314.879071390489;88.258070406537
314.90067726584;87.9601263237448
314.922283141192;87.6884503213195
314.943889016544;87.4355747576985
314.965494891896;87.1991705885275
314.987100767248;86.9795022754572
315.0087066426;86.7744938157842
315.030312517952;86.5852755973414
315.051918393303;86.4222822968168
315.073524268655;86.2967430334282
315.095130144007;86.2142262624637
315.116736019359;86.1767031142429
315.138341894711;86.1725838514342
315.159947770063;86.1966887266865
315.181553645414;86.2491818158207
315.203159520766;86.3301762376307
315.224765396118;86.4302108358615
315.24637127147;86.5347012181087
315.267977146822;86.6346649012395
315.289583022174;86.7225245586687
315.311188897526;86.7910044794334
315.332794772877;86.8353870395736
315.354400648229;86.8548567733985
315.376006523581;86.8490098141921
315.397612398933;86.8164657951101
315.419218274285;86.7626035684992
315.440824149637;86.6950962783411
315.462430024989;86.6149438531877
315.48403590034;86.5222450687237
315.505641775692;86.4150203309475
315.527247651044;86.291614258843
315.548853526396;86.1455414313431
315.570459401748;85.9697649653867
315.5920652771;85.7538318095433
315.613671152451;85.4961034804051
315.635277027803;85.2076576532187
315.656882903155;84.8906271012114
315.678488778507;84.5368369044388
315.700094653859;84.1512111368441
315.721700529211;83.7361994017927
315.743306404563;83.3026568151615
315.764912279914;82.8632589806244
315.786518155266;82.4278019825957
315.808124030618;81.9949584337519
315.82972990597;81.5598501277621
315.851335781322;81.1312058039959
315.872941656674;80.7237894499879
315.894547532026;80.3287546330734
315.916153407377;79.9376728176767
315.937759282729;79.5661765490042
315.959365158081;79.2354431802319
315.980971033433;78.9441716782575
316.002576908785;78.6773251766953
316.024182784137;78.4327594332495
316.045788659488;78.2339453892377
316.06739453484;78.0922728069002
316.089000410192;78.0014954880178
316.110606285544;77.9621915594676
316.132212160896;77.9814311626427
316.153818036248;78.057940174386
316.1754239116;78.1829039699346
316.197029786951;78.3551525323666
316.218635662303;78.5823091311088
316.240241537655;78.8618194317434
316.261847413007;79.1638712992341
316.283453288359;79.4627457610162
316.305059163711;79.7558142013121
316.326665039063;80.0474422754299
316.348270914414;80.330480158396
316.369876789766;80.5712221345528
316.391482665118;80.7412287982065
316.41308854047;80.8347260073569
316.434694415822;80.8556589150878
316.456300291174;80.8152935716673
316.477906166525;80.7253625019703
316.499512041877;80.588047258937
316.521117917229;80.4069501691751
316.542723792581;80.1919285208262
316.564329667933;79.9523388878808
316.585935543285;79.6961749921581
316.607541418637;79.433708093302
316.629147293988;79.173109142727
316.65075316934;78.9144463184172
316.672359044692;78.6593691618753
316.693964920044;78.4133919720039
316.715570795396;78.1643798872611
316.737176670748;77.9116126171222
316.7587825461;77.6665221528761
316.780388421451;77.4553026900765
316.801994296803;77.2759938646353
316.823600172155;77.1185183879657
316.845206047507;76.9747218304174
316.866811922859;76.8334508447765
316.888417798211;76.6835591755501
316.910023673562;76.5274961566636
316.931629548914;76.3806031185161
316.953235424266;76.2609379628586
316.974841299618;76.1705304390029
316.99644717497;76.1105759954046
317.018053050322;76.0860387976959
317.039658925674;76.1016480847159
317.061264801025;76.1504724171308
317.082870676377;76.2249795896322
317.104476551729;76.3249403480028
317.126082427081;76.4591393692261
317.147688302433;76.6304703965493
317.169294177785;76.8156956247033
317.190900053136;76.9992862269414
317.212505928488;77.1817385343827
317.23411180384;77.3662125363384
317.255717679192;77.5457580144535
317.277323554544;77.7180608080394
317.298929429896;77.8863610074824
317.320535305248;78.0488380467225
317.342141180599;78.1988413015137
317.363747055951;78.3414095655082
317.385352931303;78.4854451291867
317.406958806655;78.6321748375641
317.428564682007;78.7656236912943
317.450170557359;78.8869078342477
317.471776432711;78.9971033632134
317.493382308062;79.0894588617027
317.514988183414;79.1624382772342
317.536594058766;79.2172247429839
317.558199934118;79.2407463319909
317.57980580947;79.2275656680657
317.601411684822;79.1900083371276
317.623017560173;79.1339908593088
317.644623435525;79.0630551593115
317.666229310877;78.9826480449731
317.687835186229;78.8987793410187
317.709441061581;78.8137648352031
317.731046936933;78.7298424604352
317.752652812285;78.6454520745492
317.774258687636;78.559506696602
317.795864562988;78.4692925970642
317.81747043834;78.3730651516785
317.839076313692;78.266612262237
317.860682189044;78.1379416993822
317.882288064396;77.9724185870049
317.903893939748;77.7603194663928
317.925499815099;77.5038808731285
317.947105690451;77.2123819749519
317.968711565803;76.8884902738298
317.990317441155;76.5322968753891
318.011923316507;76.1507573926557
318.033529191859;75.7645283056107
318.05513506721;75.3948702495537
318.076740942562;75.0476825137154
318.098346817914;74.7215114509232
318.119952693266;74.4143147545477
318.141558568618;74.1268304830512
318.16316444397;73.8669013760383
318.184770319322;73.6433749369513
318.206376194673;73.4559657552707
318.227982070025;73.3036415295516
318.249587945377;73.1853317706474
318.271193820729;73.09628838035
318.292799696081;73.0305704679974
318.314405571433;72.9785417966274
318.336011446785;72.9297016660816
318.357617322136;72.8736618702766
318.379223197488;72.8043600470714
318.40082907284;72.7222600067333
318.422434948192;72.6246152038644
318.444040823544;72.4915151888767
318.465646698896;72.306034121781
318.487252574247;72.0847218680526
318.508858449599;71.8372085747901
318.530464324951;71.5489427011585
318.552070200303;71.2042227390839
318.573676075655;70.8132961253439
318.595281951007;70.413467149773
318.616887826359;70.0068151388425
318.63849370171;69.5791451694174
318.660099577062;69.114462114856
318.681705452414;68.6170881170256
318.703311327766;68.1188547564521
318.724917203118;67.6464288103775
318.74652307847;67.2126830499871
318.768128953822;66.80563640725
318.789734829173;66.4098575771743
318.811340704525;66.0175466772672
318.832946579877;65.6371100528339
318.854552455229;65.2829353875127
318.876158330581;64.9569767582985
318.897764205933;64.6597159249877
318.919370081284;64.3832818044547
318.940975956636;64.1207070153905
318.962581831988;63.8771468409206
318.98418770734;63.6644092828018
319.005793582692;63.4886373597275
319.027399458044;63.3329138423957
319.049005333396;63.1800178951096
319.070611208747;63.0223705724756
319.092217084099;62.8659978123783
319.113822959451;62.7118819592042
319.135428834803;62.5498687698643
319.157034710155;62.3759357287976
319.178640585507;62.1978480336762
319.200246460859;62.0217948449371
319.22185233621;61.8505454470017
319.243458211562;61.6821174297249
319.265064086914;61.5271688318186
319.286669962266;61.3901400183748
319.308275837618;61.2711184043566
319.32988171297;61.1687774756568
319.351487588321;61.0729076336753
319.373093463673;60.9752035200531
319.394699339025;60.8713811577771
319.416305214377;60.7552481850648
319.437911089729;60.6168200034994
319.459516965081;60.4478627587368
319.481122840433;60.2449954621102
319.502728715784;60.0223982505023
319.524334591136;59.807155407339
319.545940466488;59.6151479228571
319.56754634184;59.4445455402444
319.589152217192;59.2946103746956
319.610758092544;59.1802333062491
319.632363967896;59.1120785167089
319.653969843247;59.0905933887934
319.675575718599;59.1161739076368
319.697181593951;59.1918788369046
319.718787469303;59.3162313573366
319.740393344655;59.4865131431343
319.761999220007;59.6845341428338
319.783605095358;59.8930096380224
319.80521097071;60.1151548132323
319.826816846062;60.3483758465703
319.848422721414;60.573397027857
319.870028596766;60.7730278373631
319.891634472118;60.9374693010118
319.91324034747;61.0712363971637
319.934846222821;61.1908063979084
319.956452098173;61.3104771720694
319.978057973525;61.4330124544637
319.999663848877;61.5560285612061
320.021269724229;61.6795198697671
320.042875599581;61.804274243944
320.064481474933;61.9290330446558
320.086087350284;62.0647261544825
320.107693225636;62.2260444057343
320.129299100988;62.3986703047461
320.15090497634;62.5528364130401
320.172510851692;62.699553268606
320.194116727044;62.8498472523925
320.215722602395;63.0035593347877
320.237328477747;63.1516940132956
320.258934353099;63.2917528754956
320.280540228451;63.4163002457114
320.302146103803;63.5240700073523
320.323751979155;63.6260978705902
320.345357854507;63.7326531851599
320.366963729858;63.8465483770438
320.38856960521;63.9661499091167
320.410175480562;64.0881785600418
320.431781355914;64.2055881743755
320.453387231266;64.3095365202671
320.474993106618;64.3920699986666
320.49659898197;64.4488545828402
320.518204857321;64.4792600647177
320.539810732673;64.4794265143558
320.561416608025;64.4404481834571
320.583022483377;64.3624491574654
320.604628358729;64.2481379888
320.626234234081;64.0899296261749
320.647840109432;63.8782119380844
320.669445984784;63.6326845508417
320.691051860136;63.3798317299664
320.712657735488;63.12072005064
320.73426361084;62.8534540289185
320.755869486192;62.5783513543139
320.777475361544;62.2913443666933
320.799081236895;61.9924352670865
320.820687112247;61.690953617779
320.842292987599;61.3936903787146
320.863898862951;61.099226946405
320.885504738303;60.804177928189
320.907110613655;60.5031715967005
320.928716489006;60.1885459372407
320.950322364358;59.8491556801563
320.97192823971;59.4906979773781
320.993534115062;59.1320493474691
321.015139990414;58.7920616726326
321.036745865766;58.4714403970086
321.058351741118;58.1515394582713
321.079957616469;57.81345146218
321.101563491821;57.4545311543725
321.123169367173;57.0883790862406
321.144775242525;56.7257403844702
321.166381117877;56.3567340345905
321.187986993229;55.9603625946205
321.209592868581;55.5247525740055
321.231198743932;55.0551025701402
321.252804619284;54.5596696097074
321.274410494636;54.0489740254998
321.296016369988;53.5293884439867
321.31762224534;52.9945066028348
321.339228120692;52.4503332752694
321.360833996043;51.9246385051797
321.382439871395;51.441681123214
321.404045746747;51.0068099212336
321.425651622099;50.6380389231965
321.447257497451;50.3605576106089
321.468863372803;50.1730712343429
321.490469248155;50.0654721408899
321.512075123506;50.0300400841677
321.533680998858;50.0592713268165
321.55528687421;50.1457602135325
321.576892749562;50.2897577146819
321.598498624914;50.4823258978976
321.620104500266;50.7042794785179
321.641710375618;50.9463348158659
321.663316250969;51.2006349773642
321.684922126321;51.4443703182217
321.706528001673;51.6640247499788
321.728133877025;51.8604807943254
321.749739752377;52.0386871494274
321.771345627729;52.1985293859715
321.79295150308;52.332403988029
321.814557378432;52.4369051745748
321.836163253784;52.5164337048364
321.857769129136;52.57360597764
321.879375004488;52.6146426884334
321.90098087984;52.6512156649664
321.922586755192;52.6920958486958
321.944192630543;52.7358981613599
321.965798505895;52.7830664420127
321.987404381247;52.8411186019299
322.009010256599;52.9102246317967
322.030616131951;52.9953780864017
322.052222007303;53.1000665417696
322.073827882655;53.2187115700521
322.095433758006;53.341961152233
322.117039633358;53.4631999481408
322.13864550871;53.5808887904507
322.160251384062;53.6947766680721
322.181857259414;53.7903258151308
322.203463134766;53.8503292698167
322.225069010117;53.8595788378758
322.246674885469;53.8162821302726
322.268280760821;53.7291316987806
322.289886636173;53.6013190444065
322.311492511525;53.4279517389258
322.333098386877;53.2122682425108
322.354704262229;52.9807850652421
322.37631013758;52.7571596201032
322.397916012932;52.5402061731952
322.419521888284;52.3288617098183
322.441127763636;52.1331143168883
322.462733638988;51.9664350174654
322.48433951434;51.8295089650672
322.505945389692;51.7091763108117
322.527551265043;51.5940601776303
322.549157140395;51.4732990048529
322.570763015747;51.3400060325261
322.592368891099;51.1782300577048
322.613974766451;50.9732133598933
322.635580641803;50.7197490965366
322.657186517154;50.4103885433958
322.678792392506;50.0407803506356
322.700398267858;49.6145819513064
322.72200414321;49.1453449936976
322.743610018562;48.6459214859082
322.765215893914;48.131122519729
322.786821769266;47.6334336465926
322.808427644617;47.1755435090604
322.830033519969;46.7646287395802
322.851639395321;46.4064475981452
322.873245270673;46.1027225723811
322.894851146025;45.8622993623033
322.916457021377;45.6641064924655
322.938062896729;45.4908348921402
322.95966877208;45.3374540744495
322.981274647432;45.2048433511506
323.002880522784;45.0890463999982
323.024486398136;44.9912991754078
323.046092273488;44.9125316809939
323.06769814884;44.8490128276601
323.089304024191;44.7958704398998
323.110909899543;44.7521544652863
323.132515774895;44.7133790424865
323.154121650247;44.6795204241937
323.175727525599;44.6673780419174
323.197333400951;44.7062621661253
323.218939276303;44.7974324322302
323.240545151654;44.9303364563806
323.262151027006;45.104261238224
323.283756902358;45.3240503435674
323.30536277771;45.5925214365556
323.326968653062;45.9017583585779
323.348574528414;46.233872474443
323.370180403766;46.5775680688472
323.391786279117;46.9271104492224
323.413392154469;47.2658738906401
323.434998029821;47.5601182181753
323.456603905173;47.7820972728909
323.478209780525;47.9188441785892
323.499815655877;47.9709740310221
323.521421531228;47.9342467763671
323.54302740658;47.8263984800377
323.564633281932;47.6441485390967
323.586239157284;47.3870452920407
323.607845032636;47.063562150573
323.629450907988;46.6857557834144
323.65105678334;46.262013225591
323.672662658691;45.8127159723657
323.694268534043;45.3682004618239
323.715874409395;44.9359120170701
323.737480284747;44.5226996527766
323.759086160099;44.1459680272672
323.780692035451;43.8019790825909
323.802297910803;43.4920687414665
323.823903786154;43.2213702754686
323.845509661506;42.9815150746831
323.867115536858;42.7552861209446
323.88872141221;42.5265078065296
323.910327287562;42.2984631865886
323.931933162914;42.0770046950737
323.953539038265;41.8540167597727
323.975144913617;41.6218684520713
323.996750788969;41.3894536750698
324.018356664321;41.1689752633976
324.039962539673;40.9618451077728
324.061568415025;40.7674758472451
324.083174290377;40.5943806900435
324.104780165728;40.4588267074166
324.12638604108;40.3606809857803
324.147991916432;40.2903939442228
324.169597791784;40.2450642487502
324.191203667136;40.2252863186967
324.212809542488;40.232663292618
324.23441541784;40.2663247071396
324.256021293191;40.3193526603056
324.277627168543;40.3834209696729
324.299233043895;40.4503957240746
324.320838919247;40.5112683001847
324.342444794599;40.562215099837
324.364050669951;40.5998820385391
324.385656545302;40.6221770828862
324.407262420654;40.622381903924
324.428868296006;40.6097277314969
324.450474171358;40.5997421998458
324.47208004671;40.5930811716354
324.493685922062;40.5867370348587
324.515291797414;40.5790476481345
324.536897672765;40.5745267678051
324.558503548117;40.5749143387239
324.580109423469;40.5739991720412
324.601715298821;40.5720234076222
324.623321174173;40.5607787593401
324.644927049525;40.5254035728037
324.666532924876;40.4548772142857
324.688138800228;40.3483059691578
324.70974467558;40.2048816328982
324.731350550932;40.0223853830459
324.752956426284;39.7905148847494
