Name;BF_ESR_01_14400s_Z_gon_100dg_result

Recipe
Accumulations;5;Number of accumulations
RetryCount;0;Number of retries on error
AbortOnError;True;Abort on error
EnableQFactorMeasurement;False;Enable/Disable q-Factor measurement
Bfrom;313;B from
Bto;363;B to
SweepTime;60;Sweep time
Modulation;0.2;Modulation
ModulationFreq;100;Modulation
BHoldEnabled;False;B hold enabled
BHold;0;B hold
MicrowavePower;2;Microwave power
MarkerEnabled;False;
MarkerStartField;0;
MarkerEndField;0;
Mode;;
KineticGFact;0;
KineticTotalTransientTime;0;
KineticTimeResolution;0;
TempFrom;5;
TempUseSlope;False;
TempTo;5;
TempdT;1;
TempSetupTime;0;
GonFrom;0;
GonTo;180;
GonSteps;20;
XRayEnabled;False;
XRayTime;3;
XRayVoltage;40;
XRayCurrent;0.5;
UVEnabled;False;
UVIntensity;0;
UVTime;0;
UVLeadTime;0;
UVWavelength;0;
PowSweepFrom;1;
PowSweepTo;5;
PowSweepSteps;5;
AmpModSweepFrom;0;
AmpModSweepTo;1;
AmpModSweepSteps;10;
ExtTriggerEnabled;False;
ExtTrigLeadTime;0;
ExtTrigOnTime;5;

Meas
BField [mT];MW_Absorption []
313.015673446655;70.0683046431058
313.037291998935;69.9259553574689
313.058910551216;69.7860005812644
313.080529103496;69.666022214387
313.102147655776;69.566062163654
313.123766208056;69.4905607167601
313.145384760336;69.4468217851131
313.167003312616;69.4330503207222
313.188621864897;69.4416758928905
313.210240417177;69.466487980385
313.231858969457;69.505300043098
313.253477521737;69.5529299183805
313.275096074017;69.6038395429384
313.296714626297;69.6615229355071
313.318333178578;69.7315331292372
313.339951730858;69.8110161884099
313.361570283138;69.8959855303319
313.383188835418;69.9885493371788
313.404807387698;70.0941092945623
313.426425939978;70.2151964113626
313.448044492259;70.3526664556164
313.469663044539;70.5012133082289
313.491281596819;70.6493538089372
313.512900149099;70.7971268879107
313.534518701379;70.9601624485182
313.556137253659;71.1336678151767
313.57775580594;71.3104878106158
313.59937435822;71.4944094597568
313.6209929105;71.6873204681734
313.64261146278;71.8814571311308
313.66423001506;72.0627210395653
313.68584856734;72.2260952296877
313.707467119621;72.3622133391117
313.729085671901;72.45724983323
313.750704224181;72.5042199856661
313.772322776461;72.5054956041403
313.793941328741;72.4628341605223
313.815559881021;72.3742276389384
313.837178433302;72.2410462055686
313.858796985582;72.0767832585673
313.880415537862;71.8956420132663
313.902034090142;71.6966006994323
313.923652642422;71.4927142854402
313.945271194702;71.3067931885541
313.966889746982;71.154317149803
313.988508299263;71.0347498756578
314.010126851543;70.9382751081934
314.031745403823;70.8558626561687
314.053363956103;70.7855879725733
314.074982508383;70.7328189360267
314.096601060663;70.7035611702973
314.118219612944;70.6967714615932
314.139838165224;70.7025687654544
314.161456717504;70.7104523260003
314.183075269784;70.7096814141763
314.204693822064;70.6922494501228
314.226312374344;70.6668401206951
314.247930926625;70.6375143180656
314.269549478905;70.6011814002378
314.291168031185;70.5587459145967
314.312786583465;70.5181494212431
314.334405135745;70.4874243121421
314.356023688025;70.4774190671775
314.377642240306;70.4942053662471
314.399260792586;70.538805771031
314.420879344866;70.6154509178019
314.442497897146;70.7222131364653
314.464116449426;70.8706829049089
314.485735001706;71.0627109601422
314.507353553987;71.2941255671103
314.528972106267;71.5546376080058
314.550590658547;71.8368872534026
314.572209210827;72.1368890732892
314.593827763107;72.4410326529202
314.615446315387;72.7293406725403
314.637064867668;72.9893830866444
314.658683419948;73.2133916147941
314.680301972228;73.3905197670995
314.701920524508;73.5090188463576
314.723539076788;73.5641064177307
314.745157629068;73.5598037841276
314.766776181349;73.4999556839897
314.788394733629;73.3849068805163
314.810013285909;73.2187494187177
314.831631838189;73.0196871414328
314.853250390469;72.8044259718106
314.874868942749;72.5757087063618
314.89648749503;72.3292001638974
314.91810604731;72.0664494223365
314.93972459959;71.79780659149
314.96134315187;71.5289178217645
314.98296170415;71.252620206036
315.00458025643;70.969912065961
315.02619880871;70.6972693526281
315.047817360991;70.4418866693796
315.069435913271;70.1971772680255
315.091054465551;69.9575742974219
315.112673017831;69.7280823604475
315.134291570111;69.5136469424662
315.155910122392;69.3129803552873
315.177528674672;69.1305911981555
315.199147226952;68.9640900988426
315.220765779232;68.8028395704991
315.242384331512;68.6345477485747
315.264002883792;68.4565494715296
315.285621436072;68.2748358007414
315.307239988353;68.0870797591626
315.328858540633;67.8716409537972
315.350477092913;67.6183901149601
315.372095645193;67.3299676632736
315.393714197473;67.0146679842977
315.415332749753;66.6807698234719
315.436951302034;66.3438352649537
315.458569854314;66.0074219618609
315.480188406594;65.6697396866604
315.501806958874;65.3511971036071
315.523425511154;65.0799315652519
315.545044063434;64.8702297225601
315.566662615715;64.7191513150866
315.588281167995;64.6104918909712
315.609899720275;64.5392936236422
315.631518272555;64.5050987996724
315.653136824835;64.5035937900395
315.674755377115;64.5256668577032
315.696373929396;64.5669531064352
315.717992481676;64.6087327828112
315.739611033956;64.6297872186799
315.761229586236;64.6273226300303
315.782848138516;64.600296237354
315.804466690796;64.5513561282051
315.826085243077;64.4876268298822
315.847703795357;64.4128449313742
315.869322347637;64.3314935925355
315.890940899917;64.245856010786
315.912559452197;64.1524452066892
315.934178004477;64.038574631324
315.955796556758;63.9037298404734
315.977415109038;63.7609500560521
315.999033661318;63.6526347478748
316.020652213598;63.5797803461176
316.042270765878;63.5351303864132
316.063889318158;63.519622046732
316.085507870439;63.5231912377211
316.107126422719;63.5471809074937
316.128744974999;63.5999434130996
316.150363527279;63.680098963988
316.171982079559;63.782070235317
316.193600631839;63.9028380013658
316.21521918412;64.0357931810307
316.2368377364;64.1589669148546
316.25845628868;64.2618771025307
316.28007484096;64.3459774556004
316.30169339324;64.4132462670149
316.32331194552;64.4577989347234
316.3449304978;64.4770200423734
316.366549050081;64.4736302401511
316.388167602361;64.4519569830776
316.409786154641;64.4107170669716
316.431404706921;64.3500836808906
316.453023259201;64.2697457924164
316.474641811481;64.1696182347771
316.496260363762;64.054472746508
316.517878916042;63.9249950653553
316.539497468322;63.7960010538529
316.561116020602;63.6791368526741
316.582734572882;63.56337101189
316.604353125162;63.4354644569956
316.625971677443;63.3042965093891
316.647590229723;63.1962171283356
316.669208782003;63.1115991371376
316.690827334283;63.027911661067
316.712445886563;62.9390338198191
316.734064438843;62.8451799594032
316.755682991124;62.7551225538684
316.777301543404;62.6611908145472
316.798920095684;62.5542490373962
316.820538647964;62.4390142744926
316.842157200244;62.3117730006335
316.863775752524;62.16505909759
316.885394304805;61.9982434869907
316.907012857085;61.814908026805
316.928631409365;61.6158435237675
316.950249961645;61.4084637949654
316.971868513925;61.2047008023733
316.993487066205;60.9987300694887
317.015105618486;60.7894365724491
317.036724170766;60.5882720310808
317.058342723046;60.4061411904823
317.079961275326;60.2558939656855
317.101579827606;60.1240510048747
317.123198379886;59.992204435525
317.144816932167;59.864636487514
317.166435484447;59.757280263372
317.188054036727;59.6716909242714
317.209672589007;59.5942501613533
317.231291141287;59.5192745995016
317.252909693567;59.4537363066255
317.274528245848;59.4053726104492
317.296146798128;59.374502167643
317.317765350408;59.3559723413741
317.339383902688;59.3412029910551
317.361002454968;59.3308036076903
317.382621007248;59.3312615574948
317.404239559528;59.3391457102841
317.425858111809;59.3440505455086
317.447476664089;59.3361116383482
317.469095216369;59.319661631365
317.490713768649;59.3114968716957
317.512332320929;59.3153950804668
317.533950873209;59.3276324430339
317.55556942549;59.3257097988477
317.57718797777;59.2989388081539
317.59880653005;59.2500897862737
317.62042508233;59.1845075702702
317.64204363461;59.1067773523502
317.66366218689;59.0145659987518
317.685280739171;58.9068585285493
317.706899291451;58.790457160723
317.728517843731;58.6644234803057
317.750136396011;58.5226971039495
317.771754948291;58.3627761334847
317.793373500571;58.1828982166981
317.814992052852;57.9868598643643
317.836610605132;57.7825411338303
317.858229157412;57.5774977433812
317.879847709692;57.3722787079539
317.901466261972;57.1630054167844
317.923084814252;56.9472040879155
317.944703366533;56.7332917045209
317.966321918813;56.5321901931741
317.987940471093;56.3504737434239
318.009559023373;56.1949905891837
318.031177575653;56.0689879883605
318.052796127933;55.9650492116007
318.074414680214;55.8738406628834
318.096033232494;55.7927938561935
318.117651784774;55.7141281119779
318.139270337054;55.6277002183679
318.160888889334;55.5391485064477
318.182507441614;55.4541464587834
318.204125993895;55.3774345576175
318.225744546175;55.3117707320634
318.247363098455;55.2533460361769
318.268981650735;55.1955103629899
318.290600203015;55.1359898755589
318.312218755295;55.0769346989468
318.333837307576;55.0229723520335
318.355455859856;54.9756450585465
318.377074412136;54.9299250086982
318.398692964416;54.8816738316396
318.420311516696;54.8288893351077
318.441930068976;54.7698225366343
318.463548621257;54.7036161239526
318.485167173537;54.6357498896962
318.506785725817;54.5710714838854
318.528404278097;54.5087175311602
318.550022830377;54.4418467399358
318.571641382657;54.3690054341145
318.593259934937;54.2894411443378
318.614878487218;54.2036850943518
318.636497039498;54.1046947494199
318.658115591778;53.9882903763316
318.679734144058;53.868052147448
318.701352696338;53.7483868938907
318.722971248618;53.6120622202844
318.744589800899;53.4496313713949
318.766208353179;53.2646166169703
318.787826905459;53.0649135788072
318.809445457739;52.854584844303
318.831064010019;52.6296179233384
318.852682562299;52.3932029981249
318.87430111458;52.166006121041
318.89591966686;51.9589433111162
318.91753821914;51.7628499994072
318.93915677142;51.5777478268236
318.9607753237;51.408428825964
318.98239387598;51.262480286207
319.004012428261;51.1392191560088
319.025630980541;51.0349391269843
319.047249532821;50.9554509641493
319.068868085101;50.9108640857287
319.090486637381;50.901022068304
319.112105189661;50.9108756490999
319.133723741942;50.9313971832303
319.155342294222;50.9608791436306
319.176960846502;50.9963121573393
319.198579398782;51.0347636342208
319.220197951062;51.0714976958072
319.241816503342;51.1033792971973
319.263435055623;51.1387360892774
319.285053607903;51.1785951099918
319.306672160183;51.2107432191973
319.328290712463;51.2235545002272
319.349909264743;51.2092315884287
319.371527817023;51.1790019517213
319.393146369304;51.1440717719167
319.414764921584;51.1036012216009
319.436383473864;51.0522813562757
319.458002026144;50.9857331002176
319.479620578424;50.8902916759868
319.501239130704;50.7557914087709
319.522857682985;50.5959850345085
319.544476235265;50.4230449500334
319.566094787545;50.2295782108432
319.587713339825;50.0110258400027
319.609331892105;49.7767585804561
319.630950444385;49.5375697042807
319.652568996665;49.3038574537306
319.674187548946;49.0847961582688
319.695806101226;48.8833101143012
319.717424653506;48.7087465731842
319.739043205786;48.5792504264556
319.760661758066;48.4953139813578
319.782280310346;48.4471911627501
319.803898862627;48.4230796552008
319.825517414907;48.4224844020294
319.847135967187;48.4540988227047
319.868754519467;48.5204123530451
319.890373071747;48.6152401402521
319.911991624027;48.7204809286194
319.933610176308;48.8213958377951
319.955228728588;48.9098065750607
319.976847280868;48.9991371194085
319.998465833148;49.0962718072422
320.020084385428;49.193637532541
320.041702937708;49.2832067757368
320.063321489989;49.3647673085254
320.084940042269;49.4406241236678
320.106558594549;49.5072569869794
320.128177146829;49.5593843795344
320.149795699109;49.5956703099171
320.171414251389;49.6193664161795
320.19303280367;49.6333251421402
320.21465135595;49.6335164684605
320.23626990823;49.6099297042824
320.25788846051;49.5616947757417
320.27950701279;49.501303444837
320.30112556507;49.4413521904841
320.322744117351;49.3897833949028
320.344362669631;49.3499027612831
320.365981221911;49.3212839900593
320.387599774191;49.3045475187624
320.409218326471;49.3071309232362
320.430836878751;49.3435337892743
320.452455431032;49.4186087655235
320.474073983312;49.5204856171005
320.495692535592;49.639911649255
320.517311087872;49.773535562318
320.538929640152;49.9169206323106
320.560548192432;50.0633731838929
320.582166744713;50.1999771899442
320.603785296993;50.3080432880648
320.625403849273;50.3718595044103
320.647022401553;50.3884595097281
320.668640953833;50.3581312603714
320.690259506113;50.2779856317851
320.711878058393;50.14599808813
320.733496610674;49.9657064077662
320.755115162954;49.7461338097406
320.776733715234;49.4987942755474
320.798352267514;49.2387893861673
320.819970819794;48.9742117959292
320.841589372075;48.7098626480057
320.863207924355;48.4607147171323
320.884826476635;48.2344655120388
320.906445028915;48.032400899303
320.928063581195;47.8626216055191
320.949682133475;47.7262447161564
320.971300685755;47.6203149870577
320.992919238036;47.5382535030014
321.014537790316;47.4743572618898
321.036156342596;47.4245522017359
321.057774894876;47.3828867422074
321.079393447156;47.339075555359
321.101011999436;47.2828723113815
321.122630551717;47.2067859660749
321.144249103997;47.0977480226007
321.165867656277;46.9336548466966
321.187486208557;46.7007987603976
321.209104760837;46.4251558890003
321.230723313117;46.1226271704603
321.252341865398;45.7765358790142
321.273960417678;45.3855345333473
321.295578969958;44.9608036224874
321.317197522238;44.5112241287452
321.338816074518;44.0400084252636
321.360434626798;43.5493645883602
321.382053179079;43.0456377610758
321.403671731359;42.5544190771723
321.425290283639;42.0985529483219
321.446908835919;41.6849034330298
321.468527388199;41.3132669229091
321.490145940479;40.9782134602354
321.51176449276;40.6780862340627
321.53338304504;40.4308010028186
321.55500159732;40.2495228695586
321.5766201496;40.125710191871
321.59823870188;40.0487232860664
321.61985725416;40.014183049413
321.641475806441;40.020307471202
321.663094358721;40.0657195883845
321.684712911001;40.147600787698
321.706331463281;40.2541786896129
321.727950015561;40.3740956243557
321.749568567841;40.5047220739373
321.771187120122;40.642540694846
321.792805672402;40.7807580921129
321.814424224682;40.9139828826063
321.836042776962;41.0361413237219
321.857661329242;41.1398427172383
321.879279881522;41.2169723582743
321.900898433803;41.2665880207053
321.922516986083;41.2922919608621
321.944135538363;41.2899703443708
321.965754090643;41.2407387079462
321.987372642923;41.1430152610629
322.008991195203;41.0138984138407
322.030609747483;40.8717125572561
322.052228299764;40.7225525647204
322.073846852044;40.5643323176664
322.095465404324;40.4047163863743
322.117083956604;40.2569663172226
322.138702508884;40.1236539204113
322.160321061165;39.9927890474016
322.181939613445;39.8687500721661
322.203558165725;39.7722429534167
322.225176718005;39.716144301743
322.246795270285;39.6987497906948
322.268413822565;39.7163117472729
322.290032374845;39.7551698194151
322.311650927126;39.8033909260685
322.333269479406;39.8533884417611
322.354888031686;39.9026706729668
322.376506583966;39.9390253226076
322.398125136246;39.9547490136641
322.419743688526;39.9445426762402
322.441362240807;39.9079316272619
322.462980793087;39.8539083454374
322.484599345367;39.7819578523946
322.506217897647;39.6911914170044
322.527836449927;39.5972425176225
322.549455002207;39.5079119578153
322.571073554488;39.4190340917026
322.592692106768;39.3262903926033
322.614310659048;39.2278765765736
322.635929211328;39.1326883429628
322.657547763608;39.0641000558257
322.679166315888;39.0311474147323
322.700784868169;39.0188362758472
322.722403420449;39.006911855446
322.744021972729;38.9801528034941
322.765640525009;38.9324719884773
322.787259077289;38.8659033528447
322.808877629569;38.7781073041466
322.83049618185;38.6626281422115
322.85211473413;38.5103771628281
322.87373328641;38.3248834552476
322.89535183869;38.1193035436065
322.91697039097;37.8902231125616
322.93858894325;37.6288103815789
322.960207495531;37.3325303054936
322.981826047811;37.0079811507709
323.003444600091;36.6771130977733
323.025063152371;36.3567631615527
323.046681704651;36.0409461996259
323.068300256931;35.7185428725751
323.089918809212;35.3894274276441
323.111537361492;35.0481644186107
323.133155913772;34.6971154718978
323.154774466052;34.3416365095814
323.176393018332;33.9718732967887
323.198011570612;33.5968182787905
323.219630122893;33.264361926607
323.241248675173;32.9819977769121
323.262867227453;32.7451766523701
323.284485779733;32.5477315014537
323.306104332013;32.3992312008871
323.327722884293;32.3133101130891
323.349341436573;32.3023284590327
323.370959988854;32.36748986708
323.392578541134;32.4995635601985
323.414197093414;32.6921455270937
323.435815645694;32.9461671259835
323.457434197974;33.255307262378
323.479052750254;33.6167574300787
323.500671302535;34.0338719716656
323.522289854815;34.4738656136658
323.543908407095;34.9014450891381
323.565526959375;35.3149831218243
323.587145511655;35.7204949585884
323.608764063935;36.1222397279808
323.630382616216;36.5167461488369
323.652001168496;36.886353898134
323.673619720776;37.2291578751143
323.695238273056;37.5511921541547
323.716856825336;37.85682320216
323.738475377616;38.1479688723054
323.760093929897;38.4262533896099
323.781712482177;38.6886961530161
323.803331034457;38.9264596251976
323.824949586737;39.1366001943093
323.846568139017;39.32087803919
323.868186691297;39.4707517455248
323.889805243578;39.5807358110447
323.911423795858;39.6532486950151
323.933042348138;39.6884687085665
323.954660900418;39.6873204299562
323.976279452698;39.6542127448278
323.997898004978;39.5937724749676
324.019516557259;39.5043688748518
324.041135109539;39.3923355572634
324.062753661819;39.2595676706158
324.084372214099;39.1048062787372
324.105990766379;38.9232819164729
324.127609318659;38.7101919777331
324.14922787094;38.4604575315464
324.17084642322;38.1757814984462
324.1924649755;37.8767507620673
324.21408352778;37.5823804057136
324.23570208006;37.2897722462237
324.25732063234;36.9979905731805
324.278939184621;36.7197170371149
324.300557736901;36.4712962177818
324.322176289181;36.252133107324
324.343794841461;36.0546255501494
324.365413393741;35.8824138698872
324.387031946021;35.7423976041569
324.408650498301;35.6222115034431
324.430269050582;35.5104225741192
324.451887602862;35.4075302810635
324.473506155142;35.3142625413214
324.495124707422;35.228300099183
324.516743259702;35.1369459383848
324.538361811982;35.0285909130563
324.559980364263;34.8941575795264
324.581598916543;34.7329464218243
324.603217468823;34.5532012156732
324.624836021103;34.35555231285
324.646454573383;34.133814331934
324.668073125663;33.8961502257199
324.689691677944;33.6568135558401
324.711310230224;33.4197771574895
324.732928782504;33.1870304375138
324.754547334784;32.9552614430824
324.776165887064;32.7156640756423
