Name;BF_ESR_01_14400s_Z_gon_180dg_result

Recipe
Accumulations;5;Number of accumulations
RetryCount;0;Number of retries on error
AbortOnError;True;Abort on error
EnableQFactorMeasurement;False;Enable/Disable q-Factor measurement
Bfrom;313;B from
Bto;363;B to
SweepTime;60;Sweep time
Modulation;0.2;Modulation
ModulationFreq;100;Modulation
BHoldEnabled;False;B hold enabled
BHold;0;B hold
MicrowavePower;2;Microwave power
MarkerEnabled;False;
MarkerStartField;0;
MarkerEndField;0;
Mode;;
KineticGFact;0;
KineticTotalTransientTime;0;
KineticTimeResolution;0;
TempFrom;5;
TempUseSlope;False;
TempTo;5;
TempdT;1;
TempSetupTime;0;
GonFrom;0;
GonTo;180;
GonSteps;20;
XRayEnabled;False;
XRayTime;3;
XRayVoltage;40;
XRayCurrent;0.5;
UVEnabled;False;
UVIntensity;0;
UVTime;0;
UVLeadTime;0;
UVWavelength;0;
PowSweepFrom;1;
PowSweepTo;5;
PowSweepSteps;5;
AmpModSweepFrom;0;
AmpModSweepTo;1;
AmpModSweepSteps;10;
ExtTriggerEnabled;False;
ExtTrigLeadTime;0;
ExtTrigOnTime;5;

Meas
BField [mT];MW_Absorption []
313.009959411621;52.6560173384841
313.031576421483;52.4776611243262
313.053193431344;52.2821894346778
313.074810441206;52.0657557121996
313.096427451067;51.8259002821594
313.118044460929;51.5682449173747
313.13966147079;51.3123265771006
313.161278480652;51.0661016773902
313.182895490513;50.8322838455996
313.204512500375;50.6163672885701
313.226129510237;50.424047636958
313.247746520098;50.2566339373495
313.26936352996;50.1116130431118
313.290980539821;49.9883098927072
313.312597549683;49.8892216118914
313.334214559544;49.8157728666223
313.355831569406;49.7658432452141
313.377448579267;49.737021415059
313.399065589129;49.7274338177306
313.42068259899;49.7319639400112
313.442299608852;49.7452564613405
313.463916618714;49.7619634723421
313.485533628575;49.7661513980563
313.507150638437;49.7501855023532
313.528767648298;49.7202588039231
313.55038465816;49.6920515780268
313.572001668021;49.6646426897062
313.593618677883;49.6220973792821
313.615235687744;49.5617700086704
313.636852697606;49.4892459082547
313.658469707468;49.408917720591
313.680086717329;49.3243665570029
313.701703727191;49.2418139049684
313.723320737052;49.1638038364598
313.744937746914;49.0859476632049
313.766554756775;49.0023827883481
313.788171766637;48.9090256270816
313.809788776498;48.8026396831311
313.83140578636;48.682144568877
313.853022796221;48.5412245285208
313.874639806083;48.3642343914753
313.896256815945;48.1425312734254
313.917873825806;47.8808435802932
313.939490835668;47.5848142579546
313.961107845529;47.2573384575239
313.982724855391;46.9092949518795
314.004341865252;46.548011447201
314.025958875114;46.1697848385131
314.047575884975;45.7748987468224
314.069192894837;45.375401197024
314.090809904699;44.9854003859056
314.11242691456;44.6113690322983
314.134043924422;44.2448041777984
314.155660934283;43.865004790841
314.177277944145;43.4550804888541
314.198894954006;43.0188684197433
314.220511963868;42.5828671564527
314.242128973729;42.1711316109337
314.263745983591;41.7577185171318
314.285362993452;41.3234180708572
314.306980003314;40.8619108757601
314.328597013176;40.3790409037122
314.350214023037;39.890066685497
314.371831032899;39.4183514974223
314.39344804276;38.9800916409158
314.415065052622;38.5695905877189
314.436682062483;38.1735033140958
314.458299072345;37.8057241966972
314.479916082206;37.5007894151112
314.501533092068;37.2644567654742
314.52315010193;37.0771233647791
314.544767111791;36.9320779209257
314.566384121653;36.8395188004718
314.588001131514;36.7965391520156
314.609618141376;36.7924778559506
314.631235151237;36.8198043111932
314.652852161099;36.8688553136648
314.67446917096;36.9298871882301
314.696086180822;37.0020777178162
314.717703190683;37.0920082119853
314.739320200545;37.2017952530205
314.760937210407;37.3234175117609
314.782554220268;37.4489178000287
314.80417123013;37.5735550532501
314.825788239991;37.6950804322018
314.847405249853;37.8175944048639
314.869022259714;37.9459641358697
314.890639269576;38.0658645959102
314.912256279437;38.1596840082869
314.933873289299;38.2330223652265
314.95549029916;38.288685948684
314.977107309022;38.3225143009179
314.998724318884;38.33025105375
315.020341328745;38.3102862762063
315.041958338607;38.2617366687084
315.063575348468;38.1816357977637
315.08519235833;38.0667124198376
315.106809368191;37.9217602457283
315.128426378053;37.7598382859325
315.150043387914;37.5883209346577
315.171660397776;37.4103569376595
315.193277407637;37.2303754323553
315.214894417499;37.0522994443945
315.236511427361;36.879685382745
315.258128437222;36.7182357354591
315.279745447084;36.5768461701388
315.301362456945;36.4621912580976
315.322979466807;36.3773470667402
315.344596476668;36.3276545696267
315.36621348653;36.3148626786055
315.387830496391;36.3467263312313
315.409447506253;36.4330386853116
315.431064516115;36.5777767618254
315.452681525976;36.7772752971398
315.474298535838;37.0163136579896
315.495915545699;37.2759237775535
315.517532555561;37.5439607984469
315.539149565422;37.8119207775561
315.560766575284;38.0775571702629
315.582383585145;38.3303717612358
315.604000595007;38.5553837820945
315.625617604868;38.7413922991845
315.64723461473;38.8866414123111
315.668851624592;38.9797970993494
315.690468634453;39.0239342659268
315.712085644315;39.0318731661664
315.733702654176;39.0163909415103
315.755319664038;38.9720496704595
315.776936673899;38.8877383248163
315.798553683761;38.761278635461
315.820170693622;38.5988570463196
315.841787703484;38.4187173073644
315.863404713346;38.2371141466376
315.885021723207;38.0550243323307
315.906638733069;37.8718998260883
315.92825574293;37.7021712582582
315.949872752792;37.5606182631861
315.971489762653;37.4538952903574
315.993106772515;37.3892398842963
316.014723782376;37.3799055142339
316.036340792238;37.4371205766197
316.057957802099;37.5597373744006
316.079574811961;37.7409407943385
316.101191821823;37.9771107309285
316.122808831684;38.2631305159957
316.144425841546;38.5999131468069
316.166042851407;38.984793643631
316.187659861269;39.3872786684846
316.20927687113;39.7686061264699
316.230893880992;40.1192807524329
316.252510890853;40.435561534349
316.274127900715;40.6973229582427
316.295744910577;40.8941277415136
316.317361920438;41.031497179069
316.3389789303;41.10866680098
316.360595940161;41.1087959534238
316.382212950023;41.0309560360703
316.403829959884;40.8829883796639
316.425446969746;40.6747396768866
316.447063979607;40.411859340529
316.468680989469;40.1042578493936
316.49029799933;39.7670827684343
316.511915009192;39.4134820439492
316.533532019054;39.0487100569201
316.555149028915;38.6778258178762
316.576766038777;38.316640954836
316.598383048638;37.9827850774748
316.6200000585;37.6827652450548
316.641617068361;37.4185730112134
316.663234078223;37.1880717956778
316.684851088084;36.9861589460712
316.706468097946;36.8067547678157
316.728085107807;36.6566018673509
316.749702117669;36.5361957260827
316.771319127531;36.4400721768215
316.792936137392;36.3625099316882
316.814553147254;36.2996994183614
316.836170157115;36.2474927753295
316.857787166977;36.2016051138182
316.879404176838;36.157882587818
316.9010211867;36.1085759078917
316.922638196561;36.0479514854062
316.944255206423;35.9799326815339
316.965872216284;35.9172307132052
316.987489226146;35.8642871610572
317.009106236008;35.8116999865489
317.030723245869;35.7480082293699
317.052340255731;35.6748169514907
317.073957265592;35.5984664958539
317.095574275454;35.5210323429521
317.117191285315;35.4390098105778
317.138808295177;35.3571848899658
317.160425305038;35.2856555207463
317.1820423149;35.2244077462222
317.203659324762;35.1684656075214
317.225276334623;35.1161767559475
317.246893344485;35.0720998112117
317.268510354346;35.0373624675292
317.290127364208;35.0145480772299
317.311744374069;35.0130007775996
317.333361383931;35.0403584175987
317.354978393792;35.099875703463
317.376595403654;35.1829757402845
317.398212413515;35.2811788283156
317.419829423377;35.3924157530861
317.441446433239;35.5180066796917
317.4630634431;35.6603928586296
317.484680452962;35.8187761170735
317.506297462823;35.9846998737228
317.527914472685;36.1368788185219
317.549531482546;36.2714119790978
317.571148492408;36.3915671635077
317.592765502269;36.4995003390315
317.614382512131;36.6067647342373
317.635999521993;36.7203112381077
317.657616531854;36.8336050743639
317.679233541716;36.9356927989088
317.700850551577;37.0260765057277
317.722467561439;37.1065101159124
317.7440845713;37.1811500373096
317.765701581162;37.2491556791278
317.787318591023;37.2958759260586
317.808935600885;37.3094467033576
317.830552610746;37.2924524531279
317.852169620608;37.255296892117
317.87378663047;37.1999233261917
317.895403640331;37.1172165630838
317.917020650193;36.9982812228279
317.938637660054;36.8514100917181
317.960254669916;36.684023329286
317.981871679777;36.4905872281132
318.003488689639;36.2711121963019
318.0251056995;36.0406064955581
318.046722709362;35.8040294293653
318.068339719224;35.5574214268416
318.089956729085;35.3031246672264
318.111573738947;35.051327850725
318.133190748808;34.8138958818314
318.15480775867;34.5996545762258
318.176424768531;34.4115568940959
318.198041778393;34.2531349778277
318.219658788254;34.1274450292978
318.241275798116;34.0359589064626
318.262892807977;33.9774687099876
318.284509817839;33.9470162843607
318.306126827701;33.9349065790706
318.327743837562;33.9292278880604
318.349360847424;33.9152180042542
318.370977857285;33.8841919785284
318.392594867147;33.8360661175728
318.414211877008;33.7719518589842
318.43582888687;33.6923054768721
318.457445896731;33.5948659161237
318.479062906593;33.484083829922
318.500679916454;33.379484522221
318.522296926316;33.2784044665354
318.543913936178;33.1659807710445
318.565530946039;33.0320827199968
318.587147955901;32.8935036474485
318.608764965762;32.7736494644055
318.630381975624;32.6765879545156
318.651998985485;32.6012556749512
318.673615995347;32.5418208426094
318.695233005208;32.4925119190296
318.71685001507;32.4565875890411
318.738467024931;32.4389623277447
318.760084034793;32.4359003378745
318.781701044655;32.445819420268
318.803318054516;32.4719273225562
318.824935064378;32.5122533736227
318.846552074239;32.5630392195225
318.868169084101;32.6180439388306
318.889786093962;32.6722795912708
318.911403103824;32.7254378935766
318.933020113685;32.7744164691356
318.954637123547;32.8182098083035
318.976254133409;32.8626026547737
318.99787114327;32.9165157975709
319.019488153132;32.9809223763004
319.041105162993;33.0555669339026
319.062722172855;33.1435974140739
319.084339182716;33.2458912729228
319.105956192578;33.3606591636686
319.127573202439;33.485674727591
319.149190212301;33.6199502251957
319.170807222162;33.7565501455944
319.192424232024;33.8896106605452
319.214041241886;34.0168235462656
319.235658251747;34.1431667288945
319.257275261609;34.2773473044792
319.27889227147;34.4248568724539
319.300509281332;34.5774577362818
319.322126291193;34.7295058663836
319.343743301055;34.8931587860035
319.365360310916;35.0790416073874
319.386977320778;35.2833316323954
319.40859433064;35.4850544016213
319.430211340501;35.661210968723
319.451828350363;35.8123793363811
319.473445360224;35.9434775231664
319.495062370086;36.0476072206606
319.516679379947;36.1068437414068
319.538296389809;36.1039597605986
319.55991339967;36.0320553488774
319.581530409532;35.8896268002093
319.603147419393;35.6782109089695
319.624764429255;35.4000088958481
319.646381439117;35.0588865157923
319.667998448978;34.6637207731791
319.68961545884;34.2324347184554
319.711232468701;33.7910631571719
319.732849478563;33.3590581181506
319.754466488424;32.9453618559534
319.776083498286;32.5522704886014
319.797700508147;32.1856073541608
319.819317518009;31.8650154575307
319.84093452787;31.6100683059808
319.862551537732;31.4174848807004
319.884168547594;31.2759641042468
319.905785557455;31.1854395533789
319.927402567317;31.1514415139149
319.949019577178;31.1742871416343
319.97063658704;31.2442907353756
319.992253596901;31.3495470560965
320.013870606763;31.4841323228942
320.035487616624;31.6427679280868
320.057104626486;31.8205216670085
320.078721636348;32.0123853944095
320.100338646209;32.2141941763243
320.121955656071;32.4227876003581
320.143572665932;32.639029313925
320.165189675794;32.8646748120454
320.186806685655;33.0852368018748
320.208423695517;33.2889014643631
320.230040705378;33.4759283874622
320.25165771524;33.6443083113353
320.273274725101;33.7911264103076
320.294891734963;33.9186266003188
320.316508744825;34.0362164337444
320.338125754686;34.1485946648895
320.359742764548;34.2564585990864
320.381359774409;34.3583076858671
320.402976784271;34.4561416141862
320.424593794132;34.5479063711952
320.446210803994;34.6274488839328
320.467827813855;34.6935794653896
320.489444823717;34.7470314832188
320.511061833578;34.7701622983398
320.53267884344;34.7503166439968
320.554295853302;34.6896451291631
320.575912863163;34.5876418035923
320.597529873025;34.4516061282459
320.619146882886;34.3033437739335
320.640763892748;34.1465329659786
320.662380902609;33.9667285064314
320.683997912471;33.7783965666715
320.705614922332;33.6210495793365
320.727231932194;33.5104587337444
320.748848942056;33.4451617718303
320.770465951917;33.4221096717426
320.792082961779;33.4453018388697
320.81369997164;33.5089365523861
320.835316981502;33.6071767703396
320.856933991363;33.733409028695
320.878551001225;33.881330027728
320.900168011086;34.0406122434162
320.921785020948;34.1944461057491
320.943402030809;34.3298027518175
320.965019040671;34.4429091609955
320.986636050533;34.5377012494937
321.008253060394;34.6172313479532
321.029870070256;34.675450713858
321.051487080117;34.7130525231524
321.073104089979;34.7346114113037
321.09472109984;34.7482634215985
321.116338109702;34.7611889041876
321.137955119563;34.7762126013739
321.159572129425;34.7958500962819
321.181189139287;34.8075017409676
321.202806149148;34.8017158220903
321.22442315901;34.7797102099447
321.246040168871;34.7449265346279
321.267657178733;34.6904324848001
321.289274188594;34.6003787219581
321.310891198456;34.4673568527313
321.332508208317;34.3043288937271
321.354125218179;34.1264300719371
321.37574222804;33.9244913777162
321.397359237902;33.680382344408
321.418976247764;33.4127015379009
321.440593257625;33.1592004150634
321.462210267487;32.905515486196
321.483827277348;32.631614248922
321.50544428721;32.3345704333827
321.527061297071;32.0347818087726
321.548678306933;31.7454226697789
321.570295316794;31.4678840469575
321.591912326656;31.1965114221795
321.613529336517;30.9289650187155
321.635146346379;30.6639387822887
321.656763356241;30.4039718912238
321.678380366102;30.1670294439003
321.699997375964;29.9657633126196
321.721614385825;29.7936123189649
321.743231395687;29.6497496264523
321.764848405548;29.5458565487645
321.78646541541;29.4882214227146
321.808082425271;29.4736686915929
321.829699435133;29.498170403403
321.851316444995;29.5583885394049
321.872933454856;29.6531278639167
321.894550464718;29.7897159685449
321.916167474579;29.9795684754849
321.937784484441;30.2226441074844
321.959401494302;30.5106109495939
321.981018504164;30.8335339712987
322.002635514025;31.1912762883621
322.024252523887;31.5836866921656
322.045869533748;32.0023741115669
322.06748654361;32.4358255041936
322.089103553472;32.8691933422248
322.110720563333;33.2824023700263
322.132337573195;33.6728017168115
322.153954583056;34.0342812722376
322.175571592918;34.3542553833563
322.197188602779;34.6190117449305
322.218805612641;34.8319660687639
322.240422622502;34.9892132698147
322.262039632364;35.071064728058
322.283656642225;35.0664534009112
322.305273652087;34.9806644096151
322.326890661949;34.8491138383683
322.34850767181;34.6714930893957
322.370124681672;34.4413277724382
322.391741691533;34.1681585819151
322.413358701395;33.8743476929216
322.434975711256;33.5747001322619
322.456592721118;33.2842714393292
322.478209730979;33.0276195751613
322.499826740841;32.8230344989169
322.521443750703;32.6768871247086
322.543060760564;32.6002047301315
322.564677770426;32.5961954355474
322.586294780287;32.6709252270882
322.607911790149;32.8281150148175
322.62952880001;33.0584322088193
322.651145809872;33.3560724766481
322.672762819733;33.7062009702857
322.694379829595;34.075267926678
322.715996839456;34.4425693945091
322.737613849318;34.8018535045801
322.75923085918;35.1432898913497
322.780847869041;35.4372629984878
322.802464878903;35.6891326398147
322.824081888764;35.8771020916502
322.845698898626;35.9823885213516
322.867315908487;36.0036561694898
322.888932918349;35.9544890787511
322.91054992821;35.8373361440922
322.932166938072;35.6470875185291
322.953783947933;35.384064706448
322.975400957795;35.0563868231618
322.997017967657;34.6851778590844
323.018634977518;34.2845425540701
323.04025198738;33.8731484243001
323.061868997241;33.4691486323569
323.083486007103;33.0697569945439
323.105103016964;32.6736165401035
323.126720026826;32.2662940645366
323.148337036687;31.8472036666311
323.169954046549;31.4363476406249
323.191571056411;31.0420447724932
323.213188066272;30.6534900152288
323.234805076134;30.2590591825085
323.256422085995;29.860027957382
323.278039095857;29.4696047666978
323.299656105718;29.0876758136114
323.32127311558;28.7075526263774
323.342890125441;28.3375481167346
323.364507135303;27.9867396359915
323.386124145164;27.6539961819618
323.407741155026;27.3572110271531
323.429358164888;27.1099470620472
323.450975174749;26.9117606196101
323.472592184611;26.7614134029753
323.494209194472;26.6670850269446
323.515826204334;26.6380876032048
323.537443214195;26.678223077087
323.559060224057;26.7906379977137
323.580677233918;26.9745518393726
323.60229424378;27.2231955193938
323.623911253642;27.524210176841
323.645528263503;27.8640226137436
323.667145273365;28.2328357527482
323.688762283226;28.6270110491353
323.710379293088;29.0437904974043
323.731996302949;29.4717559562737
323.753613312811;29.8956981954205
323.775230322672;30.304557252054
323.796847332534;30.6965176712416
323.818464342395;31.0735312935095
323.840081352257;31.43801196025
323.861698362119;31.7880376485073
323.88331537198;32.1091079915432
323.904932381842;32.3927083039708
323.926549391703;32.6472534715539
323.948166401565;32.8765352366522
323.969783411426;33.0799588564181
323.991400421288;33.2636376823267
324.013017431149;33.4312892615443
324.034634441011;33.5811001196572
324.056251450872;33.7095010190151
324.077868460734;33.8166411816837
324.099485470596;33.9055081231259
324.121102480457;33.9783982800956
324.142719490319;34.0344945408569
324.16433650018;34.0732639972691
324.185953510042;34.0961081210656
324.207570519903;34.1026681131877
324.229187529765;34.0930144883671
324.250804539626;34.065968124318
324.272421549488;34.0170604301523
324.29403855935;33.941577340441
324.315655569211;33.8372760308667
324.337272579073;33.7044027430999
324.358889588934;33.5373865703782
324.380506598796;33.3276412690811
324.402123608657;33.0723505392872
324.423740618519;32.7725548469825
324.44535762838;32.424324735066
324.466974638242;32.0196414822049
324.488591648103;31.5598048976115
324.510208657965;31.0509427050513
324.531825667827;30.4894401052103
324.553442677688;29.8717561441695
324.57505968755;29.2288951666098
324.596676697411;28.5954564463827
324.618293707273;27.9744869055022
324.639910717134;27.3579121842934
324.661527726996;26.7481534981737
324.683144736857;26.1521945619033
324.704761746719;25.5760513792671
324.72637875658;25.0346936871044
324.747995766442;24.5480771841124
