Name;ESR_BC_1_359s_Y_gon_140dg_3

Recipe
Accumulations;5;Number of accumulations
RetryCount;0;Number of retries on error
AbortOnError;True;Abort on error
EnableQFactorMeasurement;False;Enable/Disable q-Factor measurement
Bfrom;313;B from
Bto;363;B to
SweepTime;60;Sweep time
Modulation;0.2;Modulation
ModulationFreq;100;Modulation
BHoldEnabled;False;B hold enabled
BHold;0;B hold
MicrowavePower;2;Microwave power
MarkerEnabled;False;
MarkerStartField;0;
MarkerEndField;0;
Mode;;
KineticGFact;0;
KineticTotalTransientTime;0;
KineticTimeResolution;0;
TempFrom;5;
TempUseSlope;False;
TempTo;5;
TempdT;1;
TempSetupTime;0;
GonFrom;0;
GonTo;180;
GonSteps;20;
XRayEnabled;False;
XRayTime;3;
XRayVoltage;40;
XRayCurrent;0.5;
UVEnabled;False;
UVIntensity;0;
UVTime;0;
UVLeadTime;0;
UVWavelength;0;
PowSweepFrom;1;
PowSweepTo;5;
PowSweepSteps;5;
AmpModSweepFrom;0;
AmpModSweepTo;1;
AmpModSweepSteps;10;
ExtTriggerEnabled;False;
ExtTrigLeadTime;0;
ExtTrigOnTime;5;

Meas
BField [mT];MW_Absorption []
313.009437866211;169.31669392754
313.031062266153;169.037530272806
313.052686666095;168.763452190926
313.074311066037;168.47473658921
313.095935465979;168.148055624113
313.117559865921;167.750859660775
313.139184265863;167.2325375204
313.160808665805;166.58988439202
313.182433065747;165.901997059319
313.204057465689;165.241509254194
313.225681865631;164.581881716838
313.247306265573;163.883538753562
313.268930665515;163.132344132142
313.290555065457;162.37751736457
313.312179465399;161.681511323931
313.333803865341;161.038785539592
313.355428265283;160.417263179948
313.377052665225;159.797545582009
313.398677065167;159.190189620781
313.420301465109;158.617169754207
313.441925865051;158.105555245884
313.463550264993;157.66141971807
313.485174664935;157.251338721108
313.506799064877;156.855542307174
313.528423464819;156.476214986367
313.550047864761;156.119515191184
313.571672264703;155.766553814604
313.593296664645;155.408346299569
313.614921064587;155.088210976818
313.636545464529;154.822166188433
313.658169864471;154.60280920168
313.679794264413;154.422575196085
313.701418664355;154.273329708571
313.723043064297;154.176469181897
313.744667464239;154.159333948293
313.766291864181;154.196305861073
313.787916264123;154.262375996452
313.809540664065;154.350282694119
313.831165064007;154.443690944327
313.852789463949;154.511011639095
313.874413863891;154.538418666647
313.896038263833;154.525123391404
313.917662663775;154.467509345313
313.939287063717;154.344105591679
313.96091146366;154.11306941292
313.982535863602;153.769451314089
314.004160263544;153.360841810021
314.025784663486;152.897800134318
314.047409063428;152.392375248836
314.06903346337;151.837825600998
314.090657863312;151.217968363978
314.112282263254;150.534932296033
314.133906663196;149.856902712314
314.155531063138;149.226937024066
314.17715546308;148.611634547556
314.198779863022;147.996921413617
314.220404262964;147.439801572402
314.242028662906;146.980127795041
314.263653062848;146.601728586507
314.28527746279;146.311099271638
314.306901862732;146.146354128154
314.328526262674;146.095680156502
314.350150662616;146.126514463679
314.371775062558;146.23368926842
314.3933994625;146.435710217138
314.415023862442;146.723445672691
314.436648262384;147.076102708685
314.458272662326;147.48008421437
314.479897062268;147.886839071818
314.50152146221;148.268224058388
314.523145862152;148.630108896753
314.544770262094;148.975566544558
314.566394662036;149.282727850016
314.588019061978;149.546211443694
314.60964346192;149.78124707731
314.631267861862;149.990154127063
314.652892261804;150.152154767547
314.674516661746;150.254362776544
314.696141061688;150.30586904896
314.71776546163;150.307945866834
314.739389861572;150.258150187146
314.761014261514;150.141351174759
314.782638661456;149.949247969721
314.804263061398;149.671620284442
314.82588746134;149.289285592484
314.847511861282;148.837078648714
314.869136261224;148.353555470792
314.890760661166;147.837174649829
314.912385061108;147.276044259186
314.93400946105;146.683600637234
314.955633860992;146.087728581692
314.977258260934;145.515855240476
314.998882660876;144.981606142295
315.020507060818;144.523759189472
315.04213146076;144.163101361797
315.063755860702;143.881187489092
315.085380260644;143.660775722067
315.107004660586;143.496131257713
315.128629060528;143.381580818495
315.15025346047;143.30417606063
315.171877860412;143.247014512169
315.193502260354;143.189515170988
315.215126660296;143.118398415062
315.236751060238;143.023731621288
315.25837546018;142.893298832304
315.279999860122;142.71898703942
315.301624260064;142.503212438773
315.323248660006;142.254730378519
315.344873059948;141.982013736677
315.36649745989;141.69140020365
315.388121859832;141.376922540007
315.409746259774;141.043681232016
315.431370659716;140.729868261322
315.452995059658;140.455723170437
315.4746194596;140.216911910678
315.496243859542;140.005436586605
315.517868259484;139.820929022608
315.539492659426;139.676213902857
315.561117059368;139.594429458223
315.58274145931;139.584093528137
315.604365859252;139.635342566342
315.625990259194;139.729016701991
315.647614659136;139.849965802969
315.669239059079;139.998789963401
315.69086345902;140.175015573515
315.712487858963;140.36378537813
315.734112258905;140.533970640876
315.755736658847;140.68263366495
315.777361058789;140.812799020744
315.798985458731;140.921282284906
315.820609858673;140.998793835566
315.842234258615;141.039374757854
315.863858658557;141.036260625371
315.885483058499;140.983698240991
315.907107458441;140.885749979862
315.928731858383;140.732677593683
315.950356258325;140.510556982978
315.971980658267;140.226411487013
315.993605058209;139.929513466386
316.015229458151;139.640685975818
316.036853858093;139.345736247339
316.058478258035;139.016431765972
316.080102657977;138.654475731112
316.101727057919;138.309296030912
316.123351457861;138.011836919174
316.144975857803;137.742088548296
316.166600257745;137.485447797563
316.188224657687;137.251382350747
316.209849057629;137.044113010918
316.231473457571;136.849835179273
316.253097857513;136.661340849184
316.274722257455;136.470750891558
316.296346657397;136.272929966604
316.317971057339;136.061920538771
316.339595457281;135.844435898132
316.361219857223;135.644962654481
316.382844257165;135.481075125776
316.404468657107;135.355458445883
316.426093057049;135.265492432056
316.447717456991;135.213785032297
316.469341856933;135.204344228614
316.490966256875;135.232751735998
316.512590656817;135.286587822949
316.534215056759;135.349861247079
316.555839456701;135.409181301043
316.577463856643;135.451927907982
316.599088256585;135.464037947518
316.620712656527;135.434789306594
316.642337056469;135.357542116173
316.663961456411;135.230845636233
316.685585856353;135.055860137749
316.707210256295;134.844829803658
316.728834656237;134.648799759292
316.750459056179;134.488204894738
316.772083456121;134.351900978974
316.793707856063;134.23987481201
316.815332256005;134.166725544884
316.836956655947;134.145287684514
316.858581055889;134.17425706504
316.880205455831;134.243886333088
316.901829855773;134.338151870599
316.923454255715;134.439124124666
316.945078655657;134.532940701447
316.966703055599;134.611932064903
316.988327455541;134.666356504416
317.009951855483;134.691429963327
317.031576255425;134.680805971526
317.053200655367;134.631769531102
317.074825055309;134.541835000566
317.096449455251;134.420366621933
317.118073855193;134.275931807861
317.139698255135;134.106914344719
317.161322655077;133.897438251792
317.182947055019;133.651320554591
317.204571454961;133.400754345365
317.226195854903;133.169829426744
317.247820254845;132.962637737616
317.269444654787;132.78551533135
317.291069054729;132.637757126263
317.312693454671;132.511486773662
317.334317854613;132.403656083664
317.355942254555;132.321609686562
317.377566654498;132.262328401462
317.399191054439;132.216070835703
317.420815454382;132.172435517382
317.442439854324;132.11368713161
317.464064254266;132.03247998828
317.485688654208;131.927642280242
317.50731305415;131.803911944494
317.528937454092;131.667514636398
317.550561854034;131.517243022862
317.572186253976;131.341772358886
317.593810653918;131.131115874509
317.61543505386;130.942192529889
317.637059453802;130.80737262951
317.658683853744;130.717099237112
317.680308253686;130.663945558387
317.701932653628;130.665859359135
317.72355705357;130.74333287706
317.745181453512;130.884080320318
317.766805853454;131.057247054036
317.788430253396;131.241563022143
317.810054653338;131.430587829133
317.83167905328;131.615818784737
317.853303453222;131.778050806267
317.874927853164;131.883864975425
317.896552253106;131.915231125393
317.918176653048;131.877777652271
317.93980105299;131.775936657799
317.961425452932;131.616594707987
317.983049852874;131.415443405844
318.004674252816;131.183474149536
318.026298652758;130.932018575078
318.0479230527;130.686215117539
318.069547452642;130.472798656808
318.091171852584;130.305650956126
318.112796252526;130.186726059324
318.134420652468;130.110155729027
318.15604505241;130.067802036184
318.177669452352;130.050288554558
318.199293852294;130.044114938897
318.220918252236;130.025409977625
318.242542652178;129.970261479682
318.26416705212;129.856548480946
318.285791452062;129.671621398142
318.307415852004;129.430825824579
318.329040251946;129.151285730833
318.350664651888;128.819323463986
318.37228905183;128.408838474206
318.393913451772;127.899935006584
318.415537851714;127.314352775819
318.437162251656;126.701111687591
318.458786651598;126.13713730876
318.48041105154;125.656089435157
318.502035451482;125.238701627105
318.523659851424;124.861555912555
318.545284251366;124.530447627268
318.566908651308;124.252550271661
318.58853305125;124.014390732379
318.610157451192;123.798156436394
318.631781851134;123.588266342769
318.653406251076;123.368230442471
318.675030651018;123.124719572384
318.69665505096;122.853623402174
318.718279450902;122.555074420459
318.739903850844;122.240254921921
318.761528250786;121.911820974093
318.783152650728;121.580516525675
318.80477705067;121.277190151577
318.826401450612;121.006114445959
318.848025850554;120.761157229212
318.869650250496;120.542851608404
318.891274650438;120.346791432669
318.91289905038;120.175033936382
318.934523450322;120.026497199092
318.956147850264;119.897152910628
318.977772250206;119.769740582034
318.999396650148;119.625327565027
319.02102105009;119.457138385059
319.042645450032;119.258347975459
319.064269849974;119.045108764552
319.085894249916;118.821444753412
319.107518649858;118.590486840103
319.129143049801;118.358347991785
319.150767449743;118.143914213398
319.172391849685;118.003435340806
319.194016249627;117.970307899088
319.215640649569;118.031052199639
319.237265049511;118.180455293242
319.258889449453;118.436452653793
319.280513849395;118.804476945952
319.302138249337;119.2365263703
319.323762649279;119.697853440087
319.345387049221;120.177264605698
319.367011449163;120.657215263681
319.388635849105;121.114538784461
319.410260249047;121.534557150282
319.431884648989;121.878132479895
319.453509048931;122.083058472141
319.475133448873;122.150248535435
319.496757848815;122.117665496741
319.518382248757;122.000145401607
319.540006648699;121.802632619828
319.561631048641;121.53666407343
319.583255448583;121.239086616739
319.604879848525;120.978109871873
319.626504248467;120.77516055915
319.648128648409;120.630606921264
319.669753048351;120.554303494596
319.691377448293;120.551660268807
319.713001848235;120.610239769569
319.734626248177;120.715535254056
319.756250648119;120.850726036858
319.777875048061;120.996145322461
319.799499448003;121.11648379715
319.821123847945;121.176058025772
319.842748247887;121.17133291916
319.864372647829;121.103109376099
319.885997047771;120.951337430728
319.907621447713;120.702884583849
319.929245847655;120.369854809257
319.950870247597;119.983431729655
319.972494647539;119.573086263032
319.994119047481;119.176540003806
320.015743447423;118.803023069645
320.037367847365;118.438114249569
320.058992247307;118.067371471648
320.080616647249;117.669390943665
320.102241047191;117.239755070883
320.123865447133;116.812292064565
320.145489847075;116.39931467797
320.167114247017;115.998500810328
320.188738646959;115.60538177744
320.210363046901;115.214484802089
320.231987446843;114.819079367404
320.253611846785;114.444427568572
320.275236246727;114.119892115696
320.296860646669;113.845958086107
320.318485046611;113.610258361211
320.340109446553;113.414042002819
320.361733846495;113.277557524121
320.383358246437;113.204623774852
320.404982646379;113.190407816945
320.426607046321;113.231535854823
320.448231446263;113.327139901626
320.469855846205;113.472772661127
320.491480246147;113.660584343956
320.513104646089;113.873573464158
320.534729046031;114.103883407827
320.556353445973;114.337718659241
320.577977845915;114.563291956321
320.599602245857;114.768743163796
320.621226645799;114.939963417872
320.642851045741;115.066222977377
320.664475445683;115.149200256091
320.686099845625;115.192182913721
320.707724245567;115.198672660724
320.729348645509;115.172667686782
320.750973045451;115.11354460191
320.772597445393;115.038148171158
320.794221845335;114.963519667411
320.815846245278;114.897754631775
320.83747064522;114.849926014796
320.859095045162;114.831800924919
320.880719445104;114.852841154004
320.902343845046;114.919957620355
320.923968244988;115.030975500781
320.94559264493;115.182782051685
320.967217044872;115.362214970936
320.988841444814;115.565817125698
321.010465844756;115.793632530003
321.032090244698;116.031264184004
321.05371464464;116.250389348752
321.075339044582;116.445489376687
321.096963444524;116.628925033107
321.118587844466;116.814679321566
321.140212244408;117.002356123122
321.16183664435;117.187225335295
321.183461044292;117.37216816604
321.205085444234;117.561040486743
321.226709844176;117.758194748421
321.248334244118;117.968088987644
321.26995864406;118.195776216107
321.291583044002;118.447607398431
321.313207443944;118.728851636027
321.334831843886;119.031139418694
321.356456243828;119.330218736711
321.37808064377;119.606376010322
321.399705043712;119.85511785136
321.421329443654;120.076352487494
321.442953843596;120.258774046648
321.464578243538;120.377367289666
321.48620264348;120.415884479497
321.507827043422;120.383929166117
321.529451443364;120.295417456621
321.551075843306;120.142612935967
321.572700243248;119.901969307585
321.59432464319;119.587853059798
321.615949043132;119.234042100403
321.637573443074;118.844034195004
321.659197843016;118.425533374824
321.680822242958;117.975427054559
321.7024466429;117.47336649956
321.724071042842;116.881238158008
321.745695442784;116.225572779038
321.767319842726;115.626215974223
321.788944242668;115.097652357591
321.81056864261;114.579896060943
321.832193042552;114.058668140167
321.853817442494;113.541269649799
321.875441842436;113.032485084063
321.897066242378;112.535429928529
321.91869064232;112.053968336164
321.940315042262;111.584209949007
321.961939442204;111.107370413939
321.983563842146;110.603678384632
322.005188242088;110.049999385521
322.02681264203;109.433139325782
322.048437041972;108.759961273816
322.070061441914;108.020768512697
322.091685841856;107.238355677039
322.113310241798;106.496763640787
322.13493464174;105.799879857077
322.156559041682;105.13155460301
322.178183441624;104.502807621164
322.199807841566;103.938037597172
322.221432241508;103.429685275367
322.24305664145;102.953616203887
322.264681041392;102.501289879628
322.286305441334;102.095847487965
322.307929841276;101.766400085349
322.329554241218;101.515831475776
322.35117864116;101.334143727104
322.372803041102;101.222421335371
322.394427441044;101.193631580515
322.416051840986;101.250737753199
322.437676240928;101.38301203367
322.45930064087;101.577623290873
322.480925040812;101.835762445526
322.502549440754;102.164470225075
322.524173840697;102.555199178189
322.545798240639;102.971427421298
322.567422640581;103.343865626657
322.589047040523;103.654653766481
322.610671440465;103.912265428823
322.632295840407;104.104326771594
322.653920240349;104.23651743401
322.675544640291;104.308030614854
322.697169040233;104.298332712215
322.718793440175;104.196743687559
322.740417840117;104.01503802766
322.762042240059;103.775461174138
322.783666640001;103.519541888986
322.805291039943;103.265833813367
322.826915439885;103.013340419771
322.848539839827;102.78307083757
322.870164239769;102.595791384693
322.891788639711;102.459612522172
322.913413039653;102.376035330236
322.935037439595;102.353790802875
322.956661839537;102.404461758207
322.978286239479;102.531146030133
322.999910639421;102.725478619235
323.021535039363;102.98919790532
323.043159439305;103.314428685044
323.064783839247;103.647502991008
323.086408239189;103.981025499556
323.108032639131;104.313846913023
323.129657039073;104.627702165905
323.151281439015;104.893139240416
323.172905838957;105.089422721586
323.194530238899;105.213569743195
323.216154638841;105.258040316979
323.237779038783;105.191559635215
323.259403438725;104.98761473788
323.281027838667;104.676449983755
323.302652238609;104.277328992782
323.324276638551;103.79042922271
323.345901038493;103.193117653486
323.367525438435;102.477052893424
323.389149838377;101.678919813618
323.410774238319;100.868750251199
323.432398638261;100.080136094593
323.454023038203;99.2849691009877
323.475647438145;98.4355947340602
323.497271838087;97.5482115621442
323.518896238029;96.7878560003822
323.540520637971;96.1969497455108
323.562145037913;95.714696059735
323.583769437855;95.3157405300698
323.605393837797;95.0053376287358
323.627018237739;94.8011886192017
323.648642637681;94.7184131931598
323.670267037623;94.7460138885721
323.691891437565;94.8548781600768
323.713515837507;95.0179558992737
323.735140237449;95.2249529561879
323.756764637391;95.4676837762837
323.778389037333;95.7127923866716
323.800013437275;95.9307887227292
323.821637837217;96.0989513997912
323.843262237159;96.2154632170527
323.864886637101;96.2751794210579
323.886511037043;96.2621217546511
323.908135436985;96.1530038105193
323.929759836927;95.9337425319333
323.951384236869;95.6385333431965
323.973008636811;95.2963820079322
323.994633036753;94.9186722368917
324.016257436695;94.5061986834884
324.037881836637;94.0762013654037
324.059506236579;93.6307942993423
324.081130636521;93.1626650433266
324.102755036463;92.6503760747873
324.124379436405;92.1238092294786
324.146003836347;91.6292851608285
324.167628236289;91.1667204233384
324.189252636231;90.7346745667305
324.210877036173;90.3313666136473
324.232501436116;89.9469091476023
324.254125836057;89.6063156433866
324.275750236;89.3200180435794
324.297374635942;89.0774526600946
324.318999035884;88.8621157058303
324.340623435826;88.664424312626
324.362247835768;88.4828761997799
324.38387223571;88.3083070335479
324.405496635652;88.1315369814694
324.427121035594;87.9479821763022
324.448745435536;87.7609465361852
324.470369835478;87.5726256723974
324.49199423542;87.3914025745773
324.513618635362;87.2186738450397
324.535243035304;87.0550688482291
324.556867435246;86.9038362588748
324.578491835188;86.7735099436093
324.60011623513;86.6741334887782
324.621740635072;86.617416009142
324.643365035014;86.6046090755737
324.664989434956;86.6302221081572
324.686613834898;86.687557187495
324.70823823484;86.7692940509722
324.729862634782;86.869609452797
324.751487034724;86.9713673282247
