Name;ESR_BC_1_359s_Y_gon_140dg_4

Recipe
Accumulations;5;Number of accumulations
RetryCount;0;Number of retries on error
AbortOnError;True;Abort on error
EnableQFactorMeasurement;False;Enable/Disable q-Factor measurement
Bfrom;313;B from
Bto;363;B to
SweepTime;60;Sweep time
Modulation;0.2;Modulation
ModulationFreq;100;Modulation
BHoldEnabled;False;B hold enabled
BHold;0;B hold
MicrowavePower;2;Microwave power
MarkerEnabled;False;
MarkerStartField;0;
MarkerEndField;0;
Mode;;
KineticGFact;0;
KineticTotalTransientTime;0;
KineticTimeResolution;0;
TempFrom;5;
TempUseSlope;False;
TempTo;5;
TempdT;1;
TempSetupTime;0;
GonFrom;0;
GonTo;180;
GonSteps;20;
XRayEnabled;False;
XRayTime;3;
XRayVoltage;40;
XRayCurrent;0.5;
UVEnabled;False;
UVIntensity;0;
UVTime;0;
UVLeadTime;0;
UVWavelength;0;
PowSweepFrom;1;
PowSweepTo;5;
PowSweepSteps;5;
AmpModSweepFrom;0;
AmpModSweepTo;1;
AmpModSweepSteps;10;
ExtTriggerEnabled;False;
ExtTrigLeadTime;0;
ExtTrigOnTime;5;

Meas
BField [mT];MW_Absorption []
313.025972518921;166.339655680887
313.047595928803;165.388772059431
313.069219338685;164.43296358669
313.090842748568;163.386226289928
313.11246615845;162.221978146922
313.134089568332;160.952803902911
313.155712978214;159.680902231767
313.177336388097;158.49826636518
313.198959797979;157.468643366625
313.220583207861;156.58036308613
313.242206617743;155.78876797477
313.263830027626;155.112058036522
313.285453437508;154.682340070278
313.30707684739;154.50618080944
313.328700257272;154.505482192359
313.350323667155;154.64940634183
313.371947077037;154.956653326643
313.393570486919;155.430283177337
313.415193896801;155.96196220938
313.436817306684;156.481188949814
313.458440716566;157.000823646052
313.480064126448;157.531630611294
313.50168753633;158.029013541414
313.523310946213;158.44760836845
313.544934356095;158.793445895503
313.566557765977;159.075181109042
313.588181175859;159.304952030692
313.609804585742;159.491519012813
313.631427995624;159.637787703946
313.653051405506;159.745848422182
313.674674815388;159.823124582832
313.696298225271;159.875511005574
313.717921635153;159.900730153474
313.739545045035;159.887990057882
313.761168454917;159.829122167158
313.7827918648;159.717374121107
313.804415274682;159.545269057385
313.826038684564;159.306228336643
313.847662094446;159.001580759456
313.869285504329;158.647595416082
313.890908914211;158.265786267389
313.912532324093;157.861396449683
313.934155733975;157.406932666519
313.955779143858;156.823187395434
313.97740255374;156.056779790388
313.999025963622;155.322391187774
314.020649373504;154.663471903635
314.042272783387;154.031748854897
314.063896193269;153.412037599664
314.085519603151;152.832714412995
314.107143013033;152.298122167804
314.128766422916;151.821950104937
314.150389832798;151.434171351288
314.17201324268;151.155833558384
314.193636652562;150.970458509694
314.215260062445;150.842930133205
314.236883472327;150.755325246379
314.258506882209;150.702835706027
314.280130292091;150.68069229844
314.301753701974;150.679740549708
314.323377111856;150.688413316683
314.345000521738;150.696494955299
314.366623931621;150.696732202043
314.388247341503;150.679667871301
314.409870751385;150.647116774008
314.431494161267;150.602364037643
314.45311757115;150.546263239901
314.474740981032;150.474530821341
314.496364390914;150.386332926131
314.517987800796;150.293945679416
314.539611210679;150.201444860555
314.561234620561;150.113594240225
314.582858030443;150.036438332461
314.604481440325;149.967775625783
314.626104850208;149.921113476345
314.64772826009;149.892976750875
314.669351669972;149.885320279044
314.690975079854;149.893588558603
314.712598489737;149.915539837294
314.734221899619;149.951713678543
314.755845309501;149.995681405608
314.777468719383;150.027133250914
314.799092129266;150.034459499328
314.820715539148;150.011002887776
314.84233894903;149.952365999132
314.863962358912;149.846791072042
314.885585768795;149.693011907251
314.907209178677;149.503590520039
314.928832588559;149.289082143282
314.950455998441;149.055005137987
314.972079408324;148.802354015478
314.993702818206;148.528355540368
315.015326228088;148.226151142153
315.03694963797;147.894235224263
315.058573047853;147.56043606146
315.080196457735;147.246423139691
315.101819867617;146.971295863194
315.123443277499;146.727821407244
315.145066687382;146.496467893623
315.166690097264;146.266244538652
315.188313507146;146.030451307181
315.209936917028;145.778540096431
315.231560326911;145.500778993644
315.253183736793;145.180785131366
315.274807146675;144.799151521711
315.296430556557;144.370161793891
315.31805396644;143.943471035993
315.339677376322;143.544792588935
315.361300786204;143.169428035692
315.382924196086;142.813484438328
315.404547605969;142.491525168657
315.426171015851;142.221863166482
315.447794425733;142.010811144662
315.469417835615;141.853649220858
315.491041245498;141.738342908541
315.51266465538;141.650698421353
315.534288065262;141.572946997018
315.555911475144;141.485359431927
315.577534885027;141.363150205459
315.599158294909;141.191131656888
315.620781704791;140.990474198923
315.642405114673;140.768736060563
315.664028524556;140.504938359735
315.685651934438;140.190062382548
315.70727534432;139.840738766023
315.728898754202;139.472203538574
315.750522164085;139.115608237237
315.772145573967;138.812948367398
315.793768983849;138.557004454198
315.815392393731;138.3292743135
315.837015803614;138.129479069944
315.858639213496;137.970374975178
315.880262623378;137.858261418448
315.90188603326;137.7650623909
315.923509443143;137.667141161087
315.945132853025;137.543756357237
315.966756262907;137.38540781242
315.988379672789;137.181078104004
316.010003082672;136.934031497507
316.031626492554;136.645705401505
316.053249902436;136.279728101255
316.074873312318;135.820428602727
316.096496722201;135.302411187268
316.118120132083;134.800706127886
316.139743541965;134.339910985177
316.161366951847;133.900232193227
316.18299036173;133.484431493646
316.204613771612;133.151854393841
316.226237181494;132.926645838007
316.247860591376;132.790331313114
316.269484001259;132.73227025449
316.291107411141;132.755071840627
316.312730821023;132.845647493443
316.334354230905;132.972229544628
316.355977640788;133.11913594798
316.37760105067;133.281482934442
316.399224460552;133.413258970486
316.420847870435;133.465420756232
316.442471280317;133.427146799237
316.464094690199;133.303984322959
316.485718100081;133.101451436982
316.507341509964;132.813758781471
316.528964919846;132.419639614075
316.550588329728;131.949607623697
316.57221173961;131.488552935217
316.593835149493;131.079076728459
316.615458559375;130.718372797976
316.637081969257;130.399202951278
316.658705379139;130.128290266928
316.680328789022;129.930193848774
316.701952198904;129.842885510346
316.723575608786;129.868778988741
316.745199018668;129.981633606949
316.766822428551;130.14920654503
316.788445838433;130.353176710769
316.810069248315;130.588400673819
316.831692658197;130.842293304905
316.85331606808;131.079583262995
316.874939477962;131.261526461608
316.896562887844;131.379767204981
316.918186297726;131.449077032048
316.939809707609;131.48870705639
316.961433117491;131.511865881818
316.983056527373;131.531435813318
317.004679937255;131.565131737641
317.026303347138;131.637318812399
317.04792675702;131.765558386655
317.069550166902;131.953663036076
317.091173576784;132.195035387137
317.112796986667;132.489730810123
317.134420396549;132.841951551379
317.156043806431;133.240660599058
317.177667216313;133.632918529362
317.199290626196;133.968123174994
317.220914036078;134.224118392325
317.24253744596;134.393183740792
317.264160855842;134.486576592753
317.285784265725;134.506261946075
317.307407675607;134.442139216364
317.329031085489;134.297115668484
317.350654495371;134.095934744587
317.372277905254;133.870846297279
317.393901315136;133.646054415591
317.415524725018;133.434442515357
317.4371481349;133.261940495377
317.458771544783;133.144595940962
317.480394954665;133.070337958737
317.502018364547;133.024795363966
317.523641774429;132.994365291781
317.545265184312;132.964095185604
317.566888594194;132.908111117165
317.588512004076;132.809574148958
317.610135413958;132.650290767921
317.631758823841;132.420084847676
317.653382233723;132.106728918481
317.675005643605;131.714100852003
317.696629053487;131.260617620706
317.71825246337;130.764086912674
317.739875873252;130.222878539481
317.761499283134;129.622401839656
317.783122693016;128.97927183896
317.804746102899;128.346161721937
317.826369512781;127.818722800605
317.847992922663;127.462168987937
317.869616332545;127.24421733941
317.891239742428;127.125461038699
317.91286315231;127.090124731285
317.934486562192;127.144186338943
317.956109972074;127.308741973161
317.977733381957;127.57970261244
317.999356791839;127.939415322171
318.020980201721;128.37470018701
318.042603611603;128.861793785891
318.064227021486;129.36216923724
318.085850431368;129.835332676317
318.10747384125;130.259116873054
318.129097251132;130.638529416791
318.150720661015;130.994424569786
318.172344070897;131.354469493711
318.193967480779;131.638810605184
318.215590890661;131.807562318547
318.237214300544;131.905782411609
318.258837710426;131.949548824583
318.280461120308;131.938266311799
318.30208453019;131.879745053619
318.323707940073;131.780108351284
318.345331349955;131.644680347245
318.366954759837;131.481391231793
318.388578169719;131.290008523784
318.410201579602;131.06158021925
318.431824989484;130.799535589205
318.453448399366;130.506326188113
318.475071809248;130.165881035142
318.496695219131;129.759062261138
318.518318629013;129.284438462334
318.539942038895;128.73729229694
318.561565448777;128.111053849128
318.58318885866;127.411673290817
318.604812268542;126.683159665574
318.626435678424;125.946884660127
318.648059088306;125.193479885483
318.669682498189;124.418746709092
318.691305908071;123.619857805726
318.712929317953;122.78174273109
318.734552727835;121.900754752993
318.756176137718;121.065131263304
318.7777995476;120.374989895695
318.799422957482;119.823167400407
318.821046367364;119.376938348177
318.842669777247;119.049441463065
318.864293187129;118.882817190672
318.885916597011;118.879399712826
318.907540006894;119.016283360378
318.929163416776;119.289633697023
318.950786826658;119.708521050433
318.97241023654;120.221295505636
318.994033646423;120.73691598047
319.015657056305;121.229831841279
319.037280466187;121.679144340697
319.058903876069;122.03327114524
319.080527285952;122.297814101221
319.102150695834;122.493688423337
319.123774105716;122.617641295765
319.145397515598;122.675460171369
319.167020925481;122.679912891959
319.188644335363;122.640954719798
319.210267745245;122.566574880038
319.231891155127;122.477511869936
319.25351456501;122.398649003043
319.275137974892;122.341473624214
319.296761384774;122.316309258574
319.318384794656;122.326316749662
319.340008204539;122.371903344905
319.361631614421;122.448609988994
319.383255024303;122.548884141353
319.404878434185;122.66615958238
319.426501844068;122.797233762612
319.44812525395;122.912464591764
319.469748663832;122.997387034431
319.491372073714;123.040743065743
319.512995483597;123.039508319078
319.534618893479;122.98361380152
319.556242303361;122.874469609399
319.577865713243;122.708051317024
319.599489123126;122.478595627472
319.621112533008;122.170830400389
319.64273594289;121.778846774794
319.664359352772;121.330870719326
319.685982762655;120.836268041088
319.707606172537;120.275583043225
319.729229582419;119.665038870481
319.750852992301;119.038842031238
319.772476402184;118.383566635786
319.794099812066;117.737884539546
319.815723221948;117.141959065359
319.83734663183;116.609897215346
319.858970041713;116.162364596426
319.880593451595;115.794657901122
319.902216861477;115.49329484996
319.923840271359;115.269210020485
319.945463681242;115.123791413428
319.967087091124;115.04502505464
319.988710501006;115.018960304903
320.010333910888;115.026790987556
320.031957320771;115.041810642344
320.053580730653;115.040257354189
320.075204140535;115.015960313136
320.096827550417;114.962885069925
320.1184509603;114.866589572343
320.140074370182;114.722228772954
320.161697780064;114.511119406173
320.183321189946;114.251491236025
320.204944599829;113.999126136638
320.226568009711;113.766732306334
320.248191419593;113.553287295317
320.269814829475;113.363157175318
320.291438239358;113.191032755025
320.31306164924;113.03684492415
320.334685059122;112.918685904857
320.356308469004;112.838264707487
320.377931878887;112.786246470075
320.399555288769;112.755432595198
320.421178698651;112.745375910077
320.442802108533;112.748609838394
320.464425518416;112.768740663742
320.486048928298;112.807112318782
320.50767233818;112.883536376458
320.529295748062;113.026002037948
320.550919157945;113.251940771245
320.572542567827;113.543215200415
320.594165977709;113.89836601886
320.615789387591;114.313179632951
320.637412797474;114.787184693039
320.659036207356;115.325067453079
320.680659617238;115.915965093709
320.70228302712;116.536577384835
320.723906437003;117.169871640475
320.745529846885;117.794503268395
320.767153256767;118.398679871434
320.788776666649;118.965970450542
320.810400076532;119.453108343115
320.832023486414;119.826333475652
320.853646896296;120.071739078251
320.875270306178;120.192058373044
320.896893716061;120.210491685616
320.918517125943;120.143968358018
320.940140535825;119.984253654495
320.961763945708;119.72355993085
320.98338735559;119.418317864006
321.005010765472;119.127244044436
321.026634175354;118.867285613296
321.048257585237;118.636050622562
321.069880995119;118.433575193534
321.091504405001;118.271603428256
321.113127814883;118.16625978807
321.134751224766;118.116632822316
321.156374634648;118.120654336564
321.17799804453;118.176818206739
321.199621454412;118.281731226289
321.221244864295;118.428712185777
321.242868274177;118.599409721981
321.264491684059;118.775289271476
321.286115093941;118.943978867862
321.307738503824;119.091600770125
321.329361913706;119.206895453535
321.350985323588;119.288184261049
321.37260873347;119.333380468505
321.394232143353;119.333395297871
321.415855553235;119.284222681383
321.437478963117;119.191414107725
321.459102372999;119.05695622043
321.480725782882;118.877498181762
321.502349192764;118.652382954419
321.523972602646;118.393681798336
321.545596012528;118.117270833538
321.567219422411;117.829667490981
321.588842832293;117.540200399268
321.610466242175;117.26212741955
321.632089652057;116.998241574936
321.65371306194;116.736135010513
321.675336471822;116.452888232845
321.696959881704;116.125185126649
321.718583291586;115.761646543315
321.740206701469;115.367888352583
321.761830111351;114.918427325589
321.783453521233;114.391217356727
321.805076931115;113.794057821672
321.826700340998;113.127084782727
321.84832375088;112.343972568011
321.869947160762;111.398255265142
321.891570570644;110.380148776844
321.913193980527;109.3848369874
321.934817390409;108.414612722571
321.956440800291;107.440734866793
321.978064210173;106.445256995157
321.999687620056;105.461464185929
322.021311029938;104.533327976359
322.04293443982;103.686240421835
322.064557849702;102.951158237234
322.086181259585;102.329704351079
322.107804669467;101.776272524516
322.129428079349;101.258144427674
322.151051489231;100.77153308681
322.172674899114;100.355962909113
322.194298308996;100.026873022831
322.215921718878;99.7594621114161
322.23754512876;99.5356790856485
322.259168538643;99.3557941126101
322.280791948525;99.2320882474092
322.302415358407;99.1662951055651
322.324038768289;99.1529374719615
322.345662178172;99.1836203334414
322.367285588054;99.2522296627526
322.388908997936;99.3461942529964
322.410532407818;99.4582451326631
322.432155817701;99.5870784288109
322.453779227583;99.7402492616323
322.475402637465;99.9243964632881
322.497026047347;100.120712352288
322.51864945723;100.315289438934
322.540272867112;100.51469577109
322.561896276994;100.738306520522
322.583519686876;101.017219257556
322.605143096759;101.35747350827
322.626766506641;101.707550863166
322.648389916523;102.058495981758
322.670013326405;102.429140191009
322.691636736288;102.828076731061
322.71326014617;103.249285637199
322.734883556052;103.672686493049
322.756506965934;104.079769089004
322.778130375817;104.463156619235
322.799753785699;104.821028159904
322.821377195581;105.146174395435
322.843000605463;105.429858106325
322.864624015346;105.662238670745
322.886247425228;105.83673736845
322.90787083511;105.95992974992
322.929494244992;106.037631031958
322.951117654875;106.068083581484
322.972741064757;106.049628515161
322.994364474639;105.980214639904
323.015987884521;105.858394389168
323.037611294404;105.710170900666
323.059234704286;105.563481483235
323.080858114168;105.423484598376
323.10248152405;105.297312823338
323.124104933933;105.204840030687
323.145728343815;105.145884275146
323.167351753697;105.116931043075
323.188975163579;105.108406613562
323.210598573462;105.114517736783
323.232221983344;105.125509992608
323.253845393226;105.133506431788
323.275468803108;105.115976280699
323.297092212991;105.070146354632
323.318715622873;104.98895608659
323.340339032755;104.860951898718
323.361962442637;104.687390766589
323.38358585252;104.460894399488
323.405209262402;104.184286352614
323.426832672284;103.848700669831
323.448456082167;103.443842324658
323.470079492049;102.973507873845
323.491702901931;102.460013164306
323.513326311813;101.932023655477
323.534949721696;101.385588422488
323.556573131578;100.834588370664
323.57819654146;100.307424900616
323.599819951342;99.8000748197422
323.621443361225;99.3005938193132
323.643066771107;98.8295017494512
323.664690180989;98.4467893010602
323.686313590871;98.1578850537954
323.707937000754;97.9250014669606
323.729560410636;97.7209583890838
323.751183820518;97.5389461699611
323.7728072304;97.3773238722028
323.794430640283;97.2146713902543
323.816054050165;97.0376288603614
323.837677460047;96.8322872728021
323.859300869929;96.5765985523874
323.880924279812;96.2550922964902
323.902547689694;95.8826182719761
323.924171099576;95.4552848027538
323.945794509458;94.9356707511982
323.967417919341;94.2512395013999
323.989041329223;93.4234573747192
324.010664739105;92.6254242985855
324.032288148987;91.8945092455954
324.05391155887;91.1644999588109
324.075534968752;90.3949685506311
324.097158378634;89.6123813563713
324.118781788516;88.9508945006978
324.140405198399;88.4192995892049
324.162028608281;87.9504425231825
324.183652018163;87.5130308080548
324.205275428045;87.116996328013
324.226898837928;86.7958061861391
324.24852224781;86.550572621585
324.270145657692;86.3678374215692
324.291769067574;86.2395810495219
324.313392477457;86.1497839881167
324.335015887339;86.0740753951038
324.356639297221;85.9991659058296
324.378262707103;85.9176955451744
324.399886116986;85.8300570508625
324.421509526868;85.7294373703066
324.44313293675;85.6178646435893
324.464756346632;85.5077440833932
324.486379756515;85.4007210195872
324.508003166397;85.3077080781633
324.529626576279;85.2290327749486
324.551249986161;85.1685542960635
324.572873396044;85.1294880069187
324.594496805926;85.1063119820099
324.616120215808;85.0986456898083
324.63774362569;85.1006606663351
324.659367035573;85.1125850422401
324.680990445455;85.1305616465061
324.702613855337;85.1603578146987
324.724237265219;85.2123525883059
324.745860675102;85.2869509713204
324.767484084984;85.3866820376074
