Name;ESR_BC_1_359s_Y_gon_100dg_5

Recipe
Accumulations;5;Number of accumulations
RetryCount;0;Number of retries on error
AbortOnError;True;Abort on error
EnableQFactorMeasurement;False;Enable/Disable q-Factor measurement
Bfrom;313;B from
Bto;363;B to
SweepTime;60;Sweep time
Modulation;0.2;Modulation
ModulationFreq;100;Modulation
BHoldEnabled;False;B hold enabled
BHold;0;B hold
MicrowavePower;2;Microwave power
MarkerEnabled;False;
MarkerStartField;0;
MarkerEndField;0;
Mode;;
KineticGFact;0;
KineticTotalTransientTime;0;
KineticTimeResolution;0;
TempFrom;5;
TempUseSlope;False;
TempTo;5;
TempdT;1;
TempSetupTime;0;
GonFrom;0;
GonTo;180;
GonSteps;20;
XRayEnabled;False;
XRayTime;3;
XRayVoltage;40;
XRayCurrent;0.5;
UVEnabled;False;
UVIntensity;0;
UVTime;0;
UVLeadTime;0;
UVWavelength;0;
PowSweepFrom;1;
PowSweepTo;5;
PowSweepSteps;5;
AmpModSweepFrom;0;
AmpModSweepTo;1;
AmpModSweepSteps;10;
ExtTriggerEnabled;False;
ExtTrigLeadTime;0;
ExtTrigOnTime;5;

Meas
BField [mT];MW_Absorption []
313.024747314453;177.730077403656
313.046371119247;177.413051799156
313.067994924042;177.00547819566
313.089618728836;176.53275108079
313.11124253363;176.031406667196
313.132866338424;175.535723729726
313.154490143219;175.054189030953
313.176113948013;174.576675227975
313.197737752807;174.099868875827
313.219361557601;173.641492290204
313.240985362396;173.228824095792
313.26260916719;172.862361043159
313.284232971984;172.525383466636
313.305856776778;172.263049051
313.327480581573;172.116813497041
313.349104386367;172.061562347922
313.370728191161;172.075715657035
313.392351995955;172.155828904246
313.41397580075;172.29380744875
313.435599605544;172.466842662181
313.457223410338;172.670276483313
313.478847215132;172.892780896364
313.500471019927;173.091178523842
313.522094824721;173.243282473162
313.543718629515;173.355975403564
313.565342434309;173.423275702007
313.586966239104;173.448542919948
313.608590043898;173.443756998073
313.630213848692;173.40439232917
313.651837653486;173.334497984195
313.67346145828;173.233623566847
313.695085263075;173.09754432171
313.716709067869;172.928276665134
313.738332872663;172.731628075053
313.759956677457;172.502894106527
313.781580482252;172.250178187379
313.803204287046;171.975768514028
313.82482809184;171.678798543997
313.846451896634;171.382560089346
313.868075701429;171.104567154423
313.889699506223;170.855345410985
313.911323311017;170.658429938909
313.932947115811;170.555598963306
313.954570920606;170.549427771917
313.9761947254;170.627742363793
313.997818530194;170.780613264532
314.019442334988;171.013095771239
314.041066139783;171.323625130806
314.062689944577;171.660162731155
314.084313749371;171.985223343974
314.105937554165;172.277151573457
314.12756135896;172.518771823776
314.149185163754;172.700915288296
314.170808968548;172.820301834106
314.192432773342;172.868942609368
314.214056578137;172.85178325302
314.235680382931;172.791597117542
314.257304187725;172.715177781269
314.278927992519;172.654473049546
314.300551797314;172.629319235013
314.322175602108;172.654659240823
314.343799406902;172.741409817455
314.365423211696;172.886884159202
314.387047016491;173.085841201955
314.408670821285;173.347399842867
314.430294626079;173.642824338875
314.451918430873;173.914422062571
314.473542235668;174.173621809013
314.495166040462;174.426371773419
314.516789845256;174.663121227657
314.53841365005;174.875969200297
314.560037454845;175.061980535935
314.581661259639;175.222826916326
314.603285064433;175.360687529332
314.624908869227;175.48240460649
314.646532674022;175.594773041727
314.668156478816;175.701308889902
314.68978028361;175.810412065953
314.711404088404;175.933357207374
314.733027893199;176.069368562404
314.754651697993;176.204724211284
314.776275502787;176.335816089462
314.797899307581;176.454411871376
314.819523112376;176.555697962741
314.84114691717;176.624599213301
314.862770721964;176.650028643834
314.884394526758;176.636389946935
314.906018331553;176.588577918443
314.927642136347;176.510327024142
314.949265941141;176.412738044214
314.970889745935;176.313200034957
314.992513550729;176.224044006673
315.014137355524;176.149928159551
315.035761160318;176.098839939654
315.057384965112;176.087213720162
315.079008769906;176.122104980434
315.100632574701;176.201665723913
315.122256379495;176.324661124743
315.143880184289;176.490454480028
315.165503989083;176.673129198189
315.187127793878;176.839540673595
315.208751598672;176.991190629838
315.230375403466;177.136231907498
315.25199920826;177.277436967875
315.273623013055;177.405651937269
315.295246817849;177.50253865396
315.316870622643;177.558347311567
315.338494427437;177.572580214904
315.360118232232;177.547366702922
315.381742037026;177.47901204767
315.40336584182;177.370277871902
315.424989646614;177.228744590135
315.446613451409;177.070413151732
315.468237256203;176.899263992003
315.489861060997;176.704506741298
315.511484865791;176.481745383964
315.533108670586;176.264675956216
315.55473247538;176.085231369514
315.576356280174;175.948656778534
315.597980084968;175.84829213759
315.619603889763;175.794736855233
315.641227694557;175.803211246797
315.662851499351;175.867581760851
315.684475304145;175.977498949062
315.70609910894;176.127995239331
315.727722913734;176.312051077807
315.749346718528;176.53222757879
315.770970523322;176.796013741763
315.792594328117;177.094726863442
315.814218132911;177.397316106589
315.835841937705;177.664635651118
315.857465742499;177.874093284848
315.879089547294;178.021715825787
315.900713352088;178.122816943032
315.922337156882;178.188933014119
315.943960961676;178.220054935641
315.965584766471;178.213033234977
315.987208571265;178.171081172283
316.008832376059;178.090571849285
316.030456180853;177.982932025933
316.052079985647;177.851944247394
316.073703790442;177.702621498559
316.095327595236;177.545932934646
316.11695140003;177.390304680218
316.138575204824;177.239384324602
316.160199009619;177.096674298551
316.181822814413;176.964791723131
316.203446619207;176.847558991504
316.225070424001;176.74758110678
316.246694228796;176.667412292749
316.26831803359;176.612833701731
316.289941838384;176.588670493218
316.311565643178;176.588286828246
316.333189447973;176.606548788181
316.354813252767;176.636634335442
316.376437057561;176.669311225471
316.398060862355;176.695744761711
316.41968466715;176.705966068075
316.441308471944;176.68938288512
316.462932276738;176.632882363968
316.484556081532;176.523140269914
316.506179886327;176.34661966481
316.527803691121;176.099750467277
316.549427495915;175.802349352846
316.571051300709;175.495519292691
316.592675105504;175.161803879736
316.614298910298;174.787322647945
316.635922715092;174.364533115488
316.657546519886;173.902458656013
316.679170324681;173.427403429669
316.700794129475;172.965982447876
316.722417934269;172.510825808367
316.744041739063;172.057114898334
316.765665543858;171.627516380936
316.787289348652;171.222720309489
316.808913153446;170.811083210608
316.83053695824;170.405024126534
316.852160763035;170.0463332724
316.873784567829;169.701506002884
316.895408372623;169.332253081993
316.917032177417;168.948284331974
316.938655982212;168.554759938966
316.960279787006;168.13744436592
316.9819035918;167.694267655919
317.003527396594;167.239572806031
317.025151201389;166.787081932455
317.046775006183;166.35472527909
317.068398810977;165.956358769145
317.090022615771;165.600024587229
317.111646420566;165.307078219195
317.13327022536;165.081137553049
317.154894030154;164.908044346148
317.176517834948;164.786228239851
317.198141639743;164.715736528198
317.219765444537;164.677563898496
317.241389249331;164.649162019139
317.263013054125;164.615274399768
317.28463685892;164.558626340548
317.306260663714;164.45989130174
317.327884468508;164.308290326423
317.349508273302;164.10643973068
317.371132078096;163.838904647257
317.392755882891;163.507710657187
317.414379687685;163.147150882974
317.436003492479;162.775900540572
317.457627297273;162.373955933829
317.479251102068;161.892048239703
317.500874906862;161.333901166077
317.522498711656;160.780173853418
317.54412251645;160.229544609494
317.565746321245;159.660723723352
317.587370126039;159.066584423734
317.608993930833;158.472684893301
317.630617735627;157.893878398641
317.652241540422;157.335058182782
317.673865345216;156.787559053958
317.69548915001;156.238311198042
317.717112954804;155.681787917994
317.738736759599;155.116838477501
317.760360564393;154.5386402162
317.781984369187;153.929971857031
317.803608173981;153.300063226292
317.825231978776;152.662325982788
317.84685578357;151.986084872094
317.868479588364;151.241979804914
317.890103393158;150.453268966248
317.911727197953;149.665759536677
317.933351002747;148.942734869333
317.954974807541;148.306311333977
317.976598612335;147.730632144909
317.99822241713;147.197339416308
318.019846221924;146.685150296719
318.041470026718;146.171619791425
318.063093831512;145.653110561058
318.084717636307;145.168263603215
318.106341441101;144.743488991595
318.127965245895;144.375804992437
318.149589050689;144.047570455543
318.171212855484;143.739757205427
318.192836660278;143.440642898105
318.214460465072;143.142496681143
318.236084269866;142.837651497377
318.257708074661;142.518922981123
318.279331879455;142.18080938542
318.300955684249;141.825084187925
318.322579489043;141.454313332186
318.344203293838;141.075531218954
318.365827098632;140.68122175796
318.387450903426;140.242688342758
318.40907470822;139.71191866445
318.430698513014;139.046421035059
318.452322317809;138.281776091179
318.473946122603;137.490028552564
318.495569927397;136.732691218495
318.517193732191;135.99866863737
318.538817536986;135.229054145421
318.56044134178;134.380799828436
318.582065146574;133.428098095057
318.603688951368;132.352678050654
318.625312756163;131.150886222013
318.646936560957;129.946567854456
318.668560365751;128.822219312962
318.690184170545;127.710532254929
318.71180797534;126.546084241032
318.733431780134;125.378935966118
318.755055584928;124.318951922812
318.776679389722;123.357441331647
318.798303194517;122.405882110714
318.819926999311;121.405140307302
318.841550804105;120.433036656795
318.863174608899;119.643932747931
318.884798413694;119.044155761903
318.906422218488;118.562999167426
318.928046023282;118.139583011971
318.949669828076;117.762479224151
318.971293632871;117.438110157899
318.992917437665;117.159206658434
319.014541242459;116.900992661791
319.036165047253;116.631527637711
319.057788852048;116.327829759332
319.079412656842;115.976538077717
319.101036461636;115.583435855746
319.12266026643;115.160400579869
319.144284071225;114.692938853621
319.165907876019;114.172284233736
319.187531680813;113.627349566686
319.209155485607;113.085572881265
319.230779290402;112.55229580201
319.252403095196;112.02804507742
319.27402689999;111.534024684899
319.295650704784;111.08856509615
319.317274509579;110.650072386631
319.338898314373;110.194679385323
319.360522119167;109.701177037372
319.382145923961;109.140273551854
319.403769728756;108.526314105824
319.42539353355;107.893053388841
319.447017338344;107.206639500029
319.468641143138;106.439642346662
319.490264947933;105.56065527503
319.511888752727;104.56641035495
319.533512557521;103.507248719203
319.555136362315;102.379032502734
319.57676016711;101.277391708242
319.598383971904;100.301963255996
319.620007776698;99.4049620690909
319.641631581492;98.5336841626053
319.663255386286;97.6841549141777
319.684879191081;96.9001428130902
319.706502995875;96.2485926640822
319.728126800669;95.7400525212673
319.749750605463;95.3257064875181
319.771374410258;94.9737435727748
319.792998215052;94.6792370390627
319.814622019846;94.4664116340378
319.83624582464;94.3243581624771
319.857869629435;94.2261656416486
319.879493434229;94.1695982616772
319.901117239023;94.1617152409628
319.922741043817;94.2061279924946
319.944364848612;94.2819871845177
319.965988653406;94.3705746630571
319.9876124582;94.4661569166966
320.009236262994;94.5574702647154
320.030860067789;94.6224501707204
320.052483872583;94.6433152887116
320.074107677377;94.6099960912365
320.095731482171;94.5123690551804
320.117355286966;94.3566511868719
320.13897909176;94.1541343042464
320.160602896554;93.9097596661427
320.182226701348;93.6172105276311
320.203850506143;93.273295132163
320.225474310937;92.9216419754415
320.247098115731;92.5977255423258
320.268721920525;92.2852781203532
320.29034572532;91.9459288558799
320.311969530114;91.5636077830227
320.333593334908;91.180556442409
320.355217139702;90.8262698783294
320.376840944497;90.4916539276
320.398464749291;90.1631674536961
320.420088554085;89.8545481965642
320.441712358879;89.5721704695231
320.463336163674;89.3082669642873
320.484959968468;89.0835707333719
320.506583773262;88.9292711060312
320.528207578056;88.8337791048871
320.549831382851;88.7841414140872
320.571455187645;88.788059375739
320.593078992439;88.8688841837474
320.614702797233;89.0139186893573
320.636326602028;89.1968019424001
320.657950406822;89.3987159992569
320.679574211616;89.6139444370121
320.70119801641;89.8422614673109
320.722821821204;90.0813006455389
320.744445625999;90.3236890093705
320.766069430793;90.5437058821083
320.787693235587;90.7252158665999
320.809317040381;90.8569424265991
320.830940845176;90.9194937805589
320.85256464997;90.9081956037866
320.874188454764;90.8370005641271
320.895812259558;90.7117183785122
320.917436064353;90.5364800855311
320.939059869147;90.3414836943898
320.960683673941;90.156158535473
320.982307478735;89.996046056238
321.00393128353;89.8761778260883
321.025555088324;89.8168115236728
321.047178893118;89.8398995218877
321.068802697912;89.9527432162768
321.090426502707;90.1521602522048
321.112050307501;90.4277154091074
321.133674112295;90.7507369939801
321.155297917089;91.0872510701304
321.176921721884;91.4089712313981
321.198545526678;91.6972519418235
321.220169331472;91.9393718271307
321.241793136266;92.1054396365054
321.263416941061;92.1542053431638
321.285040745855;92.0850898492711
321.306664550649;91.9050059976882
321.328288355443;91.5904368232275
321.349912160238;91.1369739343952
321.371535965032;90.5772491543426
321.393159769826;89.912915907411
321.41478357462;89.190911234093
321.436407379415;88.5781574739766
321.458031184209;88.0752081919633
321.479654989003;87.6391412144966
321.501278793797;87.2654152115724
321.522902598592;86.9905303575793
321.544526403386;86.8467038754371
321.56615020818;86.8183722136189
321.587774012974;86.8829303292921
321.609397817769;87.0301643920216
321.631021622563;87.2445197890872
321.652645427357;87.4846861977693
321.674269232151;87.7301431846964
321.695893036946;87.9785876546102
321.71751684174;88.2350318748083
321.739140646534;88.4894881529321
321.760764451328;88.7037401773871
321.782388256123;88.8547073428062
321.804012060917;88.9443162510931
321.825635865711;88.9874317455539
321.847259670505;88.9830622693474
321.8688834753;88.9176112003046
321.890507280094;88.7812860610617
321.912131084888;88.5791571784775
321.933754889682;88.3168604804075
321.955378694477;87.9926898772397
321.977002499271;87.5854874664959
321.998626304065;87.0614908485503
322.020250108859;86.4284730975258
322.041873913653;85.7477366800888
322.063497718448;85.0337761422112
322.085121523242;84.2733415842605
322.106745328036;83.4589988049074
322.12836913283;82.5777378699462
322.149992937625;81.6079646687178
322.171616742419;80.654094120796
322.193240547213;79.832011861483
322.214864352007;79.1151565422512
322.236488156802;78.511236400538
322.258111961596;78.0058630416373
322.27973576639;77.5798040321167
322.301359571184;77.2349440362166
322.322983375979;77.0026054004737
322.344607180773;76.9060458898122
322.366230985567;76.9460226806492
322.387854790361;77.0965544974034
322.409478595156;77.3488074468613
322.43110239995;77.6720437906544
322.452726204744;78.0221628701677
322.474350009538;78.3993764603964
322.495973814333;78.8160749379945
322.517597619127;79.2402708123083
322.539221423921;79.5832523538287
322.560845228715;79.8186528193047
322.58246903351;79.9609910305918
322.604092838304;80.0257888858493
322.625716643098;80.0145031431431
322.647340447892;79.9373597612386
322.668964252687;79.8045745957647
322.690588057481;79.64566634795
322.712211862275;79.488844098484
322.733835667069;79.3520575374459
322.755459471864;79.2481923290453
322.777083276658;79.2039050303052
322.798707081452;79.2301857306305
322.820330886246;79.330998112904
322.841954691041;79.5080751614177
322.863578495835;79.7558213151327
322.885202300629;80.0621883635284
322.906826105423;80.4321431352442
322.928449910218;80.8486714288051
322.950073715012;81.2657750631151
322.971697519806;81.6535831588877
322.9933213246;82.0048039292502
323.014945129395;82.3069153392678
323.036568934189;82.5593487057421
323.058192738983;82.7609517547042
323.079816543777;82.9005190714622
323.101440348571;82.9564724238249
323.123064153366;82.9547964150501
323.14468795816;82.9194101618172
323.166311762954;82.8657127924831
323.187935567748;82.8040075101769
323.209559372543;82.7445226953109
323.231183177337;82.7052580638757
323.252806982131;82.697919842647
323.274430786925;82.7330192290674
323.29605459172;82.8136424298202
323.317678396514;82.919583342075
323.339302201308;83.0420175378457
323.360926006102;83.1827669549714
323.382549810897;83.3359472000303
323.404173615691;83.4827758063798
323.425797420485;83.6068849928803
323.447421225279;83.7079418222234
323.469045030074;83.7866929890212
323.490668834868;83.8410295275374
323.512292639662;83.8757277873475
323.533916444456;83.9008474874408
323.555540249251;83.9289796043088
323.577164054045;83.9680193908813
323.598787858839;84.0416711411726
323.620411663633;84.1638089386625
323.642035468428;84.3381830139108
323.663659273222;84.5502642199994
323.685283078016;84.7817505486794
323.70690688281;85.0220038191217
323.728530687605;85.2699161780241
323.750154492399;85.5161290959269
323.771778297193;85.7514159105692
323.793402101987;85.9720381197181
323.815025906782;86.1720211747263
323.836649711576;86.3324153956068
323.85827351637;86.4444278716373
323.879897321164;86.4932007632966
323.901521125959;86.4687194795108
323.923144930753;86.3569533454243
323.944768735547;86.1526005455499
323.966392540341;85.8495758781437
323.988016345136;85.4675696549441
324.00964014993;85.016135873353
324.031263954724;84.45635604405
324.052887759518;83.754185169828
324.074511564313;82.9694123217786
324.096135369107;82.1970784184756
324.117759173901;81.4092705921223
324.139382978695;80.5564766030316
324.16100678349;79.7012175282169
324.182630588284;78.9343278881857
324.204254393078;78.2254517877261
324.225878197872;77.5423114835873
324.247502002667;76.8948109094713
324.269125807461;76.3279405877892
324.290749612255;75.8660692004906
324.312373417049;75.4983652128402
324.333997221844;75.2581014413733
324.355621026638;75.1551472892227
324.377244831432;75.1701485813311
324.398868636226;75.2897854172219
324.42049244102;75.497386055101
324.442116245815;75.7671876148895
324.463740050609;76.0935414296548
324.485363855403;76.4630476575053
324.506987660197;76.8409777790377
324.528611464992;77.1770308738255
324.550235269786;77.4561116328473
324.57185907458;77.6744679351422
324.593482879374;77.8436071663605
324.615106684169;77.9704877404901
324.636730488963;78.0426381651536
324.658354293757;78.0437639087234
324.679978098551;77.9751996792885
324.701601903346;77.8488322192305
324.72322570814;77.6725603427305
324.744849512934;77.4706734198763
324.766473317728;77.2595311039161
324.788097122523;77.0525245130426
