Name;ESR_BC_1_359s_Y_gon_100dg_4

Recipe
Accumulations;5;Number of accumulations
RetryCount;0;Number of retries on error
AbortOnError;True;Abort on error
EnableQFactorMeasurement;False;Enable/Disable q-Factor measurement
Bfrom;313;B from
Bto;363;B to
SweepTime;60;Sweep time
Modulation;0.2;Modulation
ModulationFreq;100;Modulation
BHoldEnabled;False;B hold enabled
BHold;0;B hold
MicrowavePower;2;Microwave power
MarkerEnabled;False;
MarkerStartField;0;
MarkerEndField;0;
Mode;;
KineticGFact;0;
KineticTotalTransientTime;0;
KineticTimeResolution;0;
TempFrom;5;
TempUseSlope;False;
TempTo;5;
TempdT;1;
TempSetupTime;0;
GonFrom;0;
GonTo;180;
GonSteps;20;
XRayEnabled;False;
XRayTime;3;
XRayVoltage;40;
XRayCurrent;0.5;
UVEnabled;False;
UVIntensity;0;
UVTime;0;
UVLeadTime;0;
UVWavelength;0;
PowSweepFrom;1;
PowSweepTo;5;
PowSweepSteps;5;
AmpModSweepFrom;0;
AmpModSweepTo;1;
AmpModSweepSteps;10;
ExtTriggerEnabled;False;
ExtTrigLeadTime;0;
ExtTrigOnTime;5;

Meas
BField [mT];MW_Absorption []
313.025792160034;176.157151204147
313.04741204507;175.956144398661
313.069031930106;175.661559719772
313.090651815142;175.236019405211
313.112271700178;174.594259885678
313.133891585214;173.816977667615
313.15551147025;173.021097684236
313.177131355286;172.253873185147
313.198751240322;171.527122057714
313.220371125358;170.832421919999
313.241991010393;170.196242602879
313.263610895429;169.67732206038
313.285230780465;169.281762080066
313.306850665501;168.982636796094
313.328470550537;168.761731490359
313.350090435573;168.623250331846
313.371710320609;168.572956705382
313.393330205645;168.595170246136
313.414950090681;168.665251108724
313.436569975717;168.766295702944
313.458189860753;168.892339603339
313.479809745789;169.037756926212
313.501429630825;169.195058929448
313.52304951586;169.366536071599
313.544669400896;169.565794491571
313.566289285932;169.800122452871
313.587909170968;170.055439410054
313.609529056004;170.324551599285
313.63114894104;170.629599275418
313.652768826076;170.981050593101
313.674388711112;171.362239031745
313.696008596148;171.722231861699
313.717628481184;172.059215532449
313.73924836622;172.350842491425
313.760868251256;172.585102839348
313.782488136292;172.761732764651
313.804108021327;172.864151602889
313.825727906363;172.868667603594
313.847347791399;172.792154591191
313.868967676435;172.662200118729
313.890587561471;172.491616316488
313.912207446507;172.291260798264
313.933827331543;172.079930781267
313.955447216579;171.876409973999
313.977067101615;171.718491820992
313.998686986651;171.653986901197
314.020306871687;171.693406726187
314.041926756723;171.824574033657
314.063546641759;172.051178455221
314.085166526794;172.395629236406
314.10678641183;172.862924647834
314.128406296866;173.397128944983
314.150026181902;173.957132068514
314.171646066938;174.568829295026
314.193265951974;175.266798841506
314.21488583701;176.010863387932
314.236505722046;176.70860808541
314.258125607082;177.299777792404
314.279745492118;177.811781967129
314.301365377154;178.265025745066
314.32298526219;178.633350623998
314.344605147226;178.89104038203
314.366225032261;179.057781138862
314.387844917297;179.148183949745
314.409464802333;179.173613434539
314.431084687369;179.139410517877
314.452704572405;179.027986424051
314.474324457441;178.842910012436
314.495944342477;178.626268176715
314.517564227513;178.389992250749
314.539184112549;178.1068507226
314.560803997585;177.761766266714
314.582423882621;177.380042439484
314.604043767657;176.989805513491
314.625663652693;176.561951619193
314.647283537728;176.10182031586
314.668903422764;175.65757825036
314.6905233078;175.256710949623
314.712143192836;174.890450746465
314.733763077872;174.553014037869
314.755382962908;174.25602345885
314.777002847944;174.018458286807
314.79862273298;173.845442424
314.820242618016;173.741279228847
314.841862503052;173.688394959407
314.863482388088;173.672578888361
314.885102273124;173.677369955699
314.90672215816;173.694338760904
314.928342043195;173.708709011242
314.949961928231;173.703375054464
314.971581813267;173.676351438203
314.993201698303;173.619881651064
315.014821583339;173.515793518201
315.036441468375;173.353776276543
315.058061353411;173.187153551403
315.079681238447;173.023032485618
315.101301123483;172.852241961551
315.122921008519;172.671407878415
315.144540893555;172.495730781315
315.166160778591;172.348832800239
315.187780663627;172.245205008986
315.209400548662;172.192066424662
315.231020433698;172.194688907314
315.252640318734;172.266442361785
315.27426020377;172.433618899792
315.295880088806;172.715488932783
315.317499973842;173.1024685712
315.339119858878;173.573334565876
315.360739743914;174.105500705044
315.38235962895;174.655848754322
315.403979513986;175.198655329009
315.425599399022;175.72248930934
315.447219284058;176.201883128516
315.468839169094;176.599195203874
315.490459054129;176.895825473868
315.512078939165;177.071530076424
315.533698824201;177.076904018972
315.555318709237;176.972340274519
315.576938594273;176.794097126336
315.598558479309;176.564523438196
315.620178364345;176.304266640345
315.641798249381;176.031402789902
315.663418134417;175.760300880714
315.685038019453;175.503588266747
315.706657904489;175.260189390251
315.728277789525;175.029095415978
315.749897674561;174.815320329951
315.771517559596;174.62499836688
315.793137444632;174.466945664695
315.814757329668;174.338233077475
315.836377214704;174.239392610239
315.85799709974;174.166976266904
315.879616984776;174.126176136298
315.901236869812;174.11992372355
315.922856754848;174.161199764475
315.944476639884;174.280547466407
315.96609652492;174.482742506321
315.987716409956;174.742291947937
316.009336294992;175.050394843395
316.030956180028;175.433916652446
316.052576065063;175.916107718932
316.074195950099;176.462022118704
316.095815835135;177.020439078445
316.117435720171;177.610076812862
316.139055605207;178.2166207247
316.160675490243;178.765453758963
316.182295375279;179.247698110495
316.203915260315;179.671652425605
316.225535145351;180.008778129458
316.247155030387;180.215344205284
316.268774915423;180.311223694538
316.290394800459;180.323200184154
316.312014685495;180.263091711172
316.33363457053;180.1366623696
316.355254455566;179.94603020647
316.376874340602;179.718877993617
316.398494225638;179.473520807656
316.420114110674;179.2064801927
316.44173399571;178.920662380808
316.463353880746;178.623670449391
316.484973765782;178.314387190527
316.506593650818;177.976803039244
316.528213535854;177.566512861996
316.54983342089;177.043577583564
316.571453305926;176.465385544827
316.593073190962;175.881796603335
316.614693075997;175.273479439306
316.636312961033;174.63762757985
316.657932846069;173.999704527215
316.679552731105;173.364483837902
316.701172616141;172.696811425954
316.722792501177;171.962168676633
316.744412386213;171.232845991598
316.766032271249;170.572033573001
316.787652156285;169.933642200237
316.809272041321;169.267378518719
316.830891926357;168.558182849497
316.852511811393;167.839258407318
316.874131696429;167.16690625558
316.895751581465;166.576557778243
316.9173714665;166.074542912984
316.938991351536;165.641080013121
316.960611236572;165.255545924778
316.982231121608;164.918914454321
317.003851006644;164.659569593551
317.02547089168;164.478051860732
317.047090776716;164.338528219828
317.068710661752;164.21500269658
317.090330546788;164.08605520818
317.111950431824;163.934503788579
317.13357031686;163.731099353868
317.155190201896;163.44046358846
317.176810086932;163.06745998777
317.198429971967;162.676247763305
317.220049857003;162.269000439831
317.241669742039;161.813517489383
317.263289627075;161.343326643864
317.284909512111;160.889821351636
317.306529397147;160.48607931093
317.328149282183;160.122938687114
317.349769167219;159.776765987955
317.371389052255;159.426706628458
317.393008937291;159.119606490522
317.414628822327;158.909400552206
317.436248707363;158.758556201439
317.457868592399;158.642542146232
317.479488477434;158.54508851189
317.50110836247;158.447850275201
317.522728247506;158.332267215302
317.544348132542;158.192099535384
317.565968017578;158.020124312748
317.587587902614;157.800582266879
317.60920778765;157.511202984448
317.630827672686;157.140140903124
317.652447557722;156.67977176468
317.674067442758;156.097395981431
317.695687327794;155.359684497608
317.71730721283;154.471919266691
317.738927097866;153.483628130841
317.760546982901;152.410194207559
317.782166867937;151.268616368185
317.803786752973;150.058160013663
317.825406638009;148.80387171108
317.847026523045;147.688799554289
317.868646408081;146.767929982796
317.890266293117;145.950896081722
317.911886178153;145.176906855831
317.933506063189;144.410644470967
317.955125948225;143.672663515419
317.976745833261;143.062474807441
317.998365718297;142.624351392645
318.019985603333;142.315593587026
318.041605488368;142.082473189564
318.063225373404;141.895951275624
318.08484525844;141.73869153366
318.106465143476;141.588428397072
318.128085028512;141.396112864898
318.149704913548;141.121022712087
318.171324798584;140.783494127291
318.19294468362;140.406582407593
318.214564568656;139.9803765867
318.236184453692;139.449922294196
318.257804338728;138.756552706191
318.279424223764;137.974137766991
318.3010441088;137.238429731629
318.322663993835;136.566416908887
318.344283878871;135.944742595916
318.365903763907;135.373379033258
318.387523648943;134.844261469933
318.409143533979;134.344815048387
318.430763419015;133.861947379143
318.452383304051;133.380431284603
318.474003189087;132.892847207879
318.495623074123;132.407467164376
318.517242959159;131.921811835652
318.538862844195;131.411965934913
318.560482729231;130.897049252053
318.582102614267;130.397626415189
318.603722499302;129.876269027451
318.625342384338;129.28979343087
318.646962269374;128.592687779944
318.66858215441;127.800950523122
318.690202039446;126.994121144059
318.711821924482;126.17243853112
318.733441809518;125.288722196081
318.755061694554;124.326051857748
318.77668157959;123.309180260698
318.798301464626;122.278009066718
318.819921349662;121.252910592643
318.841541234698;120.233720962013
318.863161119734;119.228315753152
318.884781004769;118.258787991802
318.906400889805;117.340718665172
318.928020774841;116.454375789436
318.949640659877;115.565633318975
318.971260544913;114.719099239946
318.992880429949;114.025981428847
319.014500314985;113.485215375807
319.036120200021;113.036337164645
319.057740085057;112.654685357699
319.079359970093;112.337770177793
319.100979855129;112.082082309796
319.122599740165;111.876911092704
319.144219625201;111.721323406307
319.165839510236;111.595727012922
319.187459395272;111.479726794314
319.209079280308;111.360374693104
319.230699165344;111.22359688983
319.25231905038;111.057439795269
319.273938935416;110.862778195739
319.295558820452;110.64488717883
319.317178705488;110.418679183178
319.338798590524;110.194997078904
319.36041847556;109.971838889999
319.382038360596;109.760216457308
319.403658245632;109.568882657438
319.425278130668;109.376399495553
319.446898015703;109.166302611915
319.468517900739;108.938084928364
319.490137785775;108.684985981666
319.511757670811;108.382808235527
319.533377555847;107.997774830825
319.554997440883;107.501303094104
319.576617325919;106.902874881692
319.598237210955;106.232199899635
319.619857095991;105.491665684637
319.641476981027;104.68577669638
319.663096866063;103.823391172415
319.684716751099;102.927286972441
319.706336636135;102.001823163372
319.72795652117;101.015731942201
319.749576406206;99.9809171067751
319.771196291242;98.9890381463378
319.792816176278;98.1273879970558
319.814436061314;97.3664301892864
319.83605594635;96.6404608365904
319.857675831386;95.9211226882633
319.879295716422;95.2236128921349
319.900915601458;94.6080596791671
319.922535486494;94.0662668025593
319.94415537153;93.5415819946584
319.965775256566;93.0167225837924
319.987395141602;92.5115672861136
320.009015026637;92.0526419542568
320.030634911673;91.6577354057214
320.052254796709;91.3575273296042
320.073874681745;91.1420149156024
320.095494566781;90.9894321543165
320.117114451817;90.8784356455932
320.138734336853;90.7919288518607
320.160354221889;90.7214058884915
320.181974106925;90.6550759638817
320.203593991961;90.5727943412597
320.225213876997;90.4524260040738
320.246833762033;90.2839133950757
320.268453647069;90.0890820488952
320.290073532104;89.8623289545919
320.31169341714;89.5835622163437
320.333313302176;89.277332124188
320.354933187212;88.9858101545482
320.376553072248;88.724742459048
320.398172957284;88.4897908985214
320.41979284232;88.293849980481
320.441412727356;88.2023370216546
320.463032612392;88.2287123634704
320.484652497428;88.3537300959328
320.506272382464;88.5567460908398
320.5278922675;88.8269666205987
320.549512152536;89.1643799916844
320.571132037571;89.5628194287672
320.592751922607;89.9911171816493
320.614371807643;90.4087344837544
320.635991692679;90.8003753080928
320.657611577715;91.1458791060393
320.679231462751;91.446220559074
320.700851347787;91.6687545281759
320.722471232823;91.7931764784463
320.744091117859;91.8374552192914
320.765711002895;91.8240484203079
320.787330887931;91.763206332262
320.808950772967;91.6543074235928
320.830570658003;91.4991784489121
320.852190543039;91.3079903837693
320.873810428074;91.1007491835659
320.89543031311;90.8973616392628
320.917050198146;90.6968083805963
320.938670083182;90.4983497654808
320.960289968218;90.3066364149245
320.981909853254;90.1193558871902
321.00352973829;89.9233438232058
321.025149623326;89.7150708958377
321.046769508362;89.5072805745298
321.068389393398;89.3063193668867
321.090009278434;89.1194652538516
321.11162916347;88.9514241792457
321.133249048506;88.8001491018776
321.154868933541;88.6665309422349
321.176488818577;88.5575405767579
321.198108703613;88.4743892306921
321.219728588649;88.4169525729703
321.241348473685;88.3876125334195
321.262968358721;88.3763188672434
321.284588243757;88.3703275137139
321.306208128793;88.357736712685
321.327828013829;88.3288775012238
321.349447898865;88.2779511238572
321.371067783901;88.2063676879612
321.392687668937;88.1295346658909
321.414307553973;88.0630485424778
321.435927439008;88.0123443112941
321.457547324044;87.9796255931522
321.47916720908;87.9834192487866
321.500787094116;88.0475003195174
321.522406979152;88.1705867398956
321.544026864188;88.3468927996436
321.565646749224;88.5679670625979
321.58726663426;88.820552577153
321.608886519296;89.1001325241199
321.630506404332;89.4123938157206
321.652126289368;89.7433003667001
321.673746174404;90.0258009588719
321.69536605944;90.2207021061998
321.716985944475;90.3458384154766
321.738605829511;90.4044472229421
321.760225714547;90.4002951001529
321.781845599583;90.3435648929204
321.803465484619;90.2335453337749
321.825085369655;90.0609889153963
321.846705254691;89.8298958709301
321.868325139727;89.5838973199798
321.889945024763;89.3441987533356
321.911564909799;89.1023273499982
321.933184794835;88.8495231533868
321.954804679871;88.5731117263251
321.976424564907;88.2670060613996
321.998044449942;87.9284667525224
322.019664334978;87.5657246175311
322.041284220014;87.1718186613985
322.06290410505;86.7203671591748
322.084523990086;86.1745252926885
322.106143875122;85.5529602821503
322.127763760158;84.9039602581039
322.149383645194;84.2122399212112
322.17100353023;83.4677184042598
322.192623415266;82.6871455492224
322.214243300302;81.903660176029
322.235863185338;81.1549299058222
322.257483070374;80.4577505850835
322.279102955409;79.8236631242526
322.300722840445;79.2741058961821
322.322342725481;78.8145755285784
322.343962610517;78.4379867023968
322.365582495553;78.1658663345978
322.387202380589;78.0308128220368
322.408822265625;78.0320792871846
322.430442150661;78.1618671061782
322.452062035697;78.393032463164
322.473681920733;78.6935428881044
322.495301805769;79.0416684112045
322.516921690805;79.4201769990843
322.538541575841;79.8131507134849
322.560161460876;80.2001683754343
322.581781345912;80.5633835410149
322.603401230948;80.8892568916026
322.625021115984;81.1553577243035
322.64664100102;81.3451297684882
322.668260886056;81.4590113519608
322.689880771092;81.4980655654855
322.711500656128;81.4654090821409
322.733120541164;81.3806730054924
322.7547404262;81.2644163209438
322.776360311236;81.123689461907
322.797980196272;80.9598995265426
322.819600081308;80.7864055873462
322.841219966343;80.6321997488906
322.862839851379;80.5229814554305
322.884459736415;80.4663266320743
322.906079621451;80.463774482743
322.927699506487;80.5202376129925
322.949319391523;80.6398732898229
322.970939276559;80.8208705242924
322.992559161595;81.0590006437285
323.014179046631;81.3498115470928
323.035798931667;81.6866128788412
323.057418816703;82.0641971735216
323.079038701739;82.4739438538626
323.100658586775;82.8937011597504
323.12227847181;83.2966044411121
323.143898356846;83.6711729408489
323.165518241882;84.0142427064435
323.187138126918;84.3209032602383
323.208758011954;84.5882123658645
323.23037789699;84.8132984204548
323.251997782026;84.9985959381897
323.273617667062;85.1508229885271
323.295237552098;85.2770080934016
323.316857437134;85.3800746290494
323.33847732217;85.4609515080823
323.360097207206;85.5265132949584
323.381717092242;85.5855279040895
323.403336977277;85.6471160193922
323.424956862313;85.7169831751342
323.446576747349;85.7994744150409
323.468196632385;85.8940199062218
323.489816517421;85.989832699067
323.511436402457;86.0747424920041
323.533056287493;86.1445023021924
323.554676172529;86.1960801119418
323.576296057565;86.2185605374261
323.597915942601;86.1975573808389
323.619535827637;86.1217499612003
323.641155712673;85.9877162782644
323.662775597709;85.7967568562731
323.684395482744;85.5573311514653
323.70601536778;85.285962545747
323.727635252816;84.9780118986166
323.749255137852;84.6194218069631
323.770875022888;84.2101050474596
323.792494907924;83.7646146946906
323.81411479296;83.3246615511514
323.835734677996;82.9095807140788
323.857354563032;82.5030634925884
323.878974448068;82.0918976832136
323.900594333104;81.6726656588818
323.92221421814;81.2529286627914
323.943834103176;80.8578129367708
323.965453988211;80.5180696059164
323.987073873247;80.2257531422417
324.008693758283;79.9713775302527
324.030313643319;79.752973699244
324.051933528355;79.5734311755233
324.073553413391;79.4300302256258
324.095173298427;79.314762851858
324.116793183463;79.2288673817494
324.138413068499;79.1713686624563
324.160032953535;79.1317565038971
324.181652838571;79.0951733809759
324.203272723607;79.053801927099
324.224892608643;79.000744150235
324.246512493678;78.9316623682388
324.268132378714;78.8513724789096
324.28975226375;78.761889232596
324.311372148786;78.6626213118529
324.332992033822;78.5567729961971
324.354611918858;78.4421164788279
324.376231803894;78.3265889418906
324.39785168893;78.2130433446586
324.419471573966;78.107132887031
324.441091459002;78.0123287036236
324.462711344038;77.925546134548
324.484331229074;77.8414745001406
324.50595111411;77.7529966691993
324.527570999146;77.6526481385392
324.549190884181;77.5388935021843
324.570810769217;77.4025116445987
324.592430654253;77.2318660664075
324.614050539289;77.0170377094896
324.635670424325;76.7600453790182
324.657290309361;76.4881052842661
324.678910194397;76.2086740099572
324.700530079433;75.9161622138669
324.722149964469;75.6076073065004
324.743769849505;75.2929325307738
324.765389734541;75.003720301203
324.787009619577;74.7623611353296
