Name;ESR_BC_1_359s_Y_gon_100dg_1

Recipe
Accumulations;5;Number of accumulations
RetryCount;0;Number of retries on error
AbortOnError;True;Abort on error
EnableQFactorMeasurement;False;Enable/Disable q-Factor measurement
Bfrom;313;B from
Bto;363;B to
SweepTime;60;Sweep time
Modulation;0.2;Modulation
ModulationFreq;100;Modulation
BHoldEnabled;False;B hold enabled
BHold;0;B hold
MicrowavePower;2;Microwave power
MarkerEnabled;False;
MarkerStartField;0;
MarkerEndField;0;
Mode;;
KineticGFact;0;
KineticTotalTransientTime;0;
KineticTimeResolution;0;
TempFrom;5;
TempUseSlope;False;
TempTo;5;
TempdT;1;
TempSetupTime;0;
GonFrom;0;
GonTo;180;
GonSteps;20;
XRayEnabled;False;
XRayTime;3;
XRayVoltage;40;
XRayCurrent;0.5;
UVEnabled;False;
UVIntensity;0;
UVTime;0;
UVLeadTime;0;
UVWavelength;0;
PowSweepFrom;1;
PowSweepTo;5;
PowSweepSteps;5;
AmpModSweepFrom;0;
AmpModSweepTo;1;
AmpModSweepSteps;10;
ExtTriggerEnabled;False;
ExtTrigLeadTime;0;
ExtTrigOnTime;5;

Meas
BField [mT];MW_Absorption []
313.028781814575;176.324551807409
313.050407587291;176.086525994824
313.072033360007;175.829594689328
313.093659132722;175.530166043589
313.115284905438;175.188831097216
313.136910678153;174.823806265392
313.158536450869;174.426459441422
313.180162223585;173.975763448591
313.2017879963;173.483403763058
313.223413769016;172.986448964288
313.245039541732;172.488261242836
313.266665314447;171.996927706725
313.288291087163;171.508917215556
313.309916859879;171.000345829012
313.331542632594;170.467469448266
313.35316840531;169.944601406465
313.374794178026;169.462871160843
313.396419950741;169.027357113445
313.418045723457;168.66092817274
313.439671496172;168.402109793729
313.461297268888;168.271934533535
313.482923041604;168.282211280054
313.504548814319;168.433306881886
313.526174587035;168.727208866741
313.547800359751;169.185265681879
313.569426132466;169.787703535674
313.591051905182;170.451204166841
313.612677677898;171.108070854691
313.634303450613;171.731785675162
313.655929223329;172.300359938321
313.677554996045;172.79647896903
313.69918076876;173.19225760437
313.720806541476;173.430339380319
313.742432314192;173.480152260836
313.764058086907;173.359612201313
313.785683859623;173.112838329711
313.807309632339;172.757433990912
313.828935405054;172.3076560967
313.85056117777;171.822407213476
313.872186950485;171.356031088648
313.893812723201;170.918516057148
313.915438495917;170.512278784608
313.937064268632;170.149886588244
313.958690041348;169.838338201636
313.980315814064;169.57671821126
314.001941586779;169.35828591161
314.023567359495;169.184718015131
314.045193132211;169.051379217813
314.066818904926;168.946958983355
314.088444677642;168.86256967112
314.110070450358;168.796065222925
314.131696223073;168.750615787761
314.153321995789;168.728180039149
314.174947768505;168.734999932424
314.19657354122;168.770037000347
314.218199313936;168.836521219236
314.239825086651;168.943442060414
314.261450859367;169.096712625323
314.283076632083;169.278137736515
314.304702404798;169.489701929716
314.326328177514;169.753344537533
314.34795395023;170.110285133378
314.369579722945;170.58670688002
314.391205495661;171.169391003659
314.412831268377;171.851164733009
314.434457041092;172.616989087189
314.456082813808;173.354926274484
314.477708586524;174.025458188313
314.499334359239;174.682665785701
314.520960131955;175.302270195509
314.54258590467;175.822931826654
314.564211677386;176.252527623151
314.585837450102;176.610876928939
314.607463222817;176.876015320781
314.629088995533;176.994054099928
314.650714768249;176.958938693566
314.672340540964;176.796566057639
314.69396631368;176.5146770214
314.715592086396;176.121438985105
314.737217859111;175.653918266606
314.758843631827;175.160681142467
314.780469404543;174.657778783036
314.802095177258;174.137818273438
314.823720949974;173.592931181889
314.84534672269;173.0368420193
314.866972495405;172.530931532442
314.888598268121;172.091371894828
314.910224040837;171.710068287514
314.931849813552;171.38760606419
314.953475586268;171.127457569644
314.975101358983;170.938362913092
314.996727131699;170.836140070181
315.018352904415;170.843636302134
315.03997867713;170.963475325624
315.061604449846;171.1786020725
315.083230222562;171.473857043723
315.104855995277;171.843930648022
315.126481767993;172.273130658733
315.148107540709;172.745887590592
315.169733313424;173.26394145549
315.19135908614;173.81858101537
315.212984858856;174.350913752727
315.234610631571;174.822838438815
315.256236404287;175.241248144317
315.277862177002;175.618619393509
315.299487949718;175.960383012669
315.321113722434;176.263424237324
315.342739495149;176.514981484873
315.364365267865;176.703655075121
315.385991040581;176.821949180155
315.407616813296;176.883630026318
315.429242586012;176.91082356726
315.450868358728;176.925025855735
315.472494131443;176.944731702882
315.494119904159;176.981809586742
315.515745676875;177.027967913347
315.53737144959;177.087483537759
315.558997222306;177.152460468018
315.580622995022;177.21383608413
315.602248767737;177.25345704103
315.623874540453;177.255183649559
315.645500313169;177.209453832647
315.667126085884;177.108206529003
315.6887518586;176.944939342264
315.710377631315;176.713748363841
315.732003404031;176.404265174028
315.753629176747;176.031095869895
315.775254949462;175.645574655924
315.796880722178;175.269464759565
315.818506494894;174.912952678286
315.840132267609;174.608753367791
315.861758040325;174.387530082424
315.883383813041;174.268867693062
315.905009585756;174.259654051622
315.926635358472;174.346774180087
315.948261131188;174.523238571113
315.969886903903;174.775051365711
315.991512676619;175.090203889675
316.013138449335;175.443825397665
316.03476422205;175.818711772226
316.056389994766;176.19957316621
316.078015767481;176.553001676659
316.099641540197;176.843234446716
316.121267312913;177.056268357522
316.142893085628;177.198027311202
316.164518858344;177.277888240252
316.18614463106;177.296055737858
316.207770403775;177.255818024478
316.229396176491;177.177463347854
316.251021949207;177.073316848798
316.272647721922;176.954097300239
316.294273494638;176.827179720063
316.315899267354;176.701343093643
316.337525040069;176.583904487658
316.359150812785;176.474882281865
316.3807765855;176.377319562977
316.402402358216;176.278192889676
316.424028130932;176.157735126947
316.445653903647;176.001524316503
316.467279676363;175.818576431373
316.488905449079;175.605299992593
316.510531221794;175.348104790521
316.53215699451;175.05544945784
316.553782767226;174.744995537597
316.575408539941;174.414354162699
316.597034312657;174.046610717305
316.618660085373;173.66565559157
316.640285858088;173.317598723202
316.661911630804;173.013682139933
316.68353740352;172.740463452271
316.705163176235;172.487843788871
316.726788948951;172.247846321733
316.748414721667;172.011369121848
316.770040494382;171.760411663503
316.791666267098;171.463662489958
316.813292039813;171.115329662112
316.834917812529;170.764976942194
316.856543585245;170.419735381632
316.87816935796;170.039599708262
316.899795130676;169.596005666199
316.921420903392;169.108030122208
316.943046676107;168.620849131669
316.964672448823;168.138851259258
316.986298221539;167.649463381333
317.007923994254;167.145120352918
317.02954976697;166.634890098008
317.051175539686;166.14766269685
317.072801312401;165.727915799573
317.094427085117;165.357565880077
317.116052857832;165.000090287679
317.137678630548;164.634973649882
317.159304403264;164.282099616705
317.180930175979;163.966615132264
317.202555948695;163.698686099078
317.224181721411;163.462617846824
317.245807494126;163.239893466957
317.267433266842;163.024846436425
317.289059039558;162.818131977459
317.310684812273;162.598865366826
317.332310584989;162.347044578581
317.353936357705;162.062326703402
317.37556213042;161.776701752396
317.397187903136;161.484843347284
317.418813675852;161.153327457368
317.440439448567;160.785909094819
317.462065221283;160.415311730453
317.483690993998;160.040419345008
317.505316766714;159.629079267266
317.52694253943;159.152394092503
317.548568312145;158.597500172849
317.570194084861;158.042145399982
317.591819857577;157.545870138077
317.613445630292;157.083143298068
317.635071403008;156.599694888944
317.656697175724;156.060053209016
317.678322948439;155.497335420633
317.699948721155;154.997905534444
317.721574493871;154.557178764284
317.743200266586;154.12846294136
317.764826039302;153.688483348042
317.786451812018;153.252900073292
317.808077584733;152.84254881744
317.829703357449;152.440124806533
317.851329130164;152.014833135216
317.87295490288;151.546875855419
317.894580675596;151.049820871487
317.916206448311;150.528330314352
317.937832221027;149.955347202827
317.959457993743;149.311717022409
317.981083766458;148.634036589509
318.002709539174;147.959276976154
318.02433531189;147.262243577345
318.045961084605;146.487492841005
318.067586857321;145.59564631567
318.089212630037;144.646777222266
318.110838402752;143.718107391698
318.132464175468;142.825035906651
318.154089948184;141.923777318692
318.175715720899;141.030951924227
318.197341493615;140.227042798242
318.21896726633;139.491165476237
318.240593039046;138.774876523884
318.262218811762;138.049275892212
318.283844584477;137.341681678696
318.305470357193;136.729227713143
318.327096129909;136.224050629425
318.348721902624;135.784687517776
318.37034767534;135.380478462418
318.391973448056;134.994622286883
318.413599220771;134.612630279137
318.435224993487;134.214360914394
318.456850766203;133.771041585841
318.478476538918;133.268889406575
318.500102311634;132.712603242704
318.52172808435;132.095303804285
318.543353857065;131.39146229151
318.564979629781;130.573819482079
318.586605402497;129.648688138096
318.608231175212;128.682906318469
318.629856947928;127.731147993871
318.651482720643;126.788333552425
318.673108493359;125.848140132912
318.694734266075;124.930092779378
318.71636003879;124.04048560938
318.737985811506;123.15040601846
318.759611584222;122.223618476564
318.781237356937;121.293352750132
318.802863129653;120.421223457842
318.824488902369;119.624001800171
318.846114675084;118.941897399855
318.8677404478;118.34908270987
318.889366220516;117.773708711629
318.910991993231;117.169665659563
318.932617765947;116.543295123486
318.954243538662;115.921070724371
318.975869311378;115.290586966068
318.997495084094;114.618064264979
319.019120856809;113.928713229842
319.040746629525;113.282138747747
319.062372402241;112.660248161417
319.083998174956;112.050335206622
319.105623947672;111.487701556931
319.127249720388;111.014269454984
319.148875493103;110.62205629306
319.170501265819;110.299133353803
319.192127038535;110.035366893019
319.21375281125;109.804233643657
319.235378583966;109.584545308712
319.257004356682;109.370218570435
319.278630129397;109.171263912359
319.300255902113;108.984251285175
319.321881674828;108.791053254204
319.343507447544;108.575066924892
319.36513322026;108.336965947908
319.386758992975;108.079492278121
319.408384765691;107.79211611984
319.430010538407;107.465489032376
319.451636311122;107.114855960633
319.473262083838;106.744813450247
319.494887856554;106.347831628763
319.516513629269;105.925662008062
319.538139401985;105.47439805384
319.559765174701;104.99298927308
319.581390947416;104.468961005934
319.603016720132;103.867750657542
319.624642492848;103.190276636134
319.646268265563;102.460676452502
319.667894038279;101.663963322455
319.689519810994;100.789147196278
319.71114558371;99.8513493364
319.732771356426;98.8583628502263
319.754397129141;97.8173250711918
319.776022901857;96.751664395142
319.797648674573;95.7177293319479
319.819274447288;94.7451595443062
319.840900220004;93.8265259258047
319.86252599272;92.9287134354356
319.884151765435;92.0897627585685
319.905777538151;91.3803220902846
319.927403310867;90.8412118061387
319.949029083582;90.4805192997268
319.970654856298;90.2660057284521
319.992280629014;90.1539662472535
320.013906401729;90.1294461569138
320.035532174445;90.1903801302515
320.05715794716;90.3154089699007
320.078783719876;90.4681935875121
320.100409492592;90.6308741497144
320.122035265307;90.7794584157612
320.143661038023;90.8821025934963
320.165286810739;90.9274071036092
320.186912583454;90.9067294288471
320.20853835617;90.8107662867658
320.230164128886;90.6398371278702
320.251789901601;90.4049030853925
320.273415674317;90.0967189560272
320.295041447033;89.6966835172549
320.316667219748;89.2220183990169
320.338292992464;88.7061121565118
320.35991876518;88.1650338056179
320.381544537895;87.6066789985701
320.403170310611;87.0553402177004
320.424796083327;86.5365461956215
320.446421856042;86.0509375137623
320.468047628758;85.5869182399204
320.489673401473;85.1435855109094
320.511299174189;84.7295112742641
320.532924946905;84.3558639498742
320.55455071962;84.0218700935122
320.576176492336;83.7191423314838
320.597802265052;83.4444307138945
320.619428037767;83.2086304680716
320.641053810483;83.0331903640979
320.662679583199;82.9301471473159
320.684305355914;82.902562851132
320.70593112863;82.9430909078277
320.727556901346;83.050851587926
320.749182674061;83.2390785096983
320.770808446777;83.5241061258756
320.792434219492;83.9170732647503
320.814059992208;84.4063444982528
320.835685764924;84.9556626574735
320.857311537639;85.5558916387571
320.878937310355;86.2252639622665
320.900563083071;86.9747358249342
320.922188855786;87.7547953839104
320.943814628502;88.4773189846326
320.965440401218;89.1172592520272
320.987066173933;89.6805915995562
321.008691946649;90.1376858084782
321.030317719365;90.4527997135704
321.05194349208;90.6332491217921
321.073569264796;90.6915333396101
321.095195037512;90.6487341593009
321.116820810227;90.5269770131665
321.138446582943;90.3448849171245
321.160072355658;90.1373716426531
321.181698128374;89.9535038087888
321.20332390109;89.8155550674132
321.224949673805;89.7230132385524
321.246575446521;89.6721184705081
321.268201219237;89.6605743738841
321.289826991952;89.6942223941111
321.311452764668;89.7813237888934
321.333078537384;89.894093170758
321.354704310099;90.0009928638701
321.376330082815;90.0791847769824
321.397955855531;90.1219869059671
321.419581628246;90.1297809064569
321.441207400962;90.095757613371
321.462833173678;90.0129768028228
321.484458946393;89.8745931150306
321.506084719109;89.6655892513674
321.527710491824;89.3895653751738
321.54933626454;89.1108506158917
321.570962037256;88.8521909015538
321.592587809971;88.6132828546527
321.614213582687;88.3879096656156
321.635839355403;88.1854466556618
321.657465128118;88.0151854574845
321.679090900834;87.8673104145439
321.70071667355;87.7336436251153
321.722342446265;87.6128345208762
321.743968218981;87.495130019082
321.765593991697;87.3659088888363
321.787219764412;87.2176712433062
321.808845537128;87.0499006717383
321.830471309844;86.8587370521164
321.852097082559;86.6382369509033
321.873722855275;86.390618463064
321.89534862799;86.1406808979074
321.916974400706;85.908013215072
321.938600173422;85.7007181751365
321.960225946137;85.5446805445424
321.981851718853;85.445387221435
322.003477491569;85.384211633786
322.025103264284;85.3532773139597
322.046729037;85.3480797279099
322.068354809716;85.3568762701617
322.089980582431;85.362581946746
322.111606355147;85.3483166476961
322.133232127863;85.2891145405898
322.154857900578;85.1662296223634
322.176483673294;84.9700523093675
322.19810944601;84.6957108482419
322.219735218725;84.3555296988615
322.241360991441;83.9511023134886
322.262986764156;83.4821553949984
322.284612536872;82.9812669042797
322.306238309588;82.4741632725703
322.327864082303;81.9709900076983
322.349489855019;81.5018644140668
322.371115627735;81.0818698293533
322.39274140045;80.6965352440668
322.414367173166;80.3359489942404
322.435992945882;79.9944265728121
322.457618718597;79.6914997312522
322.479244491313;79.4382772051245
322.500870264029;79.2365448499291
322.522496036744;79.1028626991923
322.54412180946;79.0415777344379
322.565747582176;79.0503044120365
322.587373354891;79.1396984367198
322.608999127607;79.3287723595569
322.630624900322;79.6120654719584
322.652250673038;79.9655859961453
322.673876445754;80.3498705652053
322.695502218469;80.7530589646172
322.717127991185;81.1970951566394
322.738753763901;81.6947429972459
322.760379536616;82.2399505529965
322.782005309332;82.8053251074919
322.803631082048;83.3471078358294
322.825256854763;83.8320900928498
322.846882627479;84.2681178330159
322.868508400195;84.6257662851456
322.89013417291;84.9147719874933
322.911759945626;85.162316950834
322.933385718342;85.3811769148677
322.955011491057;85.5740751806121
322.976637263773;85.7340006894167
322.998263036488;85.8378498176801
323.019888809204;85.8882469849847
323.04151458192;85.8874146766029
323.063140354635;85.8369888014932
323.084766127351;85.7288656017184
323.106391900067;85.5489652251975
323.128017672782;85.3019350287982
323.149643445498;85.0119722184692
323.171269218214;84.6798510025301
323.192894990929;84.3169887294725
323.214520763645;83.9404133863292
323.236146536361;83.5648752681374
323.257772309076;83.2119022194147
323.279398081792;82.9108178219762
323.301023854508;82.678027205879
323.322649627223;82.5130297055091
323.344275399939;82.4131930935292
323.365901172654;82.3914478187897
323.38752694537;82.4509040298549
323.409152718086;82.5680636270735
323.430778490801;82.7247089051862
323.452404263517;82.9059157926965
323.474030036233;83.1064661499991
323.495655808948;83.3160505995821
323.517281581664;83.5304588206482
323.53890735438;83.7349845519593
323.560533127095;83.9204286421517
323.582158899811;84.0911490071142
323.603784672527;84.2430421345081
323.625410445242;84.3711828942197
323.647036217958;84.4697700810732
323.668661990674;84.5382000212064
323.690287763389;84.5668106991312
323.711913536105;84.5466629595145
323.73353930882;84.4665652976152
323.755165081536;84.3183396981412
323.776790854252;84.0801964944
323.798416626967;83.7537758235139
323.820042399683;83.3516550941398
323.841668172399;82.8800308505894
323.863293945114;82.354093866242
323.88491971783;81.8086443676208
323.906545490546;81.2583491875594
323.928171263261;80.7221513621417
323.949797035977;80.2059589166808
323.971422808693;79.7583919826144
323.993048581408;79.4105993457291
324.014674354124;79.1425649809429
324.03630012684;78.9412603455278
324.057925899555;78.8178247402365
324.079551672271;78.7722527632558
324.101177444986;78.78199975762
324.122803217702;78.8324045641746
324.144428990418;78.9062761736491
324.166054763133;78.9791279107764
324.187680535849;79.0481124151483
324.209306308565;79.1066076321394
324.23093208128;79.1436210974642
324.252557853996;79.1335593566472
324.274183626712;79.0871728889389
324.295809399427;79.0221209351795
324.317435172143;78.9473130603104
324.339060944859;78.8597492317014
324.360686717574;78.7511610057392
324.38231249029;78.6274018322662
324.403938263006;78.5009998024642
324.425564035721;78.3715520791898
324.447189808437;78.2314959048925
324.468815581152;78.0941350272739
324.490441353868;77.9708039911576
324.512067126584;77.8590889259434
324.533692899299;77.7446766733701
324.555318672015;77.6284807490766
324.576944444731;77.5250983528751
324.598570217446;77.4575845181885
324.620195990162;77.4299143273839
324.641821762878;77.4341128837502
324.663447535593;77.4724650984707
324.685073308309;77.5526480384691
324.706699081025;77.6775688036161
324.72832485374;77.8307039911584
324.749950626456;78.0036235556244
324.771576399172;78.1807347922105
324.793202171887;78.3260816357046
