Name;ESR_BC_1_359s_Y_gon_100dg_3

Recipe
Accumulations;5;Number of accumulations
RetryCount;0;Number of retries on error
AbortOnError;True;Abort on error
EnableQFactorMeasurement;False;Enable/Disable q-Factor measurement
Bfrom;313;B from
Bto;363;B to
SweepTime;60;Sweep time
Modulation;0.2;Modulation
ModulationFreq;100;Modulation
BHoldEnabled;False;B hold enabled
BHold;0;B hold
MicrowavePower;2;Microwave power
MarkerEnabled;False;
MarkerStartField;0;
MarkerEndField;0;
Mode;;
KineticGFact;0;
KineticTotalTransientTime;0;
KineticTimeResolution;0;
TempFrom;5;
TempUseSlope;False;
TempTo;5;
TempdT;1;
TempSetupTime;0;
GonFrom;0;
GonTo;180;
GonSteps;20;
XRayEnabled;False;
XRayTime;3;
XRayVoltage;40;
XRayCurrent;0.5;
UVEnabled;False;
UVIntensity;0;
UVTime;0;
UVLeadTime;0;
UVWavelength;0;
PowSweepFrom;1;
PowSweepTo;5;
PowSweepSteps;5;
AmpModSweepFrom;0;
AmpModSweepTo;1;
AmpModSweepSteps;10;
ExtTriggerEnabled;False;
ExtTrigLeadTime;0;
ExtTrigOnTime;5;

Meas
BField [mT];MW_Absorption []
313.015790328979;179.672825683424
313.037410553982;179.296179789691
313.059030778985;178.794699229189
313.080651003987;178.170058871032
313.10227122899;177.437773144769
313.123891453993;176.63205569326
313.145511678995;175.816790408879
313.167131903998;175.016730783464
313.188752129;174.2133425337
313.210372354003;173.385362844949
313.231992579006;172.5640045643
313.253612804008;171.813031507994
313.275233029011;171.175074813813
313.296853254014;170.662441046094
313.318473479016;170.269255910549
313.340093704019;169.992549525458
313.361713929022;169.825356736617
313.383334154024;169.763815775336
313.404954379027;169.809191104708
313.426574604029;169.933524840189
313.448194829032;170.105901953656
313.469815054035;170.310924446285
313.491435279037;170.529124456237
313.51305550404;170.738107962991
313.534675729043;170.927056541932
313.556295954045;171.093527990868
313.577916179048;171.247661420824
313.59953640405;171.394190964631
313.621156629053;171.52855108423
313.642776854056;171.650197982006
313.664397079058;171.770207987955
313.686017304061;171.905444349068
313.707637529064;172.071262580455
313.729257754066;172.265955699098
313.750877979069;172.496715546146
313.772498204072;172.771589677378
313.794118429074;173.115165066265
313.815738654077;173.551645032379
313.837358879079;174.095225509788
313.858979104082;174.690151587233
313.880599329085;175.289788675273
313.902219554087;175.909041387053
313.92383977909;176.567325940755
313.945460004093;177.232330839691
313.967080229095;177.863786330182
313.988700454098;178.448622449556
314.0103206791;178.953627180746
314.031940904103;179.33206963494
314.053561129106;179.571304667132
314.075181354108;179.660451224484
314.096801579111;179.582097073315
314.118421804114;179.338111427429
314.140042029116;178.929780757208
314.161662254119;178.357825799752
314.183282479121;177.675209608536
314.204902704124;176.956332686702
314.226522929127;176.210753810695
314.248143154129;175.428526340328
314.269763379132;174.660646160243
314.291383604135;174.015021279017
314.313003829137;173.494267756547
314.33462405414;173.039436943131
314.356244279143;172.650870906097
314.377864504145;172.37523779515
314.399484729148;172.210568701421
314.42110495415;172.106682127649
314.442725179153;172.049811468535
314.464345404156;172.041478111583
314.485965629158;172.074833549213
314.507585854161;172.134163181278
314.529206079164;172.208531634654
314.550826304166;172.291462975192
314.572446529169;172.378274094497
314.594066754171;172.4678898984
314.615686979174;172.560608059409
314.637307204177;172.660415184858
314.658927429179;172.765895591393
314.680547654182;172.875614564782
314.702167879185;172.98531861951
314.723788104187;173.10256038282
314.74540832919;173.219777759051
314.767028554193;173.336750598329
314.788648779195;173.456534088886
314.810269004198;173.563708832111
314.8318892292;173.646015982454
314.853509454203;173.704722085417
314.875129679206;173.73611673829
314.896749904208;173.738728653907
314.918370129211;173.701627357216
314.939990354214;173.618940219845
314.961610579216;173.48988016586
314.983230804219;173.336168004238
315.004851029221;173.174477253901
315.026471254224;173.019340175129
315.048091479227;172.87649953027
315.069711704229;172.747996336865
315.091331929232;172.642324946362
315.112952154235;172.565668943338
315.134572379237;172.518855376675
315.15619260424;172.501493159769
315.177812829243;172.510937434222
315.199433054245;172.540095975168
315.221053279248;172.58093623161
315.24267350425;172.631323901483
315.264293729253;172.690529518132
315.285913954256;172.755469857869
315.307534179258;172.818753480323
315.329154404261;172.87546532227
315.350774629264;172.925031126941
315.372394854266;172.970351979912
315.394015079269;173.019888713459
315.415635304271;173.081576756421
315.437255529274;173.164672628096
315.458875754277;173.272176539627
315.480495979279;173.409416262352
315.502116204282;173.598559889749
315.523736429285;173.843945876033
315.545356654287;174.114032609706
315.56697687929;174.405258910615
315.588597104292;174.725962485975
315.610217329295;175.084855644503
315.631837554298;175.469590266667
315.6534577793;175.866592484814
315.675078004303;176.257114396179
315.696698229306;176.640801406678
315.718318454308;177.020976109168
315.739938679311;177.37404435453
315.761558904314;177.689417605098
315.783179129316;177.980189360488
315.804799354319;178.264117991221
315.826419579321;178.526033231972
315.848039804324;178.758019576504
315.869660029327;178.975171364493
315.891280254329;179.19374689756
315.912900479332;179.433342562858
315.934520704335;179.697146705898
315.956140929337;179.982697585686
315.97776115434;180.290487697737
315.999381379342;180.608574725487
316.021001604345;180.873931994594
316.042621829348;181.054602064244
316.06424205435;181.154771719315
316.085862279353;181.180662277563
316.107482504356;181.136443759091
316.129102729358;181.024782453464
316.150722954361;180.838551426208
316.172343179364;180.557262174436
316.193963404366;180.214816948881
316.215583629369;179.85538410284
316.237203854371;179.481706908149
316.258824079374;179.086765580472
316.280444304377;178.705266065791
316.302064529379;178.381519951933
316.323684754382;178.110726628761
316.345304979385;177.873073785779
316.366925204387;177.667254395352
316.38854542939;177.507557836917
316.410165654392;177.3874318392
316.431785879395;177.290167467232
316.453406104398;177.203407611766
316.4750263294;177.107418060311
316.496646554403;176.983346528788
316.518266779406;176.82550589785
316.539887004408;176.639418268091
316.561507229411;176.405758782593
316.583127454414;176.096908089478
316.604747679416;175.71792500486
316.626367904419;175.30027708349
316.647988129421;174.842748967753
316.669608354424;174.30453260177
316.691228579427;173.591122418013
316.712848804429;172.760063298198
316.734469029432;172.043467760704
316.756089254435;171.390774668372
316.777709479437;170.718432013239
316.79932970444;170.055805273639
316.820949929442;169.471699569419
316.842570154445;168.933719606503
316.864190379448;168.417350601505
316.88581060445;167.974675669858
316.907430829453;167.601655959127
316.929051054456;167.25954483502
316.950671279458;166.931542393794
316.972291504461;166.606208635242
316.993911729463;166.279243119111
317.015531954466;165.94781668268
317.037152179469;165.573328637566
317.058772404471;165.141715265967
317.080392629474;164.727886621039
317.102012854477;164.360796084911
317.123633079479;164.032856531437
317.145253304482;163.729772800484
317.166873529485;163.436003746475
317.188493754487;163.150619042432
317.21011397949;162.910740539213
317.231734204492;162.738119231321
317.253354429495;162.623940476872
317.274974654498;162.555743071525
317.2965948795;162.520181700584
317.318215104503;162.506232765995
317.339835329506;162.500464197394
317.361455554508;162.486851277899
317.383075779511;162.45668820853
317.404696004513;162.402122215885
317.426316229516;162.310949096659
317.447936454519;162.163449593545
317.469556679521;161.970575463783
317.491176904524;161.764814902716
317.512797129527;161.558811387239
317.534417354529;161.345527117686
317.556037579532;161.116940332891
317.577657804535;160.861094873757
317.599278029537;160.564554231485
317.62089825454;160.234620719341
317.642518479542;159.880972049386
317.664138704545;159.497727358185
317.685758929548;159.066102051973
317.70737915455;158.554382189392
317.728999379553;157.944361778771
317.750619604556;157.263795410426
317.772239829558;156.554099791165
317.793860054561;155.818755536367
317.815480279563;155.023804492596
317.837100504566;154.142350778349
317.858720729569;153.20068419835
317.880340954571;152.243832391567
317.901961179574;151.301919411903
317.923581404577;150.413826549629
317.945201629579;149.594884687799
317.966821854582;148.836743621652
317.988442079584;148.154312311055
318.010062304587;147.546189452186
318.03168252959;146.991229972721
318.053302754592;146.468022905669
318.074922979595;145.958717927185
318.096543204598;145.449034189667
318.1181634296;144.92379476746
318.139783654603;144.360262648718
318.161403879606;143.745253522257
318.183024104608;143.09908441016
318.204644329611;142.476679059515
318.226264554613;141.899600496526
318.247884779616;141.309989514823
318.269505004619;140.681453863269
318.291125229621;140.022880554897
318.312745454624;139.352161693834
318.334365679627;138.674285641362
318.355985904629;137.996369276927
318.377606129632;137.348883442518
318.399226354634;136.721672237616
318.420846579637;136.091000252331
318.44246680464;135.459488482069
318.464087029642;134.810272710493
318.485707254645;134.136146521219
318.507327479648;133.46396460857
318.52894770465;132.78685838563
318.550567929653;132.073336141333
318.572188154656;131.290864710859
318.593808379658;130.43356842217
318.615428604661;129.553314577296
318.637048829663;128.7024347644
318.658669054666;127.9140784574
318.680289279669;127.204878072895
318.701909504671;126.5593658434
318.723529729674;125.926592142614
318.745149954677;125.284538916668
318.766770179679;124.664532806379
318.788390404682;124.113688963144
318.810010629684;123.640121396716
318.831630854687;123.223004712055
318.85325107969;122.846554087944
318.874871304692;122.485583796873
318.896491529695;122.103227372759
318.918111754698;121.702483398954
318.9397319797;121.284623349271
318.961352204703;120.848135725471
318.982972429705;120.389722434489
319.004592654708;119.884335444113
319.026212879711;119.322012858029
319.047833104713;118.776374410872
319.069453329716;118.290418451076
319.091073554719;117.836567208683
319.112693779721;117.414937999225
319.134314004724;117.030397075477
319.155934229727;116.668152156335
319.177554454729;116.324574542525
319.199174679732;116.011656437761
319.220794904734;115.740875926059
319.242415129737;115.503485117909
319.26403535474;115.283062632069
319.285655579742;115.073666530824
319.307275804745;114.873516457313
319.328896029748;114.680750327124
319.35051625475;114.485155453069
319.372136479753;114.266591556735
319.393756704755;114.004764894828
319.415376929758;113.679351636918
319.436997154761;113.281330689448
319.458617379763;112.839626815275
319.480237604766;112.368031485865
319.501857829769;111.862865675824
319.523478054771;111.298405941033
319.545098279774;110.625913025877
319.566718504776;109.836072478846
319.588338729779;109.047501652966
319.609958954782;108.340350729398
319.631579179784;107.685984103696
319.653199404787;107.046812736914
319.67481962979;106.419034784708
319.696439854792;105.842017483464
319.718060079795;105.326652386589
319.739680304798;104.845610576044
319.7613005298;104.349242189842
319.782920754803;103.814355117649
319.804540979805;103.208130047257
319.826161204808;102.501305381509
319.847781429811;101.712452290352
319.869401654813;100.928117160823
319.891021879816;100.152065902192
319.912642104819;99.2959894901177
319.934262329821;98.339747166555
319.955882554824;97.3309770395857
319.977502779826;96.273473490825
319.999123004829;95.1624928802299
320.020743229832;94.0648350747153
320.042363454834;93.0751879233279
320.063983679837;92.1714872359416
320.08560390484;91.2884751968478
320.107224129842;90.3962618704409
320.128844354845;89.5532941485776
320.150464579848;88.8093621501674
320.17208480485;88.1561727895772
320.193705029853;87.5911824769712
320.215325254855;87.1328728211014
320.236945479858;86.7755308929564
320.258565704861;86.4911527815236
320.280185929863;86.2824209884401
320.301806154866;86.1605968639105
320.323426379869;86.110591508608
320.345046604871;86.1122351954179
320.366666829874;86.1533731678693
320.388287054876;86.2195310139612
320.409907279879;86.3014455924833
320.431527504882;86.3893919333841
320.453147729884;86.4752439267896
320.474767954887;86.5444381816075
320.49638817989;86.5969796556164
320.518008404892;86.6337695041511
320.539628629895;86.6624023059782
320.561248854897;86.6873191439351
320.5828690799;86.7204969601013
320.604489304903;86.7742614696438
320.626109529905;86.8587372978238
320.647729754908;86.989227647309
320.669349979911;87.1738516352178
320.690970204913;87.4006630099061
320.712590429916;87.6518131980948
320.734210654919;87.9162535240118
320.755830879921;88.1861873454811
320.777451104924;88.4452470649269
320.799071329926;88.6531666516139
320.820691554929;88.7992737327598
320.842311779932;88.8913612797978
320.863932004934;88.93207872494
320.885552229937;88.910987122849
320.90717245494;88.8017015020306
320.928792679942;88.6120486307159
320.950412904945;88.37785885222
320.972033129947;88.1067383898779
320.99365335495;87.813812662805
321.015273579953;87.5272395269853
321.036893804955;87.2474679886859
321.058514029958;86.9536953918403
321.080134254961;86.634195817479
321.101754479963;86.3086640668147
321.123374704966;85.9886529326988
321.144994929969;85.6551827412586
321.166615154971;85.2806204662503
321.188235379974;84.854247801822
321.209855604976;84.4200433053281
321.231475829979;84.0195129719667
321.253096054982;83.663951523943
321.274716279984;83.3713083759994
321.296336504987;83.1708703172438
321.31795672999;83.0683889351165
321.339576954992;83.0599071602861
321.361197179995;83.147530065719
321.382817404997;83.3411182815975
321.40443763;83.6368197669407
321.426057855003;84.0006783931397
321.447678080005;84.4212182340102
321.469298305008;84.8920011382738
321.490918530011;85.359740030763
321.512538755013;85.7984931653138
321.534158980016;86.2302831934977
321.555779205019;86.6513919374012
321.577399430021;87.041559413444
321.599019655024;87.3851052644719
321.620639880026;87.7025841772195
321.642260105029;88.0107343844036
321.663880330032;88.2907147029115
321.685500555034;88.516485199164
321.707120780037;88.6933936887311
321.72874100504;88.823664258256
321.750361230042;88.9088712924068
321.771981455045;88.956005288265
321.793601680047;88.9658418875295
321.81522190505;88.9315765661598
321.836842130053;88.8544386336294
321.858462355055;88.7531599364125
321.880082580058;88.6355268635963
321.901702805061;88.4928612318858
321.923323030063;88.2999578639431
321.944943255066;88.043617849508
321.966563480068;87.7662867766832
321.988183705071;87.4983526150633
322.009803930074;87.2414721435981
322.031424155076;86.9868184564631
322.053044380079;86.7359704637888
322.074664605082;86.5015804873002
322.096284830084;86.2814623915004
322.117905055087;86.0777523536949
322.13952528009;85.9233512719635
322.161145505092;85.8519307317921
322.182765730095;85.8470847748412
322.204385955097;85.9180538578526
322.2260061801;86.071613229207
322.247626405103;86.2642599506931
322.269246630105;86.4559760562155
322.290866855108;86.6383263049123
322.312487080111;86.8161522450624
322.334107305113;86.9573884798005
322.355727530116;87.0373152608221
322.377347755118;87.0499387732868
322.398967980121;86.9952358663942
322.420588205124;86.866354043479
322.442208430126;86.6855328199468
322.463828655129;86.4708101938214
322.485448880132;86.2349464220862
322.507069105134;85.9945816430595
322.528689330137;85.7814673915197
322.55030955514;85.6142496582287
322.571929780142;85.4898377945004
322.593550005145;85.3974994111299
322.615170230147;85.3357153324521
322.63679045515;85.287066857078
322.658410680153;85.23425842238
322.680030905155;85.1615064684703
322.701651130158;85.0500764741909
322.723271355161;84.8916938743557
322.744891580163;84.673906198491
322.766511805166;84.375594757474
322.788132030168;83.963714116665
322.809752255171;83.485972194381
322.831372480174;83.0269381088731
322.852992705176;82.5595199924724
322.874612930179;82.0615070006563
322.896233155182;81.5725380605947
322.917853380184;81.1342523466971
322.939473605187;80.7650541929331
322.96109383019;80.4961391077414
322.982714055192;80.3516491079635
323.004334280195;80.3346239088624
323.025954505197;80.447196859175
323.0475747302;80.6720986267797
323.069194955203;80.9642055262732
323.090815180205;81.3102024541511
323.112435405208;81.7132303312756
323.134055630211;82.1598503476695
323.155675855213;82.6328524333281
323.177296080216;83.1121894542556
323.198916305218;83.5659284349154
323.220536530221;83.9781017289136
323.242156755224;84.3480682875955
323.263776980226;84.6873237916013
323.285397205229;85.0022091687898
323.307017430232;85.2910361422692
323.328637655234;85.5298731536044
323.350257880237;85.7005152906547
323.371878105239;85.8252964106441
323.393498330242;85.9293498020944
323.415118555245;86.0148305877967
323.436738780247;86.0822986979941
323.45835900525;86.1307754136758
323.479979230253;86.1707008056727
323.501599455255;86.2104429955685
323.523219680258;86.2532417152969
323.544839905261;86.2966537910049
323.566460130263;86.3316045653062
323.588080355266;86.3420922551214
323.609700580268;86.3285527006988
323.631320805271;86.2837917549359
323.652941030274;86.2040192849272
323.674561255276;86.0948972486479
323.696181480279;85.947352462821
323.717801705282;85.7615132950742
323.739421930284;85.5395297251646
323.761042155287;85.2931248411743
323.782662380289;85.0358102519072
323.804282605292;84.7808061550171
323.825902830295;84.5348298381307
323.847523055297;84.3080885647992
323.8691432803;84.0867109979131
323.890763505303;83.8628486189827
323.912383730305;83.6366306133121
323.934003955308;83.4212492257542
323.955624180311;83.2296477399772
323.977244405313;83.0541483506837
323.998864630316;82.8869357054472
324.020484855318;82.7270881510368
324.042105080321;82.5701003225568
324.063725305324;82.4072315073811
324.085345530326;82.2441104075349
324.106965755329;82.0799439734766
324.128585980332;81.9115342202711
324.150206205334;81.7348107166334
324.171826430337;81.5584538127777
324.193446655339;81.3914366376363
324.215066880342;81.2421363604371
324.236687105345;81.1198253838059
324.258307330347;81.022321195706
324.27992755535;80.9471960049311
324.301547780353;80.8900408765947
324.323168005355;80.8617384846642
324.344788230358;80.8516545443673
324.366408455361;80.8386342692255
324.388028680363;80.8095208941993
324.409648905366;80.7552004305789
324.431269130368;80.670058315371
324.452889355371;80.5557516389764
324.474509580374;80.4171507188092
324.496129805376;80.2675996178541
324.517750030379;80.1291443744418
324.539370255382;80.0176016991378
324.560990480384;79.9495597029021
324.582610705387;79.9436153904641
324.604230930389;80.0131445997391
324.625851155392;80.1506646123947
324.647471380395;80.3604046249017
324.669091605397;80.6722011479567
324.6907118304;81.0551098322214
324.712332055403;81.441776042448
324.733952280405;81.8223092807339
324.755572505408;82.1782330449467
324.77719273041;82.4817366568254
