Name;ESR_BC_1_359s_Y_gon_180dg_2

Recipe
Accumulations;5;Number of accumulations
RetryCount;0;Number of retries on error
AbortOnError;True;Abort on error
EnableQFactorMeasurement;False;Enable/Disable q-Factor measurement
Bfrom;313;B from
Bto;363;B to
SweepTime;60;Sweep time
Modulation;0.2;Modulation
ModulationFreq;100;Modulation
BHoldEnabled;False;B hold enabled
BHold;0;B hold
MicrowavePower;2;Microwave power
MarkerEnabled;False;
MarkerStartField;0;
MarkerEndField;0;
Mode;;
KineticGFact;0;
KineticTotalTransientTime;0;
KineticTimeResolution;0;
TempFrom;5;
TempUseSlope;False;
TempTo;5;
TempdT;1;
TempSetupTime;0;
GonFrom;0;
GonTo;180;
GonSteps;20;
XRayEnabled;False;
XRayTime;3;
XRayVoltage;40;
XRayCurrent;0.5;
UVEnabled;False;
UVIntensity;0;
UVTime;0;
UVLeadTime;0;
UVWavelength;0;
PowSweepFrom;1;
PowSweepTo;5;
PowSweepSteps;5;
AmpModSweepFrom;0;
AmpModSweepTo;1;
AmpModSweepSteps;10;
ExtTriggerEnabled;False;
ExtTrigLeadTime;0;
ExtTrigOnTime;5;

Meas
BField [mT];MW_Absorption []
313.011526565552;188.193235983463
313.033140758693;187.24056481423
313.054754951833;186.136720920694
313.076369144974;184.910119903887
313.097983338115;183.634096230092
313.119597531256;182.324480618148
313.141211724397;180.922931512446
313.162825917538;179.405478836474
313.184440110679;177.891362153147
313.206054303819;176.49086758998
313.22766849696;175.164112848929
313.249282690101;173.837336967205
313.270896883242;172.467655711924
313.292511076383;171.137194409166
313.314125269524;170.024256420445
313.335739462664;169.177000387484
313.357353655805;168.524143893381
313.378967848946;168.061593752565
313.400582042087;167.766688996527
313.422196235228;167.599072950234
313.443810428369;167.558707905671
313.465424621509;167.678792465296
313.48703881465;167.968812340268
313.508653007791;168.359680668409
313.530267200932;168.820672231849
313.551881394073;169.392715038696
313.573495587214;170.089129161701
313.595109780355;170.815168084796
313.616723973495;171.46997526336
313.638338166636;172.04136722882
313.659952359777;172.538205894701
313.681566552918;172.956313105286
313.703180746059;173.278725060863
313.7247949392;173.490997512816
313.74640913234;173.588397419131
313.768023325481;173.562338594395
313.789637518622;173.405618549938
313.811251711763;173.12900272004
313.832865904904;172.752493759349
313.854480098045;172.288453902697
313.876094291185;171.748761596685
313.897708484326;171.149866272432
313.919322677467;170.526275330588
313.940936870608;169.910196497889
313.962551063749;169.312695046516
313.98416525689;168.743546408044
314.005779450031;168.206749625687
314.027393643171;167.685501762839
314.049007836312;167.152558232206
314.070622029453;166.607588358449
314.092236222594;166.094457834121
314.113850415735;165.626684141647
314.135464608876;165.165634169995
314.157078802016;164.677026882213
314.178692995157;164.152634498628
314.200307188298;163.605119518411
314.221921381439;163.058720174799
314.24353557458;162.559673238739
314.265149767721;162.112468347671
314.286763960861;161.717062364416
314.308378154002;161.357018820504
314.329992347143;161.028691976109
314.351606540284;160.736203591651
314.373220733425;160.480074477289
314.394834926566;160.270316453122
314.416449119707;160.125043003094
314.438063312847;160.035898783577
314.459677505988;159.97234955157
314.481291699129;159.916779392161
314.50290589227;159.853778048368
314.524520085411;159.773019532006
314.546134278552;159.667132864692
314.567748471692;159.509134496486
314.589362664833;159.270397220401
314.610976857974;158.936076436077
314.632591051115;158.546774705166
314.654205244256;158.143098988143
314.675819437397;157.746463662519
314.697433630537;157.355938313333
314.719047823678;156.964714857586
314.740662016819;156.572221931944
314.76227620996;156.192749372485
314.783890403101;155.845951219021
314.805504596242;155.544325679872
314.827118789383;155.289949369327
314.848732982523;155.079536386762
314.870347175664;154.910061965385
314.891961368805;154.76668433833
314.913575561946;154.630663045102
314.935189755087;154.497596429244
314.956803948228;154.362397333498
314.978418141368;154.210169649659
315.000032334509;154.018601566904
315.02164652765;153.753592881742
315.043260720791;153.409867030432
315.064874913932;153.021151514646
315.086489107073;152.636853787523
315.108103300213;152.266877813312
315.129717493354;151.886889515424
315.151331686495;151.479736111258
315.172945879636;151.038607636417
315.194560072777;150.567062534639
315.216174265918;150.087707675823
315.237788459058;149.621990064504
315.259402652199;149.203516231063
315.28101684534;148.835299103468
315.302631038481;148.489186664323
315.324245231622;148.171658363322
315.345859424763;147.91142288228
315.367473617904;147.698984183633
315.389087811044;147.513698334042
315.410702004185;147.369786625523
315.432316197326;147.279230328323
315.453930390467;147.234741481684
315.475544583608;147.220750249763
315.497158776749;147.223330921294
315.518772969889;147.232839141024
315.54038716303;147.237044115591
315.562001356171;147.22658970787
315.583615549312;147.192131709127
315.605229742453;147.130699504049
315.626843935594;147.050578239983
315.648458128734;146.957813698783
315.670072321875;146.854322893011
315.691686515016;146.73129334909
315.713300708157;146.593324031076
315.734914901298;146.466998802543
315.756529094439;146.367322610565
315.77814328758;146.292714008691
315.79975748072;146.24241483727
315.821371673861;146.210551847287
315.842985867002;146.191514861985
315.864600060143;146.179116797282
315.886214253284;146.165114797554
315.907828446425;146.14458054824
315.929442639565;146.114381091062
315.951056832706;146.073952394974
315.972671025847;146.023481259682
315.994285218988;145.960080578879
316.015899412129;145.880220862534
316.03751360527;145.803938283752
316.05912779841;145.758222913447
316.080741991551;145.751618999503
316.102356184692;145.79150122565
316.123970377833;145.892569872173
316.145584570974;146.059900065614
316.167198764115;146.281816279219
316.188812957255;146.552819650526
316.210427150396;146.87790698446
316.232041343537;147.244092860655
316.253655536678;147.591816140865
316.275269729819;147.879608054077
316.29688392296;148.105930870848
316.318498116101;148.270264507636
316.340112309241;148.348210328118
316.361726502382;148.295793201353
316.383340695523;148.117959228078
316.404954888664;147.840687778095
316.426569081805;147.459466168979
316.448183274946;146.989260420594
316.469797468086;146.47490023452
316.491411661227;145.947691207476
316.513025854368;145.413637084792
316.534640047509;144.868367849231
316.55625424065;144.30987123843
316.577868433791;143.735704544575
316.599482626931;143.155509453551
316.621096820072;142.600362305146
316.642711013213;142.105425022515
316.664325206354;141.664634594197
316.685939399495;141.27557481574
316.707553592636;140.959646489082
316.729167785777;140.706141783402
316.750781978917;140.491183499311
316.772396172058;140.305855355421
316.794010365199;140.142989585854
316.81562455834;139.99424112117
316.837238751481;139.859864018546
316.858852944622;139.730560046637
316.880467137762;139.608701646286
316.902081330903;139.490801264699
316.923695524044;139.370522296433
316.945309717185;139.236135892643
316.966923910326;139.084400048026
316.988538103467;138.919131646768
317.010152296607;138.744154870243
317.031766489748;138.560479642574
317.053380682889;138.370283266159
317.07499487603;138.183486192485
317.096609069171;138.008335867516
317.118223262312;137.873335960845
317.139837455453;137.796355970907
317.161451648593;137.775935128818
317.183065841734;137.809099458801
317.204680034875;137.897925447174
317.226294228016;138.043452675369
317.247908421157;138.229242993762
317.269522614298;138.435662053672
317.291136807438;138.649585713622
317.312751000579;138.856509974532
317.33436519372;139.039848248258
317.355979386861;139.187999437402
317.377593580002;139.283788911894
317.399207773143;139.308665428215
317.420821966283;139.261886891043
317.442436159424;139.14407488893
317.464050352565;138.944332005072
317.485664545706;138.676087905911
317.507278738847;138.366989222296
317.528892931988;138.016418952427
317.550507125129;137.628851563135
317.572121318269;137.223696039599
317.59373551141;136.814123654816
317.615349704551;136.405112673507
317.636963897692;135.989965979508
317.658578090833;135.558061491377
317.680192283974;135.113933944715
317.701806477114;134.666349748793
317.723420670255;134.217773510305
317.745034863396;133.768130420033
317.766649056537;133.319944729947
317.788263249678;132.862642111477
317.809877442819;132.37369946731
317.831491635959;131.864428170815
317.8531058291;131.420290568517
317.874720022241;131.063248051187
317.896334215382;130.758769839015
317.917948408523;130.496542906998
317.939562601664;130.273409598424
317.961176794805;130.097317841401
317.982790987945;129.980231229875
318.004405181086;129.933035664269
318.026019374227;129.967250226985
318.047633567368;130.087736499461
318.069247760509;130.29376394239
318.09086195365;130.563972623893
318.11247614679;130.870310931563
318.134090339931;131.1975297701
318.155704533072;131.533715081743
318.177318726213;131.86814444128
318.198932919354;132.197183142514
318.220547112495;132.504321779243
318.242161305635;132.766421785121
318.263775498776;132.965297062933
318.285389691917;133.09976493348
318.307003885058;133.173819597135
318.328618078199;133.182742282201
318.35023227134;133.1278552504
318.371846464481;133.014934461276
318.393460657621;132.8654779861
318.415074850762;132.700627831962
318.436689043903;132.544555435681
318.458303237044;132.38077691876
318.479917430185;132.19138539312
318.501531623326;131.95172806802
318.523145816466;131.639405330146
318.544760009607;131.29061995908
318.566374202748;130.941375120561
318.587988395889;130.561777446429
318.60960258903;130.114648274632
318.631216782171;129.575412237244
318.652830975311;128.978223564213
318.674445168452;128.347898346027
318.696059361593;127.670235823741
318.717673554734;126.976376512884
318.739287747875;126.320670317275
318.760901941016;125.711503639113
318.782516134156;125.157899405348
318.804130327297;124.684298585509
318.825744520438;124.294544762781
318.847358713579;123.986114491063
318.86897290672;123.756163311498
318.890587099861;123.592559304838
318.912201293002;123.477050449636
318.933815486142;123.387896692464
318.955429679283;123.304879421855
318.977043872424;123.216404123877
318.998658065565;123.099954604388
319.020272258706;122.933564995808
319.041886451847;122.708367686037
319.063500644987;122.440581488603
319.085114838128;122.160755958487
319.106729031269;121.865486783325
319.12834322441;121.557974075768
319.149957417551;121.275034974344
319.171571610692;121.043590979872
319.193185803832;120.879249699734
319.214799996973;120.77918292092
319.236414190114;120.728360133468
319.258028383255;120.714982000694
319.279642576396;120.731224138024
319.301256769537;120.76273710715
319.322870962678;120.792895832514
319.344485155818;120.807217121197
319.366099348959;120.78736036552
319.3877135421;120.720987344519
319.409327735241;120.596803399966
319.430941928382;120.41822304724
319.452556121523;120.193908028981
319.474170314663;119.931046723061
319.495784507804;119.628962407516
319.517398700945;119.276014602032
319.539012894086;118.850740538563
319.560627087227;118.327298723144
319.582241280368;117.70371329745
319.603855473508;117.02797446928
319.625469666649;116.311077523699
319.64708385979;115.532479883443
319.668698052931;114.712007768582
319.690312246072;113.884211413792
319.711926439213;113.042519396522
319.733540632354;112.166040177991
319.755154825494;111.245860979835
319.776769018635;110.300881278846
319.798383211776;109.364158500663
319.819997404917;108.476106359858
319.841611598058;107.684527756702
319.863225791199;107.030677235532
319.884839984339;106.518148463776
319.90645417748;106.137897158607
319.928068370621;105.870703552984
319.949682563762;105.69554054797
319.971296756903;105.604946876738
319.992910950044;105.59119612041
320.014525143184;105.638239217199
320.036139336325;105.735900251156
320.057753529466;105.88794795901
320.079367722607;106.101410245928
320.100981915748;106.352169628797
320.122596108889;106.609418603458
320.14421030203;106.859806630706
320.16582449517;107.106337115386
320.187438688311;107.360413301312
320.209052881452;107.620469214767
320.230667074593;107.889326132711
320.252281267734;108.18100450279
320.273895460875;108.488561855994
320.295509654015;108.787994902479
320.317123847156;109.071923292566
320.338738040297;109.348689108207
320.360352233438;109.627682332075
320.381966426579;109.907906435533
320.40358061972;110.178720970947
320.42519481286;110.421285543393
320.446809006001;110.612116021595
320.468423199142;110.737552774012
320.490037392283;110.802862706184
320.511651585424;110.806723196805
320.533265778565;110.749626617392
320.554879971706;110.636782624793
320.576494164846;110.474861701982
320.598108357987;110.283173972492
320.619722551128;110.07263851328
320.641336744269;109.836679312249
320.66295093741;109.596089652135
320.684565130551;109.39108399559
320.706179323691;109.223731743164
320.727793516832;109.090977391253
320.749407709973;108.989728529904
320.771021903114;108.913920081595
320.792636096255;108.858778258167
320.814250289396;108.822282679238
320.835864482536;108.795949932332
320.857478675677;108.769320673106
320.879092868818;108.732623477067
320.900707061959;108.676122579616
320.9223212551;108.586793780854
320.943935448241;108.456500838247
320.965549641382;108.285533626958
320.987163834522;108.080166810661
321.008778027663;107.844870206261
321.030392220804;107.580123670842
321.052006413945;107.288220868037
321.073620607086;106.967634157699
321.095234800227;106.649161765824
321.116848993367;106.393133190505
321.138463186508;106.207846287005
321.160077379649;106.076594739544
321.18169157279;105.994317067004
321.203305765931;105.95272380379
321.224919959072;105.947765642417
321.246534152212;105.973890053806
321.268148345353;106.017171371691
321.289762538494;106.058827155351
321.311376731635;106.077089691071
321.332990924776;106.049814990636
321.354605117917;105.955817901252
321.376219311058;105.798105045294
321.397833504198;105.595933762851
321.419447697339;105.350304043381
321.44106189048;105.046919614
321.462676083621;104.703469268488
321.484290276762;104.341545464645
321.505904469903;103.954770997108
321.527518663043;103.532426980681
321.549132856184;103.083487398558
321.570747049325;102.630631805952
321.592361242466;102.213170149652
321.613975435607;101.861973774771
321.635589628748;101.565508110494
321.657203821888;101.307531785444
321.678818015029;101.099377040568
321.70043220817;100.942385343389
321.722046401311;100.835778677266
321.743660594452;100.769394289165
321.765274787593;100.729587041224
321.786888980734;100.705678261728
321.808503173874;100.68754121871
321.830117367015;100.663505612263
321.851731560156;100.619466079672
321.873345753297;100.545111179825
321.894959946438;100.427797479119
321.916574139579;100.26434720197
321.938188332719;100.066793295919
321.95980252586;99.8245099337799
321.981416719001;99.5327742577667
322.003030912142;99.1928443069784
322.024645105283;98.8057294733351
322.046259298424;98.3707123018615
322.067873491564;97.8828304419123
322.089487684705;97.3237099883033
322.111101877846;96.7084771060848
322.132716070987;96.0969121064782
322.154330264128;95.5424953687277
322.175944457269;95.0386713239212
322.19755865041;94.5491898798612
322.21917284355;94.0609167421692
322.240787036691;93.5987121604335
322.262401229832;93.1850025819313
322.284015422973;92.8136987539319
322.305629616114;92.4592011058656
322.327243809255;92.1239751360622
322.348858002395;91.8442632122542
322.370472195536;91.6371552935861
322.392086388677;91.4731088171506
322.413700581818;91.3288024741722
322.435314774959;91.1956346090224
322.4569289681;91.0644271374729
322.47854316124;90.9242263690467
322.500157354381;90.767601463494
322.521771547522;90.5871219709712
322.543385740663;90.3686594969873
322.564999933804;90.1187887885961
322.586614126945;89.8781136691741
322.608228320085;89.6801463099034
322.629842513226;89.5306563468982
322.651456706367;89.4400826509165
322.673070899508;89.4234369954679
322.694685092649;89.499713196763
322.71629928579;89.6829262189135
322.737913478931;89.9607558037942
322.759527672071;90.3116034158217
322.781141865212;90.7180864035407
322.802756058353;91.1749032253044
322.824370251494;91.6782096392023
322.845984444635;92.1624788378592
322.867598637776;92.5604761225824
322.889212830916;92.8487871826519
322.910827024057;93.0144306672252
322.932441217198;93.0613579982566
322.954055410339;93.0152922211356
322.97566960348;92.8915642139403
322.997283796621;92.6922717071369
323.018897989761;92.4192567621134
323.040512182902;92.0683819352617
323.062126376043;91.6745646039931
323.083740569184;91.3080992346163
323.105354762325;90.9786893689203
323.126968955466;90.6811782742725
323.148583148607;90.4328541520577
323.170197341747;90.2395647083904
323.191811534888;90.0898509670301
323.213425728029;89.9657344770142
323.23503992117;89.8442021793252
323.256654114311;89.700590782379
323.278268307452;89.5127757612781
323.299882500592;89.2611504876465
323.321496693733;88.9494203506897
323.343110886874;88.5961344206417
323.364725080015;88.2065007058434
323.386339273156;87.7779515044752
323.407953466297;87.3241506035579
323.429567659437;86.8639836644482
323.451181852578;86.3932572791475
323.472796045719;85.9184038802517
323.49441023886;85.4657240545105
323.516024432001;85.0350901697065
323.537638625142;84.6017288883469
323.559252818283;84.1397348410621
323.580867011423;83.6648330219754
323.602481204564;83.1934043125145
323.624095397705;82.6781373114333
323.645709590846;82.0459754769192
323.667323783987;81.3651894480767
323.688937977128;80.7577888259017
323.710552170268;80.1991801625919
323.732166363409;79.6875932051344
323.75378055655;79.2560574049323
323.775394749691;78.9037207205876
323.797008942832;78.612394923428
323.818623135973;78.3649351772101
323.840237329113;78.1770179478561
323.861851522254;78.0863005224339
323.883465715395;78.0924734079675
323.905079908536;78.1641281791359
323.926694101677;78.2739313284653
323.948308294818;78.4158179720352
323.969922487959;78.5781041850942
323.991536681099;78.7303496827483
324.01315087424;78.8601130069454
324.034765067381;78.9711869213694
324.056379260522;79.0700886034254
324.077993453663;79.1586937144415
324.099607646804;79.2358604936361
324.121221839944;79.289119443909
324.142836033085;79.3084776370321
324.164450226226;79.288282094386
324.186064419367;79.2240211283105
324.207678612508;79.0997503003996
324.229292805649;78.9000537198064
324.250906998789;78.6229411298155
324.27252119193;78.2936167037328
324.294135385071;77.9419227914674
324.315749578212;77.5830379558035
324.337363771353;77.2250559973468
324.358977964494;76.8675590517308
324.380592157635;76.5117518233774
324.402206350775;76.2041961800781
324.423820543916;76.002498381295
324.445434737057;75.9008710441328
324.467048930198;75.8840391742008
324.488663123339;75.9495857338919
324.51027731648;76.1005772663207
324.53189150962;76.333616471645
324.553505702761;76.6226387127752
324.575119895902;76.9428560619364
324.596734089043;77.2894887832213
324.618348282184;77.6585705392178
324.639962475325;78.0248627498083
324.661576668465;78.3646531035912
324.683190861606;78.6669803231989
324.704805054747;78.9181940443032
324.726419247888;79.1030699534107
324.748033441029;79.2165086654382
324.76964763417;79.2639130298528
