Name;ESR_BC_1_Natural_gon_100dg_result

Recipe
Accumulations;5;Number of accumulations
RetryCount;0;Number of retries on error
AbortOnError;True;Abort on error
EnableQFactorMeasurement;False;Enable/Disable q-Factor measurement
Bfrom;313;B from
Bto;363;B to
SweepTime;60;Sweep time
Modulation;0.2;Modulation
ModulationFreq;100;Modulation
BHoldEnabled;False;B hold enabled
BHold;0;B hold
MicrowavePower;2;Microwave power
MarkerEnabled;False;
MarkerStartField;0;
MarkerEndField;0;
Mode;;
KineticGFact;0;
KineticTotalTransientTime;0;
KineticTimeResolution;0;
TempFrom;5;
TempUseSlope;False;
TempTo;5;
TempdT;1;
TempSetupTime;0;
GonFrom;0;
GonTo;180;
GonSteps;20;
XRayEnabled;False;
XRayTime;3;
XRayVoltage;40;
XRayCurrent;0.5;
UVEnabled;False;
UVIntensity;0;
UVTime;0;
UVLeadTime;0;
UVWavelength;0;
PowSweepFrom;1;
PowSweepTo;5;
PowSweepSteps;5;
AmpModSweepFrom;0;
AmpModSweepTo;1;
AmpModSweepSteps;10;
ExtTriggerEnabled;False;
ExtTrigLeadTime;0;
ExtTrigOnTime;5;

Meas
BField [mT];MW_Absorption []
313.022656326294;505.079920416309
313.044283257852;505.018098114815
313.06591018941;505.005363158697
313.087537120968;505.026167541328
313.109164052526;505.061078791252
313.130790984084;505.094975015017
313.152417915641;505.116851669957
313.174044847199;505.112079289979
313.195671778757;505.057839490918
313.217298710315;504.93918145166
313.238925641873;504.758308030158
313.260552573431;504.521780190673
313.282179504989;504.225011538069
313.303806436547;503.856058009635
313.325433368105;503.426622363382
313.347060299663;502.967739850002
313.368687231221;502.498246335261
313.390314162779;502.028848380817
313.411941094337;501.558512129167
313.433568025894;501.077184763298
313.455194957452;500.569892701528
313.47682188901;500.025503439846
313.498448820568;499.447510362403
313.520075752126;498.859162313219
313.541702683684;498.268967520619
313.563329615242;497.662726579647
313.5849565468;497.043605424758
313.606583478358;496.433176417304
313.628210409916;495.842593197047
313.649837341474;495.279020019452
313.671464273032;494.746829759378
313.69309120459;494.2412463599
313.714718136148;493.759156802689
313.736345067705;493.306150333069
313.757971999263;492.875246503254
313.779598930821;492.465088677935
313.801225862379;492.098360120387
313.822852793937;491.778498118934
313.844479725495;491.492640825632
313.866106657053;491.223150797036
313.887733588611;490.957802645726
313.909360520169;490.673624667313
313.930987451727;490.35456520672
313.952614383285;490.000264499036
313.974241314843;489.599144530622
313.995868246401;489.145337461614
314.017495177958;488.651168535808
314.039122109516;488.123074957335
314.060749041074;487.51021970902
314.082375972632;486.790135927209
314.10400290419;485.980077700054
314.125629835748;485.114223655354
314.147256767306;484.234909730748
314.168883698864;483.376617823139
314.190510630422;482.522510087501
314.21213756198;481.644111887914
314.233764493538;480.7505962654
314.255391425096;479.877871332732
314.277018356654;479.063041398001
314.298645288211;478.301635942311
314.320272219769;477.579308944793
314.341899151327;476.907924079178
314.363526082885;476.301578108382
314.385153014443;475.758282587033
314.406779946001;475.26457148161
314.428406877559;474.810029634067
314.450033809117;474.392330249997
314.471660740675;474.001810462575
314.493287672233;473.632327880949
314.514914603791;473.283395834457
314.536541535349;472.961557159963
314.558168466907;472.67288244462
314.579795398464;472.416315968978
314.601422330022;472.185058610687
314.62304926158;471.972563444701
314.644676193138;471.770425612753
314.666303124696;471.57001150605
314.687930056254;471.376579836866
314.709556987812;471.189034316424
314.73118391937;470.996339111396
314.752810850928;470.787029645106
314.774437782486;470.558218901563
314.796064714044;470.316384764023
314.817691645602;470.063206556448
314.83931857716;469.790714502116
314.860945508717;469.498016331573
314.882572440275;469.20250965586
314.904199371833;468.913960817463
314.925826303391;468.622924462973
314.947453234949;468.319319183533
314.969080166507;468.008241044304
314.990707098065;467.69600310659
315.012334029623;467.382956073864
315.033960961181;467.074257563473
315.055587892739;466.772542675684
315.077214824297;466.476670112181
315.098841755855;466.181246883108
315.120468687413;465.890326534601
315.14209561897;465.611793195575
315.163722550528;465.355465414126
315.185349482086;465.130648548559
315.206976413644;464.937724597266
315.228603345202;464.780621307629
315.25023027676;464.673287075519
315.271857208318;464.632948869144
315.293484139876;464.64893573092
315.315111071434;464.695722410217
315.336738002992;464.763408738107
315.35836493455;464.840966634499
315.379991866108;464.91394205826
315.401618797666;464.963831325521
315.423245729223;464.973916931782
315.444872660781;464.913195575274
315.466499592339;464.755741731551
315.488126523897;464.508940814261
315.509753455455;464.184277357858
315.531380387013;463.772775240674
315.553007318571;463.258547899879
315.574634250129;462.639284896259
315.596261181687;461.90872213542
315.617888113245;461.075592222665
315.639515044803;460.174932495106
315.661141976361;459.220169154662
315.682768907919;458.213394941236
315.704395839476;457.200121090577
315.726022771034;456.227356885195
315.747649702592;455.289810306035
315.76927663415;454.358406790666
315.790903565708;453.421625804516
315.812530497266;452.499795579463
315.834157428824;451.61893403655
315.855784360382;450.789365611847
315.87741129194;450.032179365119
315.899038223498;449.336432133281
315.920665155056;448.684841959485
315.942292086614;448.067936163634
315.963919018172;447.50566740529
315.98554594973;447.003087814924
316.007172881287;446.540788104719
316.028799812845;446.097922657654
316.050426744403;445.65840302604
316.072053675961;445.205906211944
316.093680607519;444.71148109139
316.115307539077;444.155680651657
316.136934470635;443.549106356006
316.158561402193;442.900590994209
316.180188333751;442.210524735531
316.201815265309;441.465398732608
316.223442196867;440.641061511021
316.245069128425;439.744397354496
316.266696059983;438.841634648998
316.28832299154;437.962838896025
316.309949923098;437.10809185814
316.331576854656;436.268791548115
316.353203786214;435.450331946221
316.374830717772;434.66831190133
316.39645764933;433.931762221996
316.418084580888;433.239672112557
316.439711512446;432.591774317687
316.461338444004;431.989862023711
316.482965375562;431.429575692881
316.50459230712;430.909920839718
316.526219238678;430.444139444999
316.547846170236;430.04123232154
316.569473101793;429.695362493125
316.591100033351;429.392877307881
316.612726964909;429.136082960675
316.634353896467;428.945663665694
316.655980828025;428.824471898042
316.677607759583;428.754383905885
316.699234691141;428.728673494294
316.720861622699;428.754960367194
316.742488554257;428.839138977096
316.764115485815;428.971176944387
316.785742417373;429.140014864688
316.807369348931;429.338064102891
316.828996280489;429.544229772881
316.850623212046;429.73755885122
316.872250143604;429.908964974787
316.893877075162;430.053645571527
316.91550400672;430.160058283573
316.937130938278;430.212137400389
316.958757869836;430.205711291644
316.980384801394;430.13571484297
317.002011732952;429.98929719145
317.02363866451;429.763854961509
317.045265596068;429.473608861931
317.066892527626;429.146288829805
317.088519459184;428.80369120809
317.110146390742;428.448745289926
317.131773322299;428.088645062297
317.153400253857;427.735842244106
317.175027185415;427.405672617826
317.196654116973;427.105144770752
317.218281048531;426.843853717037
317.239907980089;426.612223475725
317.261534911647;426.40280026237
317.283161843205;426.208827878145
317.304788774763;426.028551891091
317.326415706321;425.856390763186
317.348042637879;425.679863164628
317.369669569437;425.483131287726
317.391296500995;425.251119329667
317.412923432552;424.975303177669
317.43455036411;424.663785083273
317.456177295668;424.320211040753
317.477804227226;423.935105816641
317.499431158784;423.500904364669
317.521058090342;423.034631071761
317.5426850219;422.553304173684
317.564311953458;422.051353208522
317.585938885016;421.523623158644
317.607565816574;420.959645133887
317.629192748132;420.352170868843
317.65081967969;419.723659441131
317.672446611248;419.09473584199
317.694073542805;418.451207787286
317.715700474363;417.749561162005
317.737327405921;416.974180786797
317.758954337479;416.153493137802
317.780581269037;415.322960158895
317.802208200595;414.523509558586
317.823835132153;413.765240694727
317.845462063711;413.019635398603
317.867088995269;412.269210035796
317.888715926827;411.519531115304
317.910342858385;410.803145490802
317.931969789943;410.143182187439
317.953596721501;409.538694176008
317.975223653058;408.981386320798
317.996850584616;408.464100829732
318.018477516174;407.980665859461
318.040104447732;407.526719504701
318.06173137929;407.096588849146
318.083358310848;406.676047344048
318.104985242406;406.248282425854
318.126612173964;405.806368192529
318.148239105522;405.359404725119
318.16986603708;404.914386664758
318.191492968638;404.467369562233
318.213119900196;404.007213576829
318.234746831754;403.538580399126
318.256373763311;403.076826642957
318.278000694869;402.61696387995
318.299627626427;402.147151452182
318.321254557985;401.669118081969
318.342881489543;401.187377813216
318.364508421101;400.701445328141
318.386135352659;400.199480234814
318.407762284217;399.681502438635
318.429389215775;399.161151339819
318.451016147333;398.633987107792
318.472643078891;398.0758480259
318.494270010449;397.471929481692
318.515896942007;396.848787455994
318.537523873564;396.250770969802
318.559150805122;395.66150747334
318.58077773668;395.06242789101
318.602404668238;394.457672315147
318.624031599796;393.865995916203
318.645658531354;393.311411382517
318.667285462912;392.80471464583
318.68891239447;392.341338429926
318.710539326028;391.912650418
318.732166257586;391.507188505627
318.753793189144;391.101830732767
318.775420120702;390.694073379215
318.79704705226;390.321710698868
318.818673983817;389.998331567449
318.840300915375;389.693363565265
318.861927846933;389.374720636999
318.883554778491;389.028416648459
318.905181710049;388.665697888335
318.926808641607;388.3044056393
318.948435573165;387.974469666576
318.970062504723;387.689502364904
318.991689436281;387.442190700364
319.013316367839;387.24850983972
319.034943299397;387.131787674653
319.056570230955;387.09221014466
319.078197162513;387.130138932682
319.09982409407;387.240115571515
319.121451025628;387.408392504411
319.143077957186;387.614810515614
319.164704888744;387.84230263912
319.186331820302;388.077891344331
319.20795875186;388.314261656358
319.229585683418;388.545592046818
319.251212614976;388.748849151463
319.272839546534;388.895219567714
319.294466478092;388.982788186671
319.31609340965;389.008637491746
319.337720341208;388.969424996358
319.359347272766;388.869610828518
319.380974204323;388.715886517098
319.402601135881;388.519525329115
319.424228067439;388.283863549694
319.445854998997;388.010091577009
319.467481930555;387.700607674448
319.489108862113;387.357860909264
319.510735793671;386.977548240979
319.532362725229;386.558794597031
319.553989656787;386.094676627052
319.575616588345;385.569356756098
319.597243519903;384.95239732014
319.618870451461;384.270392142885
319.640497383019;383.543159651493
319.662124314576;382.759461933698
319.683751246134;381.935755106006
319.705378177692;381.110108426061
319.72700510925;380.291430466964
319.748632040808;379.453124377316
319.770258972366;378.582559008788
319.791885903924;377.692258931229
319.813512835482;376.80760686601
319.83513976704;375.950014112067
319.856766698598;375.156732073468
319.878393630156;374.451953769819
319.900020561714;373.823642928643
319.921647493272;373.244999329577
319.94327442483;372.705724733791
319.964901356387;372.208404965791
319.986528287945;371.769441941914
320.008155219503;371.398539874723
320.029782151061;371.09029103444
320.051409082619;370.834199036796
320.073036014177;370.624579153087
320.094662945735;370.46546038335
320.116289877293;370.365653225515
320.137916808851;370.331244735524
320.159543740409;370.365429301307
320.181170671967;370.469777091961
320.202797603525;370.645641076443
320.224424535083;370.897741826547
320.24605146664;371.218951482216
320.267678398198;371.591930918036
320.289305329756;372.001125398287
320.310932261314;372.432279441515
320.332559192872;372.874172662978
320.35418612443;373.315215741693
320.375813055988;373.728449915185
320.397439987546;374.08521983445
320.419066919104;374.35577510461
320.440693850662;374.522049512096
320.46232078222;374.570640078234
320.483947713778;374.481101585839
320.505574645336;374.22827994263
320.527201576893;373.790212674702
320.548828508451;373.181497135436
320.570455440009;372.43120097013
320.592082371567;371.538725903173
320.613709303125;370.49173546472
320.635336234683;369.336410796168
320.656963166241;368.151632971449
320.678590097799;366.962816976274
320.700217029357;365.753527306333
320.721843960915;364.526432494573
320.743470892473;363.319930063341
320.765097824031;362.155764504775
320.786724755589;361.036745205074
320.808351687146;359.973295974141
320.829978618704;358.967463736384
320.851605550262;357.994977724626
320.87323248182;357.024577238035
320.894859413378;356.038874692095
320.916486344936;355.047791829725
320.938113276494;354.061481919597
320.959740208052;353.061708735063
320.98136713961;352.007674180414
321.002994071168;350.885393710965
321.024621002726;349.73585644292
321.046247934284;348.576148889161
321.067874865842;347.38889392474
321.089501797399;346.153483199188
321.111128728957;344.864873190309
321.132755660515;343.517945685412
321.154382592073;342.140582334162
321.176009523631;340.750043965038
321.197636455189;339.328415979089
321.219263386747;337.853786064303
321.240890318305;336.361105916428
321.262517249863;334.933228438131
321.284144181421;333.566208325989
321.305771112979;332.199954473328
321.327398044537;330.823836334867
321.349024976095;329.520572045753
321.370651907652;328.359298893232
321.39227883921;327.338285417328
321.413905770768;326.427475230019
321.435532702326;325.620165715784
321.457159633884;324.929061090751
321.478786565442;324.35484879934
321.500413497;323.872790762244
321.522040428558;323.448333720092
321.543667360116;323.064110462429
321.565294291674;322.721294631434
321.586921223232;322.420835595817
321.60854815479;322.150113459508
321.630175086348;321.9035416922
321.651802017905;321.679521597417
321.673428949463;321.47484295031
321.695055881021;321.282178986567
321.716682812579;321.100913696387
321.738309744137;320.951593379108
321.759936675695;320.849159178683
321.781563607253;320.793827968084
321.803190538811;320.792090968475
321.824817470369;320.847217595938
321.846444401927;320.951976630492
321.868071333485;321.099313931249
321.889698265043;321.278226547177
321.911325196601;321.47786122805
321.932952128158;321.688961901897
321.954579059716;321.904183109531
321.976205991274;322.107782712386
321.997832922832;322.29326176721
322.01945985439;322.453171181464
322.041086785948;322.577213739866
322.062713717506;322.653508387595
322.084340649064;322.676547877683
322.105967580622;322.667275607881
322.12759451218;322.63610802134
322.149221443738;322.575680913553
322.170848375296;322.469550021391
322.192475306854;322.326452119386
322.214102238412;322.160211829646
322.235729169969;321.972014319539
322.257356101527;321.753545612492
322.278983033085;321.506826509045
322.300609964643;321.250173490215
322.322236896201;320.998214496912
322.343863827759;320.758485687556
322.365490759317;320.534961920869
322.387117690875;320.33676053974
322.408744622433;320.166905021128
322.430371553991;320.027551079936
322.451998485549;319.92006708456
322.473625417107;319.844680651418
322.495252348665;319.800734927154
322.516879280222;319.782262880909
322.53850621178;319.774529123925
322.560133143338;319.769756580745
322.581760074896;319.76263136073
322.603387006454;319.739440388834
322.625013938012;319.680284422951
322.64664086957;319.569113689885
322.668267801128;319.392047845569
322.689894732686;319.147981578438
322.711521664244;318.833213364544
322.733148595802;318.438472694377
322.75477552736;317.973333326924
322.776402458918;317.446587449569
322.798029390475;316.867998828427
322.819656322033;316.246168070214
322.841283253591;315.562435423495
322.862910185149;314.840371428896
322.884537116707;314.141157088595
322.906164048265;313.466647343205
322.927790979823;312.793488790564
322.949417911381;312.111022378081
322.971044842939;311.446602715185
322.992671774497;310.830414380015
323.014298706055;310.264487248928
323.035925637613;309.736712801048
323.057552569171;309.230156654107
323.079179500728;308.750638600049
323.100806432286;308.313331012659
323.122433363844;307.9217990384
323.144060295402;307.571451268527
323.16568722696;307.256186147728
323.187314158518;306.975228906604
323.208941090076;306.726453568206
323.230568021634;306.512188459083
323.252194953192;306.342420242536
323.27382188475;306.21416499332
323.295448816308;306.109880843834
323.317075747866;306.015716223186
323.338702679424;305.927061229492
323.360329610981;305.841490657549
323.381956542539;305.753350179382
323.403583474097;305.653057892943
323.425210405655;305.534989849349
323.446837337213;305.406146109432
323.468464268771;305.270664222821
323.490091200329;305.123393272871
323.511718131887;304.960352594011
323.533345063445;304.787542552907
323.554971995003;304.603939684552
323.576598926561;304.402799413393
323.598225858119;304.19574006625
323.619852789677;303.992364589889
323.641479721234;303.789722827889
323.663106652792;303.581899937824
323.68473358435;303.366805148827
323.706360515908;303.128121949617
323.727987447466;302.854473977219
323.749614379024;302.533198674388
323.771241310582;302.147676185954
323.79286824214;301.717508352048
323.814495173698;301.24654251322
323.836122105256;300.736903711971
323.857749036814;300.193002639265
323.879375968372;299.599592017507
323.90100289993;298.934065557722
323.922629831487;298.215374853524
323.944256763045;297.478815967447
323.965883694603;296.726728128962
323.987510626161;295.925869324004
324.009137557719;295.053650106095
324.030764489277;294.113123466927
324.052391420835;293.135912438505
324.074018352393;292.146458656749
324.095645283951;291.16854581774
324.117272215509;290.224789679477
324.138899147067;289.301410301863
324.160526078625;288.376768387452
324.182153010183;287.427680541906
324.20377994174;286.431333959492
324.225406873298;285.406263771482
324.247033804856;284.383898140672
324.268660736414;283.378633887741
324.290287667972;282.390640405754
324.31191459953;281.411827717077
324.333541531088;280.433762519257
324.355168462646;279.464550173991
324.376795394204;278.514705555211
324.398422325762;277.58553997721
324.42004925732;276.669023847896
324.441676188878;275.745663234391
324.463303120436;274.805553624535
324.484930051994;273.826925735048
324.506556983551;272.782614175542
324.528183915109;271.730055875409
324.549810846667;270.710108044671
324.571437778225;269.68515138217
324.593064709783;268.564530120899
324.614691641341;267.284993532111
324.636318572899;265.988274436592
324.657945504457;264.691590410574
324.679572436015;263.392410573677
324.701199367573;262.09971078158
324.722826299131;260.819032171995
324.744453230689;259.565920385465
324.766080162247;258.357205030786
324.787707093804;257.188383518969
