Name;ESR_BC_1_Natural_gon_160dg_result

Recipe
Accumulations;5;Number of accumulations
RetryCount;0;Number of retries on error
AbortOnError;True;Abort on error
EnableQFactorMeasurement;False;Enable/Disable q-Factor measurement
Bfrom;313;B from
Bto;363;B to
SweepTime;60;Sweep time
Modulation;0.2;Modulation
ModulationFreq;100;Modulation
BHoldEnabled;False;B hold enabled
BHold;0;B hold
MicrowavePower;2;Microwave power
MarkerEnabled;False;
MarkerStartField;0;
MarkerEndField;0;
Mode;;
KineticGFact;0;
KineticTotalTransientTime;0;
KineticTimeResolution;0;
TempFrom;5;
TempUseSlope;False;
TempTo;5;
TempdT;1;
TempSetupTime;0;
GonFrom;0;
GonTo;180;
GonSteps;20;
XRayEnabled;False;
XRayTime;3;
XRayVoltage;40;
XRayCurrent;0.5;
UVEnabled;False;
UVIntensity;0;
UVTime;0;
UVLeadTime;0;
UVWavelength;0;
PowSweepFrom;1;
PowSweepTo;5;
PowSweepSteps;5;
AmpModSweepFrom;0;
AmpModSweepTo;1;
AmpModSweepSteps;10;
ExtTriggerEnabled;False;
ExtTrigLeadTime;0;
ExtTrigOnTime;5;

Meas
BField [mT];MW_Absorption []
313.022824249268;602.329184111904
313.044448000194;601.060200895912
313.06607175112;599.739120449064
313.087695502046;598.390798405065
313.109319252972;597.008301125857
313.130943003898;595.587447676043
313.152566754824;594.119504971218
313.17419050575;592.63307634504
313.195814256676;591.157426213622
313.217438007602;589.674635261703
313.239061758529;588.154387012008
313.260685509455;586.56527596301
313.282309260381;584.939427819237
313.303933011307;583.400639983946
313.325556762233;581.960056807968
313.347180513159;580.554157634174
313.368804264085;579.17387099826
313.390428015011;577.827457845421
313.412051765937;576.54287542917
313.433675516863;575.375563304088
313.455299267789;574.338920622449
313.476923018716;573.402848091479
313.498546769642;572.534074233144
313.520170520568;571.740302880207
313.541794271494;571.021588861859
313.56341802242;570.348541067153
313.585041773346;569.712357405507
313.606665524272;569.108470102087
313.628289275198;568.514737891263
313.649913026124;567.921036580535
313.67153677705;567.30621807888
313.693160527977;566.629749136704
313.714784278903;565.842357353631
313.736408029829;564.967559852377
313.758031780755;564.031230235068
313.779655531681;563.022429629182
313.801279282607;561.959849632235
313.822903033533;560.867367999518
313.844526784459;559.747301145194
313.866150535385;558.603032847502
313.887774286311;557.454497450693
313.909398037238;556.310141240538
313.931021788164;555.196124975812
313.95264553909;554.134272081297
313.974269290016;553.094280650087
313.995893040942;552.033039980172
314.017516791868;551.003713690229
314.039140542794;550.085854888757
314.06076429372;549.238624843366
314.082388044646;548.406874034708
314.104011795572;547.565038536964
314.125635546498;546.727119532483
314.147259297425;545.900150716918
314.168883048351;545.075693362143
314.190506799277;544.243156319228
314.212130550203;543.394848854766
314.233754301129;542.526594042091
314.255378052055;541.650950838124
314.277001802981;540.776653484821
314.298625553907;539.919504938931
314.320249304833;539.090298794534
314.341873055759;538.290309058031
314.363496806686;537.539675300512
314.385120557612;536.841220063333
314.406744308538;536.173236716272
314.428368059464;535.507659132638
314.44999181039;534.858312631353
314.471615561316;534.245807428186
314.493239312242;533.671195571265
314.514863063168;533.130423848572
314.536486814094;532.638681868274
314.55811056502;532.200340179904
314.579734315947;531.803907771702
314.601358066873;531.417091621267
314.622981817799;531.024751362558
314.644605568725;530.635169576622
314.666229319651;530.260989640343
314.687853070577;529.891714982245
314.709476821503;529.508233139794
314.731100572429;529.11257647325
314.752724323355;528.701873337525
314.774348074281;528.261986990486
314.795971825207;527.809520022352
314.817595576134;527.343494854371
314.83921932706;526.848606471034
314.860843077986;526.329732529601
314.882466828912;525.806784344971
314.904090579838;525.276773396965
314.925714330764;524.741402044404
314.94733808169;524.227404765897
314.968961832616;523.743300142917
314.990585583542;523.249971996932
315.012209334468;522.719376018245
315.033833085395;522.175207615423
315.055456836321;521.637043488328
315.077080587247;521.100311737823
315.098704338173;520.561953769269
315.120328089099;520.023562114221
315.141951840025;519.483503523804
315.163575590951;518.947706740869
315.185199341877;518.41011485878
315.206823092803;517.865235405388
315.228446843729;517.316031412988
315.250070594655;516.778906996169
315.271694345582;516.264329124654
315.293318096508;515.766287953619
315.314941847434;515.288657031098
315.33656559836;514.849565526803
315.358189349286;514.45293020596
315.379813100212;514.089548384889
315.401436851138;513.754485760025
315.423060602064;513.447454558721
315.44468435299;513.161597592877
315.466308103916;512.889960285921
315.487931854843;512.622793865464
315.509555605769;512.340620094286
315.531179356695;512.029734574445
315.552803107621;511.68183039174
315.574426858547;511.283613694084
315.596050609473;510.815932964112
315.617674360399;510.286440095452
315.639298111325;509.711588459928
315.660921862251;509.085827056459
315.682545613177;508.411944642684
315.704169364104;507.693007090656
315.72579311503;506.925261629511
315.747416865956;506.110761870104
315.769040616882;505.251369448763
315.790664367808;504.334219086348
315.812288118734;503.375787847685
315.83391186966;502.415662310251
315.855535620586;501.474558627454
315.877159371512;500.515725765769
315.898783122438;499.506433663106
315.920406873364;498.445241569611
315.942030624291;497.367815850913
315.963654375217;496.311483291381
315.985278126143;495.284898278108
316.006901877069;494.280879873129
316.028525627995;493.287582182249
316.050149378921;492.295066651876
316.071773129847;491.307063118569
316.093396880773;490.351991529128
316.115020631699;489.475798220722
316.136644382625;488.697806579099
316.158268133552;488.007430787689
316.179891884478;487.381859421729
316.201515635404;486.799900118062
316.22313938633;486.247095807036
316.244763137256;485.731081117343
316.266386888182;485.254235676313
316.288010639108;484.805264574597
316.309634390034;484.370385025347
316.33125814096;483.934695899772
316.352881891886;483.488513648798
316.374505642812;483.035112232804
316.396129393739;482.581748869044
316.417753144665;482.130084665878
316.439376895591;481.694720346953
316.461000646517;481.294015750933
316.482624397443;480.929927922017
316.504248148369;480.599878282251
316.525871899295;480.310659853088
316.547495650221;480.083089744812
316.569119401147;479.931914744259
316.590743152073;479.849553281571
316.612366903;479.837074850015
316.633990653926;479.893975656547
316.655614404852;480.00837402595
316.677238155778;480.17124079549
316.698861906704;480.37339949163
316.72048565763;480.600267212654
316.742109408556;480.838194651588
316.763733159482;481.077190165773
316.785356910408;481.308055964952
316.806980661334;481.516020225251
316.828604412261;481.680739756158
316.850228163187;481.798373181236
316.871851914113;481.876510925842
316.893475665039;481.919589697936
316.915099415965;481.934278294197
316.936723166891;481.917359438294
316.958346917817;481.856586235461
316.979970668743;481.769966422479
317.001594419669;481.669830310338
317.023218170595;481.552117580747
317.044841921521;481.407766600303
317.066465672448;481.231857351311
317.088089423374;481.032641080094
317.1097131743;480.821148125369
317.131336925226;480.586103537136
317.152960676152;480.316948223764
317.174584427078;480.011706309271
317.196208178004;479.666074704848
317.21783192893;479.271881794576
317.239455679856;478.825111091523
317.261079430782;478.325486826948
317.282703181708;477.775234752714
317.304326932635;477.175966208589
317.325950683561;476.526495403811
317.347574434487;475.840389728611
317.369198185413;475.124047772526
317.390821936339;474.370445437459
317.412445687265;473.595719298354
317.434069438191;472.816011355194
317.455693189117;472.021060360063
317.477316940043;471.18520364064
317.498940690969;470.298610673597
317.520564441896;469.382594447789
317.542188192822;468.452574586612
317.563811943748;467.496818744565
317.585435694674;466.491327311132
317.6070594456;465.427387746496
317.628683196526;464.337420570664
317.650306947452;463.264384688691
317.671930698378;462.216190906464
317.693554449304;461.176912074223
317.71517820023;460.114093670079
317.736801951157;459.023041087902
317.758425702083;457.939288121793
317.780049453009;456.894395163573
317.801673203935;455.90533892542
317.823296954861;454.969234149695
317.844920705787;454.102406864429
317.866544456713;453.334338128875
317.888168207639;452.662675611366
317.909791958565;452.06628739467
317.931415709491;451.528898064924
317.953039460417;451.057673825767
317.974663211344;450.654996042048
317.99628696227;450.322324165164
318.017910713196;450.047658825246
318.039534464122;449.813827115953
318.061158215048;449.608674995441
318.082781965974;449.427902338057
318.1044057169;449.26505633252
318.126029467826;449.119052397425
318.147653218752;448.987062228349
318.169276969678;448.858961588846
318.190900720605;448.728323828313
318.212524471531;448.59321811123
318.234148222457;448.453703745628
318.255771973383;448.307885601397
318.277395724309;448.148801838896
318.299019475235;447.975132681828
318.320643226161;447.798432005354
318.342266977087;447.618533016314
318.363890728013;447.418085947481
318.385514478939;447.182918422562
318.407138229866;446.913478000123
318.428761980792;446.631758893987
318.450385731718;446.333462445423
318.472009482644;445.993611717116
318.49363323357;445.610824008896
318.515256984496;445.186132918266
318.536880735422;444.726078273976
318.558504486348;444.228999718689
318.580128237274;443.669319721826
318.6017519882;443.042943074978
318.623375739126;442.391784709263
318.644999490053;441.733406605604
318.666623240979;441.054333212067
318.688246991905;440.338849516959
318.709870742831;439.586765514427
318.731494493757;438.820062076426
318.753118244683;438.060267832651
318.774741995609;437.313232935552
318.796365746535;436.590914559643
318.817989497461;435.907115290525
318.839613248387;435.270883248887
318.861236999314;434.673152123487
318.88286075024;434.096497135503
318.904484501166;433.541313076266
318.926108252092;433.016332671061
318.947732003018;432.518332228787
318.969355753944;432.021633590854
318.99097950487;431.520154937261
319.012603255796;431.035793243831
319.034227006722;430.575172229833
319.055850757648;430.120604955402
319.077474508574;429.656924730988
319.099098259501;429.178831874732
319.120722010427;428.685853562569
319.142345761353;428.196123085604
319.163969512279;427.715802223604
319.185593263205;427.236984968464
319.207217014131;426.749973491237
319.228840765057;426.249743946434
319.250464515983;425.747793588449
319.272088266909;425.265118415913
319.293712017835;424.823513392798
319.315335768762;424.428762424783
319.336959519688;424.080943898334
319.358583270614;423.778034714959
319.38020702154;423.519023884358
319.401830772466;423.296139148048
319.423454523392;423.094816649888
319.445078274318;422.903145337457
319.466702025244;422.715239463992
319.48832577617;422.528743151823
319.509949527096;422.339056129884
319.531573278023;422.144447935769
319.553197028949;421.948670811616
319.574820779875;421.74918853974
319.596444530801;421.543600596367
319.618068281727;421.336942599445
319.639692032653;421.141097034875
319.661315783579;420.949013271163
319.682939534505;420.741539767228
319.704563285431;420.501953194259
319.726187036357;420.219244570355
319.747810787283;419.890589182843
319.76943453821;419.51717376187
319.791058289136;419.094564115738
319.812682040062;418.624208385306
319.834305790988;418.110929974926
319.855929541914;417.562604729979
319.87755329284;416.98943250962
319.899177043766;416.404831460344
319.920800794692;415.820404609255
319.942424545618;415.242940631205
319.964048296544;414.686335814318
319.985672047471;414.183027422373
320.007295798397;413.757075992707
320.028919549323;413.412041396981
320.050543300249;413.143681148634
320.072167051175;412.949371545843
320.093790802101;412.82269660415
320.115414553027;412.756748918962
320.137038303953;412.758320145625
320.158662054879;412.829292726873
320.180285805805;412.946683105851
320.201909556731;413.082020183558
320.223533307658;413.220412580164
320.245157058584;413.359712713737
320.26678080951;413.487842584957
320.288404560436;413.579962925671
320.310028311362;413.607528035995
320.331652062288;413.545807156861
320.353275813214;413.365279451166
320.37489956414;413.03084858657
320.396523315066;412.520069098442
320.418147065992;411.831823476056
320.439770816919;410.967152520265
320.461394567845;409.892578896035
320.483018318771;408.554572585221
320.504642069697;406.995978464058
320.526265820623;405.318683554074
320.547889571549;403.564662823094
320.569513322475;401.73305760913
320.591137073401;399.840712867194
320.612760824327;397.949852067846
320.634384575253;396.126377800015
320.65600832618;394.363369878936
320.677632077106;392.762031206701
320.699255828032;391.362203097417
320.720879578958;390.119985936603
320.742503329884;389.022654094796
320.76412708081;388.098700083904
320.785750831736;387.34027085578
320.807374582662;386.731520100579
320.828998333588;386.22435860071
320.850622084514;385.772094087028
320.87224583544;385.342346479212
320.893869586367;384.915222917106
320.915493337293;384.464461154718
320.937117088219;383.953601489707
320.958740839145;383.364701491457
320.980364590071;382.682521100038
321.001988340997;381.867702759845
321.023612091923;380.884190176185
321.045235842849;379.765783548271
321.066859593775;378.580800706255
321.088483344701;377.336362203314
321.110107095628;376.005432610365
321.131730846554;374.609167174888
321.15335459748;373.189295033082
321.174978348406;371.74812980157
321.196602099332;370.30069461289
321.218225850258;368.870992073394
321.239849601184;367.467324368918
321.26147335211;366.123891398519
321.283097103036;364.873208391366
321.304720853962;363.724133252237
321.326344604889;362.696025834918
321.347968355815;361.782460057566
321.369592106741;360.97981441951
321.391215857667;360.303663783483
321.412839608593;359.746001264198
321.434463359519;359.30124009098
321.456087110445;358.970392816233
321.477710861371;358.743637114997
321.499334612297;358.610008247613
321.520958363223;358.543611955275
321.542582114149;358.533366579808
321.564205865076;358.577708081908
321.585829616002;358.693434788884
321.607453366928;358.861019031214
321.629077117854;359.046138900316
321.65070086878;359.24391327144
321.672324619706;359.460493978694
321.693948370632;359.690355765025
321.715572121558;359.934763160381
321.737195872484;360.193231351983
321.75881962341;360.4566995204
321.780443374337;360.714428073905
321.802067125263;360.965555778544
321.823690876189;361.211647890997
321.845314627115;361.445729018637
321.866938378041;361.638995587633
321.888562128967;361.778998896548
321.910185879893;361.861693499749
321.931809630819;361.870397602415
321.953433381745;361.797570171136
321.975057132671;361.651255544977
321.996680883597;361.443434557319
322.018304634524;361.184571241032
322.03992838545;360.892080587567
322.061552136376;360.582529053046
322.083175887302;360.254309719106
322.104799638228;359.902753768272
322.126423389154;359.548539878297
322.14804714008;359.213094275168
322.169670891006;358.898512107527
322.191294641932;358.599356297525
322.212918392858;358.302059510267
322.234542143785;357.997713257972
322.256165894711;357.680824642666
322.277789645637;357.352701353915
322.299413396563;357.013923317328
322.321037147489;356.631760157314
322.342660898415;356.173731828992
322.364284649341;355.649227803684
322.385908400267;355.102240443681
322.407532151193;354.549114865462
322.429155902119;353.984958921002
322.450779653046;353.400204523947
322.472403403972;352.791415443848
322.494027154898;352.166091367855
322.515650905824;351.53853338376
322.53727465675;350.927038224308
322.558898407676;350.336969294179
322.580522158602;349.757420143703
322.602145909528;349.197125739255
322.623769660454;348.658763340099
322.64539341138;348.137201125118
322.667017162306;347.639021445729
322.688640913233;347.150556209478
322.710264664159;346.653893575861
322.731888415085;346.121451127667
322.753512166011;345.523081003576
322.775135916937;344.886621558564
322.796759667863;344.237778725187
322.818383418789;343.56994928097
322.840007169715;342.856366724008
322.861630920641;342.129704782411
322.883254671567;341.428425518586
322.904878422494;340.749419610504
322.92650217342;340.069262179266
322.948125924346;339.391029411412
322.969749675272;338.735911057182
322.991373426198;338.12312260139
323.012997177124;337.554474390188
323.03462092805;337.017691364595
323.056244678976;336.502378010177
323.077868429902;335.990526304714
323.099492180828;335.4630607659
323.121115931755;334.914740539696
323.142739682681;334.361023575771
323.164363433607;333.787242253041
323.185987184533;333.162117156539
323.207610935459;332.459245835511
323.229234686385;331.680409129161
323.250858437311;330.839999200078
323.272482188237;329.933246395835
323.294105939163;328.961625920097
323.315729690089;327.972281019596
323.337353441015;326.97787541108
323.358977191942;325.9672334935
323.380600942868;324.954686422257
323.402224693794;323.938409215998
323.42384844472;322.895510193115
323.445472195646;321.837661211425
323.467095946572;320.803439610286
323.488719697498;319.79580878955
323.510343448424;318.784144288282
323.53196719935;317.757201813169
323.553590950276;316.74260653913
323.575214701203;315.762115320117
323.596838452129;314.794547864219
323.618462203055;313.833775724843
323.640085953981;312.88952190669
323.661709704907;311.965329222727
323.683333455833;311.094704147298
323.704957206759;310.309840384315
323.726580957685;309.605121414426
323.748204708611;308.972356183653
323.769828459537;308.414969483807
323.791452210463;307.933049291727
323.81307596139;307.527432455278
323.834699712316;307.188626264854
323.856323463242;306.884895723224
323.877947214168;306.598397701122
323.899570965094;306.318828300141
323.92119471602;306.033250540186
323.942818466946;305.7343399938
323.964442217872;305.401082719486
323.986065968798;305.006345495334
324.007689719724;304.532987555941
324.029313470651;303.990189598227
324.050937221577;303.376197303797
324.072560972503;302.682847525745
324.094184723429;301.908460608126
324.115808474355;301.043355064014
324.137432225281;300.102657639285
324.159055976207;299.117512234314
324.180679727133;298.089960967829
324.202303478059;296.989085075869
324.223927228985;295.829343502908
324.245550979912;294.670043412957
324.267174730838;293.53228972012
324.288798481764;292.385554390581
324.31042223269;291.204530342678
324.332045983616;290.048943864057
324.353669734542;288.964356818797
324.375293485468;287.940459338508
324.396917236394;286.941872457732
324.41854098732;285.938999784888
324.440164738246;284.919633894465
324.461788489172;283.858052371483
324.483412240099;282.727876980927
324.505035991025;281.561067041227
324.526659741951;280.347049499684
324.548283492877;279.027023287331
324.569907243803;277.588164602281
324.591530994729;276.101745311957
324.613154745655;274.594624001328
324.634778496581;273.054812985108
324.656402247507;271.460648265312
324.678025998433;269.807811834892
324.69964974936;268.130903795159
324.721273500286;266.501443776757
324.742897251212;264.9584055963
324.764521002138;263.488895177528
