Name;ESR_BC_1_359s_Y_gon_160dg_3

Recipe
Accumulations;5;Number of accumulations
RetryCount;0;Number of retries on error
AbortOnError;True;Abort on error
EnableQFactorMeasurement;False;Enable/Disable q-Factor measurement
Bfrom;313;B from
Bto;363;B to
SweepTime;60;Sweep time
Modulation;0.2;Modulation
ModulationFreq;100;Modulation
BHoldEnabled;False;B hold enabled
BHold;0;B hold
MicrowavePower;2;Microwave power
MarkerEnabled;False;
MarkerStartField;0;
MarkerEndField;0;
Mode;;
KineticGFact;0;
KineticTotalTransientTime;0;
KineticTimeResolution;0;
TempFrom;5;
TempUseSlope;False;
TempTo;5;
TempdT;1;
TempSetupTime;0;
GonFrom;0;
GonTo;180;
GonSteps;20;
XRayEnabled;False;
XRayTime;3;
XRayVoltage;40;
XRayCurrent;0.5;
UVEnabled;False;
UVIntensity;0;
UVTime;0;
UVLeadTime;0;
UVWavelength;0;
PowSweepFrom;1;
PowSweepTo;5;
PowSweepSteps;5;
AmpModSweepFrom;0;
AmpModSweepTo;1;
AmpModSweepSteps;10;
ExtTriggerEnabled;False;
ExtTrigLeadTime;0;
ExtTrigOnTime;5;

Meas
BField [mT];MW_Absorption []
313.025360488892;178.677888150383
313.046979402319;178.021702695334
313.068598315747;177.344470917037
313.090217229174;176.654155155519
313.111836142602;175.936511482203
313.13345505603;175.149029285287
313.155073969457;174.300498127407
313.176692882885;173.437511499935
313.198311796312;172.591367065056
313.21993070974;171.758034168356
313.241549623167;170.900271056145
313.263168536595;169.978492250313
313.284787450023;168.991267147277
313.30640636345;167.955370640642
313.328025276878;166.854212143002
313.349644190305;165.644836904462
313.371263103733;164.314000088787
313.39288201716;163.006814579305
313.414500930588;161.949312886827
313.436119844016;161.084717491666
313.457738757443;160.359776159157
313.479357670871;159.773034266396
313.500976584298;159.34437009973
313.522595497726;159.075515949571
313.544214411153;158.951569174469
313.565833324581;158.929808285702
313.587452238009;158.974386046779
313.609071151436;159.066341251394
313.630690064864;159.196036019554
313.652308978291;159.336492013165
313.673927891719;159.471475985965
313.695546805146;159.589823652953
313.717165718574;159.686201963543
313.738784632002;159.77297339592
313.760403545429;159.866634359139
313.782022458857;159.978708316845
313.803641372284;160.116197527656
313.825260285712;160.284504524232
313.846879199139;160.475372019628
313.868498112567;160.670478722435
313.890117025995;160.861517424944
313.911735939422;161.054527676931
313.93335485285;161.257317144685
313.954973766277;161.411251258434
313.976592679705;161.461181274284
313.998211593133;161.407847976976
314.01983050656;161.276314837802
314.041449419988;161.086577156788
314.063068333415;160.852110031313
314.084687246843;160.582635230154
314.10630616027;160.277342783202
314.127925073698;159.95644904178
314.149543987126;159.681451722084
314.171162900553;159.469077863715
314.192781813981;159.310930243865
314.214400727408;159.219294943311
314.236019640836;159.194159554382
314.257638554263;159.212930478304
314.279257467691;159.258807058822
314.300876381119;159.316266983152
314.322495294546;159.35788145687
314.344114207974;159.352023393944
314.365733121401;159.277954891499
314.387352034829;159.124886519569
314.408970948256;158.893848444228
314.430589861684;158.592828408859
314.452208775112;158.222137271718
314.473827688539;157.782452072038
314.495446601967;157.30107965229
314.517065515394;156.818283519788
314.538684428822;156.346367333913
314.56030334225;155.906894543518
314.581922255677;155.550246599784
314.603541169105;155.299318033751
314.625160082532;155.137854849166
314.64677899596;155.068502135061
314.668397909387;155.104694067585
314.690016822815;155.223776227456
314.711635736243;155.38974591389
314.73325464967;155.571387485195
314.754873563098;155.752709933204
314.776492476525;155.924117887452
314.798111389953;156.068966331992
314.81973030338;156.172545524405
314.841349216808;156.213760349718
314.862968130236;156.194098027004
314.884587043663;156.133089226202
314.906205957091;156.054306886979
314.927824870518;155.97878866945
314.949443783946;155.925415702101
314.971062697373;155.905246743632
314.992681610801;155.93222429243
315.014300524229;156.015707993003
315.035919437656;156.151228481322
315.057538351084;156.333761161689
315.079157264511;156.554336973524
315.100776177939;156.793521667323
315.122395091367;157.027248099031
315.144014004794;157.231861278005
315.165632918222;157.397945703957
315.187251831649;157.516200861249
315.208870745077;157.576789571986
315.230489658504;157.573939148735
315.252108571932;157.502413925231
315.27372748536;157.375923552021
315.295346398787;157.210824085711
315.316965312215;157.014615095373
315.338584225642;156.805441985203
315.36020313907;156.595915995176
315.381822052497;156.389126278112
315.403440965925;156.187979525051
315.425059879353;155.992873248055
315.44667879278;155.791697405666
315.468297706208;155.575523216134
315.489916619635;155.34671041281
315.511535533063;155.104898351295
315.53315444649;154.844228854513
315.554773359918;154.55363079425
315.576392273346;154.247956560455
315.598011186773;153.940978628925
315.619630100201;153.612749459412
315.641249013628;153.250237326043
315.662867927056;152.839988410747
315.684486840483;152.394230040584
315.706105753911;151.968112466251
315.727724667339;151.616522536461
315.749343580766;151.33795550134
315.770962494194;151.111248676084
315.792581407621;150.923970188211
315.814200321049;150.771660428692
315.835819234477;150.666179427243
315.857438147904;150.619435000788
315.879057061332;150.637445256549
315.900675974759;150.725641105202
315.922294888187;150.873750306366
315.943913801614;151.06412310389
315.965532715042;151.294528598921
315.98715162847;151.574783488591
316.008770541897;151.921636078474
316.030389455325;152.355862655241
316.052008368752;152.852947175124
316.07362728218;153.349076070048
316.095246195607;153.8120748154
316.116865109035;154.247329092748
316.138484022463;154.659029301853
316.16010293589;155.04179795765
316.181721849318;155.374680051656
316.203340762745;155.626296865535
316.224959676173;155.778957818813
316.2465785896;155.855688604792
316.268197503028;155.872125324648
316.289816416456;155.842604935926
316.311435329883;155.783156129391
316.333054243311;155.698234417427
316.354673156738;155.582489415751
316.376292070166;155.425425289675
316.397910983593;155.230384466849
316.419529897021;155.017386486274
316.441148810449;154.801672938858
316.462767723876;154.573366920696
316.484386637304;154.320735605304
316.506005550731;154.02841105864
316.527624464159;153.690600576338
316.549243377586;153.297320538199
316.570862291014;152.825471460169
316.592481204442;152.277570640327
316.614100117869;151.689500881428
316.635719031297;151.088103496311
316.657337944724;150.469163964727
316.678956858152;149.825603560351
316.70057577158;149.188793289881
316.722194685007;148.594943509438
316.743813598435;148.034809137436
316.765432511862;147.501935676085
316.78705142529;147.032192293824
316.808670338717;146.644204299937
316.830289252145;146.319507896067
316.851908165573;146.032723035994
316.873527079;145.772397176033
316.895145992428;145.53222520422
316.916764905855;145.300449504934
316.938383819283;145.065781156164
316.96000273271;144.830913558559
316.981621646138;144.588076636589
317.003240559566;144.330291911666
317.024859472993;144.038670327811
317.046478386421;143.713109980962
317.068097299848;143.375064071073
317.089716213276;143.037716352009
317.111335126703;142.710252451114
317.132954040131;142.429119407988
317.154572953559;142.209285770301
317.176191866986;142.043020605994
317.197810780414;141.92145049017
317.219429693841;141.841171617058
317.241048607269;141.800411425769
317.262667520696;141.791190910752
317.284286434124;141.800405041257
317.305905347552;141.820526612089
317.327524260979;141.844633734535
317.349143174407;141.862724138703
317.370762087834;141.8653185574
317.392381001262;141.842478410075
317.41399991469;141.785145110281
317.435618828117;141.693321901362
317.457237741545;141.57122837084
317.478856654972;141.418626035184
317.5004755684;141.240356404175
317.522094481827;141.046809212498
317.543713395255;140.842249907468
317.565332308683;140.630918333684
317.58695122211;140.431191049023
317.608570135538;140.255507017406
317.630189048965;140.100956438439
317.651807962393;139.964997421232
317.67342687582;139.854122631286
317.695045789248;139.778658468992
317.716664702676;139.734793136098
317.738283616103;139.71316292881
317.759902529531;139.705499093381
317.781521442958;139.702121256157
317.803140356386;139.695448434542
317.824759269813;139.678338056215
317.846378183241;139.645541426544
317.867997096669;139.592438250916
317.889616010096;139.516781099019
317.911234923524;139.419253182967
317.932853836951;139.302521868907
317.954472750379;139.164617074593
317.976091663806;139.002525190643
317.997710577234;138.827348610279
318.019329490662;138.64246541784
318.040948404089;138.452603599242
318.062567317517;138.259716106409
318.084186230944;138.069147441772
318.105805144372;137.886572739957
318.1274240578;137.708740644093
318.149042971227;137.526058909084
318.170661884655;137.338547151653
318.192280798082;137.165447366915
318.21389971151;137.02489201124
318.235518624937;136.912032969644
318.257137538365;136.82021324917
318.278756451793;136.748550488072
318.30037536522;136.702862437687
318.321994278648;136.674200741503
318.343613192075;136.65305479693
318.365232105503;136.628423383076
318.38685101893;136.593200378325
318.408469932358;136.537435693096
318.430088845786;136.445815725739
318.451707759213;136.286148622382
318.473326672641;136.041632657173
318.494945586068;135.748395717104
318.516564499496;135.418928229851
318.538183412923;135.044343294869
318.559802326351;134.607001151669
318.581421239779;134.110534325235
318.603040153206;133.568142036566
318.624659066634;132.972856996244
318.646277980061;132.336149554987
318.667896893489;131.712346848812
318.689515806917;131.119276013372
318.711134720344;130.533949467285
318.732753633772;129.958841032625
318.754372547199;129.412684881849
318.775991460627;128.905872860225
318.797610374054;128.495731078834
318.819229287482;128.216524182189
318.84084820091;128.033235932876
318.862467114337;127.936622593674
318.884086027765;127.93307536334
318.905704941192;128.017870928029
318.92732385462;128.168330826143
318.948942768047;128.380772539498
318.970561681475;128.652289965157
318.992180594903;128.985096096596
319.01379950833;129.359281949354
319.035418421758;129.742257215473
319.057037335185;130.114997935018
319.078656248613;130.488940385872
319.10027516204;130.847363727706
319.121894075468;131.137608491633
319.143512988896;131.336559704142
319.165131902323;131.457046773971
319.186750815751;131.51274562246
319.208369729178;131.510343035717
319.229988642606;131.459877282481
319.251607556033;131.382172334641
319.273226469461;131.287014589962
319.294845382889;131.191619983105
319.316464296316;131.111405901948
319.338083209744;131.04322506407
319.359702123171;130.974888573214
319.381321036599;130.891411129813
319.402939950027;130.78110890131
319.424558863454;130.623726386031
319.446177776882;130.397827500268
319.467796690309;130.105452966584
319.489415603737;129.750569445559
319.511034517164;129.308511894165
319.532653430592;128.743445521074
319.55427234402;128.086970100291
319.575891257447;127.420796366097
319.597510170875;126.775557088285
319.619129084302;126.142707476262
319.64074799773;125.539167785019
319.662366911157;124.9978420614
319.683985824585;124.538086790836
319.705604738013;124.185189073177
319.72722365144;123.952635820622
319.748842564868;123.836878777589
319.770461478295;123.82650898196
319.792080391723;123.908186026921
319.81369930515;124.05541820355
319.835318218578;124.242327136168
319.856937132006;124.451622358152
319.878556045433;124.663524324551
319.900174958861;124.865590776041
319.921793872288;125.031924660655
319.943412785716;125.136198027514
319.965031699143;125.17364422466
319.986650612571;125.138844657411
320.008269525999;125.020549620526
320.029888439426;124.835348722708
320.051507352854;124.616630567491
320.073126266281;124.363325664041
320.094745179709;124.057843601484
320.116364093137;123.703376866382
320.137983006564;123.305601968802
320.159601919992;122.875753934045
320.181220833419;122.452059738162
320.202839746847;122.065937936592
320.224458660274;121.741075953276
320.246077573702;121.479731421529
320.26769648713;121.266118436136
320.289315400557;121.0875772462
320.310934313985;120.939461171288
320.332553227412;120.825361751013
320.35417214084;120.748075552844
320.375791054267;120.699411377546
320.397409967695;120.666603873889
320.419028881123;120.639299977704
320.44064779455;120.60308435262
320.462266707978;120.549630641743
320.483885621405;120.475521001603
320.505504534833;120.398398337176
320.52712344826;120.332062471474
320.548742361688;120.280243811837
320.570361275116;120.249367232797
320.591980188543;120.246992106277
320.613599101971;120.292927456443
320.635218015398;120.40717037985
320.656836928826;120.569337632311
320.678455842253;120.768464503643
320.700074755681;121.00608392096
320.721693669109;121.279010848444
320.743312582536;121.580412309719
320.764931495964;121.894432364903
320.786550409391;122.19681727421
320.808169322819;122.48113073129
320.829788236246;122.756113402391
320.851407149674;123.013978122532
320.873026063102;123.231964043507
320.894644976529;123.414203844885
320.916263889957;123.567937567239
320.937882803384;123.706489453783
320.959501716812;123.83712530439
320.98112063024;123.959228534235
321.002739543667;124.066914216956
321.024358457095;124.144942935472
321.045977370522;124.173244846243
321.06759628395;124.14057423075
321.089215197377;124.052864408017
321.110834110805;123.9006799981
321.132453024233;123.667805001918
321.15407193766;123.347801659342
321.175690851088;122.961491226217
321.197309764515;122.531884708533
321.218928677943;122.056642906551
321.24054759137;121.536348789113
321.262166504798;120.994393366346
321.283785418226;120.468258888766
321.305404331653;119.977291555473
321.327023245081;119.528673659754
321.348642158508;119.1317243659
321.370261071936;118.773168176211
321.391879985363;118.450723716604
321.413498898791;118.179517529073
321.435117812219;117.961726980444
321.456736725646;117.786704609156
321.478355639074;117.651875690435
321.499974552501;117.567811333688
321.521593465929;117.52117740962
321.543212379357;117.491006752475
321.564831292784;117.47047118719
321.586450206212;117.450792144221
321.608069119639;117.426455525492
321.629688033067;117.392423220438
321.651306946494;117.344346601923
321.672925859922;117.275020509281
321.69454477335;117.187051528607
321.716163686777;117.07543902406
321.737782600205;116.941108911966
321.759401513632;116.787061098845
321.78102042706;116.621426772131
321.802639340487;116.451907688059
321.824258253915;116.274888602402
321.845877167343;116.089448848275
321.86749608077;115.914357950545
321.889114994198;115.757562078521
321.910733907625;115.608006633441
321.932352821053;115.45885531742
321.95397173448;115.302259459701
321.975590647908;115.129815551811
321.997209561336;114.936918912214
322.018828474763;114.722555681434
322.040447388191;114.476011184363
322.062066301618;114.187395552739
322.083685215046;113.855029541791
322.105304128473;113.48183615115
322.126923041901;113.077309034513
322.148541955329;112.634811152988
322.170160868756;112.140368815268
322.191779782184;111.600613553148
322.213398695611;111.024333155642
322.235017609039;110.40987920915
322.256636522467;109.761097387511
322.278255435894;109.09197102638
322.299874349322;108.433040075246
322.321493262749;107.809884689577
322.343112176177;107.234103913165
322.364731089604;106.741091511659
322.386350003032;106.367960910289
322.40796891646;106.102439593501
322.429587829887;105.919077505082
322.451206743315;105.814224818
322.472825656742;105.791887240737
322.49444457017;105.860549472631
322.516063483597;106.016983951103
322.537682397025;106.227933040565
322.559301310453;106.471548988754
322.58092022388;106.725893963943
322.602539137308;106.972600803896
322.624158050735;107.202066202849
322.645776964163;107.412416524041
322.66739587759;107.590215019883
322.689014791018;107.717056086476
322.710633704446;107.789593522648
322.732252617873;107.81729428816
322.753871531301;107.801462133727
322.775490444728;107.745106185623
322.797109358156;107.658261657388
322.818728271584;107.551830286452
322.840347185011;107.424325653645
322.861966098439;107.275802742515
322.883585011866;107.111122928251
322.905203925294;106.929622086851
322.926822838721;106.716378203101
322.948441752149;106.460921376383
322.970060665577;106.152614769159
322.991679579004;105.785035226137
323.013298492432;105.346314153071
323.034917405859;104.851349164826
323.056536319287;104.326396971289
323.078155232714;103.792255358819
323.099774146142;103.259483522575
323.12139305957;102.724058500712
323.143011972997;102.185736889055
323.164630886425;101.666191707378
323.186249799852;101.185124957196
323.20786871328;100.748863320171
323.229487626707;100.365287540492
323.251106540135;100.031807224687
323.272725453563;99.7454900226743
323.29434436699;99.5238273799826
323.315963280418;99.360729379867
323.337582193845;99.2371271253078
323.359201107273;99.1438057314041
323.3808200207;99.0730025371105
323.402438934128;99.0280620706987
323.424057847556;99.0105016094538
323.445676760983;99.0188815137701
323.467295674411;99.0540685091143
323.488914587838;99.1097883743262
323.510533501266;99.1862275439091
323.532152414693;99.2747266363605
323.553771328121;99.3599176959454
323.575390241549;99.4243616572887
323.597009154976;99.4493919471647
323.618628068404;99.4242537062538
323.640246981831;99.3361610963373
323.661865895259;99.188502874459
323.683484808687;98.9598775636894
323.705103722114;98.6143763503847
323.726722635542;98.1353207858373
323.748341548969;97.6338383310218
323.769960462397;97.1301021561551
323.791579375824;96.5952089998458
323.813198289252;96.0318355010972
323.83481720268;95.4846801516521
323.856436116107;94.9908469210987
323.878055029535;94.5673966870282
323.899673942962;94.2307648278632
323.92129285639;93.9908700315701
323.942911769817;93.851561319988
323.964530683245;93.807464735971
323.986149596673;93.8494300804336
324.0077685101;93.9489129685103
324.029387423528;94.0699453873065
324.051006336955;94.196879475926
324.072625250383;94.3238646826355
324.09424416381;94.4436200321659
324.115863077238;94.5461870723668
324.137481990666;94.6187191579929
324.159100904093;94.6556973876521
324.180719817521;94.6562906994951
324.202338730948;94.6254909474439
324.223957644376;94.5772547505025
324.245576557803;94.5228087302518
324.267195471231;94.4618893036186
324.288814384659;94.404591773128
324.310433298086;94.3644410185305
324.332052211514;94.3445354725479
324.353671124941;94.3416764378925
324.375290038369;94.3525343253531
324.396908951796;94.3799455973268
324.418527865224;94.4246536100038
324.440146778652;94.4819981052862
324.461765692079;94.5432412519214
324.483384605507;94.5980333971098
324.505003518934;94.6440201919224
324.526622432362;94.6788928880571
324.54824134579;94.6974452623611
324.569860259217;94.691046475451
324.591479172645;94.6492999328289
324.613098086072;94.562316881683
324.6347169995;94.4195936281508
324.656335912927;94.2145226708079
324.677954826355;93.9725744030971
324.699573739783;93.7127425733434
324.72119265321;93.4397262136986
324.742811566638;93.1548147846222
324.764430480065;92.8457004626661
324.786049393493;92.483368488155
