Name;ESR_BC_1_359s_Y_gon_160dg_2

Recipe
Accumulations;5;Number of accumulations
RetryCount;0;Number of retries on error
AbortOnError;True;Abort on error
EnableQFactorMeasurement;False;Enable/Disable q-Factor measurement
Bfrom;313;B from
Bto;363;B to
SweepTime;60;Sweep time
Modulation;0.2;Modulation
ModulationFreq;100;Modulation
BHoldEnabled;False;B hold enabled
BHold;0;B hold
MicrowavePower;2;Microwave power
MarkerEnabled;False;
MarkerStartField;0;
MarkerEndField;0;
Mode;;
KineticGFact;0;
KineticTotalTransientTime;0;
KineticTimeResolution;0;
TempFrom;5;
TempUseSlope;False;
TempTo;5;
TempdT;1;
TempSetupTime;0;
GonFrom;0;
GonTo;180;
GonSteps;20;
XRayEnabled;False;
XRayTime;3;
XRayVoltage;40;
XRayCurrent;0.5;
UVEnabled;False;
UVIntensity;0;
UVTime;0;
UVLeadTime;0;
UVWavelength;0;
PowSweepFrom;1;
PowSweepTo;5;
PowSweepSteps;5;
AmpModSweepFrom;0;
AmpModSweepTo;1;
AmpModSweepSteps;10;
ExtTriggerEnabled;False;
ExtTrigLeadTime;0;
ExtTrigOnTime;5;

Meas
BField [mT];MW_Absorption []
313.022653656006;175.422524521425
313.044272198481;174.541169140247
313.065890740956;173.708724482332
313.087509283431;172.889215132798
313.109127825907;172.055988126045
313.130746368382;171.206847620687
313.152364910857;170.377692473127
313.173983453332;169.56271875986
313.195601995807;168.701502981346
313.217220538283;167.741164324007
313.238839080758;166.721685696462
313.260457623233;165.730810433359
313.282076165708;164.801982442596
313.303694708183;163.911006277681
313.325313250658;163.082784515559
313.346931793134;162.35515536776
313.368550335609;161.714131293037
313.390168878084;161.137360754196
313.411787420559;160.620985955446
313.433405963034;160.176355940256
313.45502450551;159.801087852131
313.476643047985;159.524059052757
313.49826159046;159.393668232528
313.519880132935;159.398926388641
313.54149867541;159.486900058294
313.563117217886;159.618691732878
313.584735760361;159.78428513089
313.606354302836;159.978729996601
313.627972845311;160.210934853166
313.649591387786;160.468643907561
313.671209930261;160.712107334583
313.692828472737;160.912964397574
313.714447015212;161.084684059238
313.736065557687;161.233825175442
313.757684100162;161.366951265525
313.779302642637;161.487559531452
313.800921185113;161.597735099901
313.822539727588;161.699425987538
313.844158270063;161.790709505203
313.865776812538;161.872900212846
313.887395355013;161.928674384686
313.909013897488;161.945506466241
313.930632439964;161.912358130501
313.952250982439;161.829910827399
313.973869524914;161.704031390007
313.995488067389;161.536748796736
314.017106609864;161.324687334064
314.03872515234;161.05683304164
314.060343694815;160.740650290945
314.08196223729;160.425260342918
314.103580779765;160.142755151407
314.12519932224;159.914323679585
314.146817864716;159.766442644221
314.168436407191;159.702775242816
314.190054949666;159.720619984928
314.211673492141;159.8307096781
314.233292034616;160.049797919004
314.254910577091;160.353803928165
314.276529119567;160.706204677673
314.298147662042;161.112167449941
314.319766204517;161.596088629376
314.341384746992;162.150779654368
314.363003289467;162.664176648123
314.384621831943;163.086980160965
314.406240374418;163.452107235662
314.427858916893;163.736277617524
314.449477459368;163.886949621639
314.471096001843;163.882956306126
314.492714544319;163.733959066719
314.514333086794;163.495451748569
314.535951629269;163.208809919549
314.557570171744;162.879626642582
314.579188714219;162.514675459841
314.600807256694;162.136535120731
314.62242579917;161.733434183614
314.644044341645;161.26153264378
314.66566288412;160.697916036174
314.687281426595;160.187987806782
314.70889996907;159.762044492335
314.730518511546;159.379131254397
314.752137054021;159.009246634048
314.773755596496;158.648842498922
314.795374138971;158.318110244423
314.816992681446;158.033159061699
314.838611223922;157.809828374954
314.860229766397;157.649509870423
314.881848308872;157.555846735499
314.903466851347;157.552388429334
314.925085393822;157.639777505043
314.946703936297;157.781965887168
314.968322478773;157.964850391367
314.989941021248;158.187203451163
315.011559563723;158.440640636918
315.033178106198;158.699972092395
315.054796648673;158.937667795745
315.076415191149;159.13831746693
315.098033733624;159.288070042952
315.119652276099;159.376988858823
315.141270818574;159.405534396216
315.162889361049;159.3787060539
315.184507903524;159.30290495407
315.206126446;159.185685196865
315.227744988475;159.032079325466
315.24936353095;158.847066799879
315.270982073425;158.654903780024
315.2926006159;158.467912569619
315.314219158376;158.290765959576
315.335837700851;158.119466941538
315.357456243326;157.950052817822
315.379074785801;157.782556094701
315.400693328276;157.619057573253
315.422311870752;157.458557609745
315.443930413227;157.303106378497
315.465548955702;157.155930190348
315.487167498177;157.016830138269
315.508786040652;156.891857611544
315.530404583128;156.777380422874
315.552023125603;156.664341467771
315.573641668078;156.547398080446
315.595260210553;156.429739984017
315.616878753028;156.31176029881
315.638497295503;156.185875182438
315.660115837979;156.045808036711
315.681734380454;155.893611770885
315.703352922929;155.741799004503
315.724971465404;155.596605865437
315.746590007879;155.453159479185
315.768208550355;155.310472647048
315.78982709283;155.169537083928
315.811445635305;155.044631671405
315.83306417778;154.948329029112
315.854682720255;154.87141348296
315.87630126273;154.812114999107
315.897919805206;154.774945736643
315.919538347681;154.762236510453
315.941156890156;154.763758057734
315.962775432631;154.773683117715
315.984393975106;154.791254457514
316.006012517582;154.821905506716
316.027631060057;154.864902592846
316.049249602532;154.919318846687
316.070868145007;154.980571042802
316.092486687482;155.045567252954
316.114105229958;155.119083250848
316.135723772433;155.207649951501
316.157342314908;155.315430481811
316.178960857383;155.431788964768
316.200579399858;155.54443861431
316.222197942333;155.652144306862
316.243816484809;155.756200317371
316.265435027284;155.855537978939
316.287053569759;155.927643629794
316.308672112234;155.966081053521
316.330290654709;155.970424040914
316.351909197185;155.929301524559
316.37352773966;155.830583618954
316.395146282135;155.681097585041
316.41676482461;155.482831465615
316.438383367085;155.224236094573
316.460001909561;154.897873561476
316.481620452036;154.522478229524
316.503238994511;154.108326078856
316.524857536986;153.661927806945
316.546476079461;153.220410110374
316.568094621936;152.798514327137
316.589713164412;152.389202773503
316.611331706887;151.988460016968
316.632950249362;151.60173281117
316.654568791837;151.240832867378
316.676187334312;150.933080258912
316.697805876788;150.704806710971
316.719424419263;150.533607846404
316.741042961738;150.395330613024
316.762661504213;150.276269798897
316.784280046688;150.160175012876
316.805898589164;150.029391273139
316.827517131639;149.856967083619
316.849135674114;149.618549286679
316.870754216589;149.29900954402
316.892372759064;148.906430042079
316.913991301539;148.472065281504
316.935609844015;147.988224622458
316.95722838649;147.424222301382
316.978846928965;146.785532078589
317.00046547144;146.101086928182
317.022084013915;145.411527085453
317.043702556391;144.767938202961
317.065321098866;144.194521524696
317.086939641341;143.671797232472
317.108558183816;143.164605597733
317.130176726291;142.690533221154
317.151795268766;142.288690758535
317.173413811242;141.988557062135
317.195032353717;141.78753856732
317.216650896192;141.670834151326
317.238269438667;141.617861970248
317.259887981142;141.604607658949
317.281506523618;141.616804401535
317.303125066093;141.655132931466
317.324743608568;141.717106613373
317.346362151043;141.808393665085
317.367980693518;141.929379995528
317.389599235994;142.081974183738
317.411217778469;142.258527339553
317.432836320944;142.451309498456
317.454454863419;142.661124320892
317.476073405894;142.91054998499
317.497691948369;143.229130001994
317.519310490845;143.608020356043
317.54092903332;143.972357763415
317.562547575795;144.294055765658
317.58416611827;144.584778466504
317.605784660745;144.836148268668
317.627403203221;145.019363796972
317.649021745696;145.096671174
317.670640288171;145.057938789382
317.692258830646;144.912834547543
317.713877373121;144.662860435168
317.735495915597;144.299578723856
317.757114458072;143.827483911539
317.778733000547;143.315381170851
317.800351543022;142.801945241602
317.821970085497;142.285443008648
317.843588627972;141.757845574761
317.865207170448;141.203967910567
317.886825712923;140.615726163391
317.908444255398;140.028103532645
317.930062797873;139.49293378349
317.951681340348;139.024395435443
317.973299882824;138.603933861368
317.994918425299;138.208907518638
318.016536967774;137.836881565699
318.038155510249;137.501649709216
318.059774052724;137.207547528492
318.0813925952;136.936992928341
318.103011137675;136.671504549601
318.12462968015;136.412274702607
318.146248222625;136.180042065053
318.1678667651;135.96944237282
318.189485307575;135.76305744617
318.211103850051;135.555353217867
318.232722392526;135.346557295087
318.254340935001;135.127767293571
318.275959477476;134.883747844691
318.297578019951;134.611734271671
318.319196562427;134.328753472747
318.340815104902;134.052028696183
318.362433647377;133.779853099553
318.384052189852;133.493598591642
318.405670732327;133.171739874969
318.427289274802;132.797200364853
318.448907817278;132.378519813318
318.470526359753;131.918614578544
318.492144902228;131.384820915089
318.513763444703;130.781490615434
318.535381987178;130.191178771991
318.557000529654;129.63658270958
318.578619072129;129.084906175927
318.600237614604;128.502546908101
318.621856157079;127.87664609568
318.643474699554;127.221259004058
318.66509324203;126.605286730146
318.686711784505;126.080052613467
318.70833032698;125.63443349014
318.729948869455;125.229012623918
318.75156741193;124.847015441751
318.773185954406;124.48169548157
318.794804496881;124.124408506672
318.816423039356;123.786351602086
318.838041581831;123.459263551612
318.859660124306;123.119630850489
318.881278666781;122.74676700558
318.902897209257;122.349778202594
318.924515751732;121.990016159656
318.946134294207;121.70994295456
318.967752836682;121.492923539643
318.989371379157;121.331346920597
319.010989921633;121.238608749545
319.032608464108;121.243175777585
319.054227006583;121.379254679892
319.075845549058;121.669980286403
319.097464091533;122.116534695571
319.119082634008;122.659497869734
319.140701176484;123.275474435201
319.162319718959;124.008156022573
319.183938261434;124.8430854957
319.205556803909;125.701604117208
319.227175346384;126.524231294079
319.24879388886;127.3352429318
319.270412431335;128.15695036929
319.29203097381;128.938602483755
319.313649516285;129.656255761908
319.33526805876;130.308994148955
319.356886601236;130.870290072294
319.378505143711;131.344373285152
319.400123686186;131.766473182564
319.421742228661;132.159460320614
319.443360771136;132.511429047688
319.464979313611;132.815181903731
319.486597856087;133.071728804101
319.508216398562;133.273490601463
319.529834941037;133.419464391526
319.551453483512;133.502377965144
319.573072025987;133.526755863969
319.594690568463;133.490491214992
319.616309110938;133.383909312073
319.637927653413;133.201447834677
319.659546195888;132.952673670127
319.681164738363;132.653605790591
319.702783280839;132.31875800249
319.724401823314;131.956509908964
319.746020365789;131.557361859611
319.767638908264;131.122620157956
319.789257450739;130.666569228681
319.810875993214;130.215978746556
319.83249453569;129.777330498947
319.854113078165;129.353270561588
319.87573162064;128.952067576858
319.897350163115;128.586500456429
319.91896870559;128.24592118016
319.940587248066;127.928098958671
319.962205790541;127.652664937789
319.983824333016;127.416926222897
320.005442875491;127.202546569647
320.027061417966;126.994423484697
320.048679960442;126.783056734332
320.070298502917;126.567730355055
320.091917045392;126.352781630438
320.113535587867;126.134067564919
320.135154130342;125.911639504084
320.156772672817;125.686978359933
320.178391215293;125.463186697979
320.200009757768;125.247458374182
320.221628300243;125.04225423896
320.243246842718;124.846356710696
320.264865385193;124.66582418341
320.286483927669;124.513782664761
320.308102470144;124.430407499006
320.329721012619;124.429811607939
320.351339555094;124.506452539806
320.372958097569;124.652907748498
320.394576640044;124.869264609766
320.41619518252;125.157470133696
320.437813724995;125.491574971542
320.45943226747;125.837612223306
320.481050809945;126.187285728533
320.50266935242;126.533084267598
320.524287894896;126.855674311218
320.545906437371;127.137877977941
320.567524979846;127.37205061677
320.589143522321;127.539477448545
320.610762064796;127.631751652145
320.632380607272;127.642837033179
320.653999149747;127.571140950084
320.675617692222;127.430474464278
320.697236234697;127.218592600884
320.718854777172;126.920567867033
320.740473319647;126.531772094596
320.762091862123;126.082753612727
320.783710404598;125.58700219287
320.805328947073;125.030198666661
320.826947489548;124.409841439189
320.848566032023;123.758542035901
320.870184574499;123.09462005021
320.891803116974;122.454625991761
320.913421659449;121.912199767449
320.935040201924;121.47577918812
320.956658744399;121.128310091033
320.978277286875;120.860623505384
320.99989582935;120.661614112599
321.021514371825;120.530921022471
321.0431329143;120.4789150851
321.064751456775;120.500625913353
321.08636999925;120.572622662943
321.107988541726;120.667827607055
321.129607084201;120.770333546155
321.151225626676;120.862924826204
321.172844169151;120.924661873935
321.194462711626;120.948484661958
321.216081254102;120.921257839206
321.237699796577;120.821968163685
321.259318339052;120.640310196369
321.280936881527;120.397602658415
321.302555424002;120.098279818271
321.324173966478;119.728371708454
321.345792508953;119.295494591126
321.367411051428;118.833494346898
321.389029593903;118.378668334726
321.410648136378;117.945796108041
321.432266678853;117.529536696623
321.453885221329;117.126448977486
321.475503763804;116.74278584967
321.497122306279;116.410727187339
321.518740848754;116.166289696189
321.540359391229;116.003874892664
321.561977933705;115.902103040742
321.58359647618;115.844443942704
321.605215018655;115.834455684775
321.62683356113;115.857192899482
321.648452103605;115.889548454309
321.67007064608;115.922903264205
321.691689188556;115.948721309607
321.713307731031;115.955833202476
321.734926273506;115.935127873086
321.756544815981;115.884382183319
321.778163358456;115.799311435678
321.799781900932;115.680516871274
321.821400443407;115.537625992969
321.843018985882;115.377799640894
321.864637528357;115.207472620856
321.886256070832;115.03067425255
321.907874613308;114.856209589705
321.929493155783;114.688196071842
321.951111698258;114.540510377873
321.972730240733;114.41619887352
321.994348783208;114.324970665564
322.015967325684;114.265095984209
322.037585868159;114.239012736222
322.059204410634;114.238855829655
322.080822953109;114.253926816829
322.102441495584;114.265484511992
322.124060038059;114.256368904595
322.145678580535;114.209405863395
322.16729712301;114.095159588653
322.188915665485;113.883508193627
322.21053420796;113.564174797747
322.232152750435;113.134021519971
322.253771292911;112.61864036172
322.275389835386;112.054956298387
322.297008377861;111.442677823684
322.318626920336;110.741206869105
322.340245462811;109.986298337783
322.361864005286;109.279766666357
322.383482547762;108.637373107968
322.405101090237;108.028124345466
322.426719632712;107.494601053966
322.448338175187;107.079229990681
322.469956717662;106.775502462976
322.491575260138;106.594309174381
322.513193802613;106.537433435858
322.534812345088;106.583768915843
322.556430887563;106.715867044718
322.578049430038;106.916656806065
322.599667972514;107.165642783475
322.621286514989;107.42500781391
322.642905057464;107.685571981708
322.664523599939;107.944903137071
322.686142142414;108.173285955582
322.707760684889;108.36237521474
322.729379227365;108.518551446027
322.75099776984;108.636852111127
322.772616312315;108.708220580318
322.79423485479;108.735299130657
322.815853397265;108.711622424984
322.837471939741;108.624757096532
322.859090482216;108.480008708441
322.880709024691;108.281353025834
322.902327567166;108.034723554115
322.923946109641;107.755967912169
322.945564652117;107.451716716737
322.967183194592;107.103550030059
322.988801737067;106.72527042299
323.010420279542;106.371154962189
323.032038822017;106.055894227866
323.053657364492;105.773543731623
323.075275906968;105.549105839606
323.096894449443;105.394245388839
323.118512991918;105.293130275732
323.140131534393;105.224814361193
323.161750076868;105.170241985767
323.183368619344;105.11651815164
323.204987161819;105.045879179553
323.226605704294;104.948744240178
323.248224246769;104.821171417522
323.269842789244;104.653168593926
323.29146133172;104.44556275757
323.313079874195;104.199707712234
323.33469841667;103.910648277219
323.356316959145;103.56250197314
323.37793550162;103.166363983847
323.399554044095;102.752900159559
323.421172586571;102.353012910407
323.442791129046;101.973119543999
323.464409671521;101.606430344243
323.486028213996;101.246580544369
323.507646756471;100.888814318673
323.529265298947;100.550685336836
323.550883841422;100.246691447421
323.572502383897;99.9770939554557
323.594120926372;99.7307395029025
323.615739468847;99.4952210291291
323.637358011322;99.2653387185908
323.658976553798;99.0404318172244
323.680595096273;98.8253453268897
323.702213638748;98.6086231283834
323.723832181223;98.3703999519827
323.745450723698;98.1060527816727
323.767069266174;97.8313190096018
323.788687808649;97.5630761220508
323.810306351124;97.3103896627604
323.831924893599;97.0474917316963
323.853543436074;96.7456781537699
323.87516197855;96.3934838642467
323.896780521025;96.0331090244025
323.9183990635;95.7076523525652
323.940017605975;95.4127228096867
323.96163614845;95.1466051770576
323.983254690925;94.9174055492274
324.004873233401;94.7253749754635
324.026491775876;94.5632448289567
324.048110318351;94.4221485672993
324.069728860826;94.2966540241468
324.091347403301;94.1808318808872
324.112965945777;94.0767469749752
324.134584488252;93.9886798938001
324.156203030727;93.9126949674637
324.177821573202;93.8476188573483
324.199440115677;93.7841049389335
324.221058658153;93.7136615811218
324.242677200628;93.6244056555637
324.264295743103;93.507327401052
324.285914285578;93.3580119118144
324.307532828053;93.1548608904825
324.329151370528;92.8680460887566
324.350769913004;92.4663886031722
324.372388455479;91.9639434551732
324.394006997954;91.3882928467086
324.415625540429;90.7298192670007
324.437244082904;90.004731855898
324.45886262538;89.2597098441066
324.480481167855;88.5082795446008
324.50209971033;87.7433721467183
324.523718252805;87.0012574963315
324.54533679528;86.3440280794787
324.566955337756;85.7703937768943
324.588573880231;85.2687314449905
324.610192422706;84.8622998245083
324.631810965181;84.6007436580771
324.653429507656;84.5085367066037
324.675048050131;84.5643783033623
324.696666592607;84.7352979631505
324.718285135082;85.0044720479892
324.739903677557;85.3623615647997
324.761522220032;85.7615870404258
324.783140762507;86.1482238326295
