Name;ESR_BC_1_359s_Y_gon_160dg_5

Recipe
Accumulations;5;Number of accumulations
RetryCount;0;Number of retries on error
AbortOnError;True;Abort on error
EnableQFactorMeasurement;False;Enable/Disable q-Factor measurement
Bfrom;313;B from
Bto;363;B to
SweepTime;60;Sweep time
Modulation;0.2;Modulation
ModulationFreq;100;Modulation
BHoldEnabled;False;B hold enabled
BHold;0;B hold
MicrowavePower;2;Microwave power
MarkerEnabled;False;
MarkerStartField;0;
MarkerEndField;0;
Mode;;
KineticGFact;0;
KineticTotalTransientTime;0;
KineticTimeResolution;0;
TempFrom;5;
TempUseSlope;False;
TempTo;5;
TempdT;1;
TempSetupTime;0;
GonFrom;0;
GonTo;180;
GonSteps;20;
XRayEnabled;False;
XRayTime;3;
XRayVoltage;40;
XRayCurrent;0.5;
UVEnabled;False;
UVIntensity;0;
UVTime;0;
UVLeadTime;0;
UVWavelength;0;
PowSweepFrom;1;
PowSweepTo;5;
PowSweepSteps;5;
AmpModSweepFrom;0;
AmpModSweepTo;1;
AmpModSweepSteps;10;
ExtTriggerEnabled;False;
ExtTrigLeadTime;0;
ExtTrigOnTime;5;

Meas
BField [mT];MW_Absorption []
313.012627410889;179.794128169299
313.034250064918;179.344344905625
313.055872718946;178.772845727332
313.077495372975;178.105092456473
313.099118027004;177.338238938428
313.120740681033;176.425505184746
313.142363335062;175.261991827796
313.163985989091;173.779947644445
313.18560864312;172.132335842188
313.207231297148;170.518732598363
313.228853951177;168.862553648891
313.250476605206;167.101269657788
313.272099259235;165.243146911553
313.293721913264;163.439293218416
313.315344567293;161.865319543953
313.336967221322;160.5369598917
313.35858987535;159.405947697494
313.380212529379;158.495032961204
313.401835183408;157.868808987142
313.423457837437;157.494867865285
313.445080491466;157.335300905662
313.466703145495;157.376717412105
313.488325799524;157.568387631773
313.509948453552;157.867371252906
313.531571107581;158.256772953554
313.55319376161;158.704944328353
313.574816415639;159.099165036887
313.596439069668;159.408044345232
313.618061723697;159.665853993181
313.639684377726;159.881838733197
313.661307031754;160.038453431718
313.682929685783;160.136082568052
313.704552339812;160.18690008123
313.726174993841;160.205138669876
313.74779764787;160.20233835338
313.769420301899;160.192544138685
313.791042955928;160.185002955658
313.812665609956;160.178976058505
313.834288263985;160.168279042654
313.855910918014;160.147168200472
313.877533572043;160.102439358736
313.899156226072;160.032477946203
313.920778880101;159.934639359477
313.94240153413;159.797999960118
313.964024188158;159.611273288491
313.985646842187;159.376706448728
314.007269496216;159.117406715291
314.028892150245;158.850692413151
314.050514804274;158.607898393299
314.072137458303;158.413092419239
314.093760112332;158.26729787453
314.11538276636;158.176173919828
314.137005420389;158.151310037126
314.158628074418;158.203449814668
314.180250728447;158.34474344247
314.201873382476;158.56449230697
314.223496036505;158.843445163504
314.245118690534;159.147881272148
314.266741344562;159.438253824513
314.288363998591;159.71337502566
314.30998665262;159.97123362216
314.331609306649;160.178735411785
314.353231960678;160.28850056546
314.374854614707;160.288114688077
314.396477268736;160.182732266212
314.418099922765;159.971496443817
314.439722576793;159.665477031117
314.461345230822;159.287818065219
314.482967884851;158.840530018754
314.50459053888;158.33420581391
314.526213192909;157.842216257233
314.547835846938;157.411686343075
314.569458500967;157.051026748228
314.591081154995;156.788907406069
314.612703809024;156.639453203969
314.634326463053;156.587962964959
314.655949117082;156.639025350439
314.677571771111;156.802468477109
314.69919442514;157.069432358718
314.720817079169;157.419071441342
314.742439733197;157.813761595258
314.764062387226;158.203108550335
314.785685041255;158.548605229809
314.807307695284;158.831809594459
314.828930349313;159.051452259419
314.850553003342;159.19748305903
314.872175657371;159.263624263383
314.893798311399;159.253997940746
314.915420965428;159.181557361763
314.937043619457;159.063642087466
314.958666273486;158.928323364546
314.980288927515;158.794381660646
315.001911581544;158.669573740124
315.023534235573;158.562994540305
315.045156889601;158.484201906015
315.06677954363;158.429824637771
315.088402197659;158.388998764897
315.110024851688;158.349122124256
315.131647505717;158.295729429063
315.153270159746;158.217378074461
315.174892813775;158.100073501963
315.196515467803;157.926931762435
315.218138121832;157.698576057472
315.239760775861;157.431386485868
315.26138342989;157.137671836533
315.283006083919;156.82346387981
315.304628737948;156.492101318971
315.326251391977;156.145467949371
315.347874046005;155.787998377276
315.369496700034;155.45502565971
315.391119354063;155.181518159624
315.412742008092;154.97668450607
315.434364662121;154.84199444769
315.45598731615;154.78080288777
315.477609970179;154.795736228555
315.499232624207;154.892535892264
315.520855278236;155.064613184497
315.542477932265;155.307477663366
315.564100586294;155.620540542638
315.585723240323;155.983671056231
315.607345894352;156.384363887741
315.628968548381;156.824458493113
315.650591202409;157.302294760398
315.672213856438;157.789881882175
315.693836510467;158.245680353861
315.715459164496;158.650779749962
315.737081818525;159.004875478633
315.758704472554;159.312340309214
315.780327126583;159.566149579014
315.801949780611;159.761100628956
315.82357243464;159.893674672202
315.845195088669;159.977612233026
315.866817742698;160.023037910574
315.888440396727;160.033606985324
315.910063050756;159.992092543916
315.931685704785;159.891586302765
315.953308358814;159.711662809778
315.974931012842;159.464733461054
315.996553666871;159.164243077509
316.0181763209;158.801665358479
316.039798974929;158.378276041412
316.061421628958;157.901809973025
316.083044282987;157.364010091361
316.104666937016;156.757001131133
316.126289591044;156.087390325856
316.147912245073;155.402777599067
316.169534899102;154.745144134838
316.191157553131;154.076268218089
316.21278020716;153.403298795785
316.234402861189;152.842451086501
316.256025515218;152.400322952133
316.277648169246;152.020452691224
316.299270823275;151.675190668655
316.320893477304;151.35405912732
316.342516131333;151.046562386411
316.364138785362;150.749709476986
316.385761439391;150.463038485396
316.40738409342;150.18236761067
316.429006747448;149.89575613231
316.450629401477;149.578799294519
316.472252055506;149.221598784437
316.493874709535;148.870196008872
316.515497363564;148.561803972019
316.537120017593;148.289254249375
316.558742671622;148.035374064215
316.58036532565;147.805587425406
316.601987979679;147.617125607831
316.623610633708;147.465548536134
316.645233287737;147.338357493606
316.666855941766;147.228812319637
316.688478595795;147.136259104798
316.710101249824;147.061761980934
316.731723903852;147.00147292233
316.753346557881;146.94319685011
316.77496921191;146.870768957185
316.796591865939;146.769850612051
316.818214519968;146.632058225333
316.839837173997;146.44301875964
316.861459828026;146.185682222598
316.883082482054;145.852430674084
316.904705136083;145.452545241589
316.926327790112;144.99396289545
316.947950444141;144.464236553417
316.96957309817;143.843261774154
316.991195752199;143.14923540458
317.012818406228;142.454498512255
317.034441060256;141.782902193558
317.056063714285;141.11311642633
317.077686368314;140.449950999641
317.099309022343;139.853888947466
317.120931676372;139.345103518842
317.142554330401;138.905371564583
317.16417698443;138.513421891544
317.185799638458;138.157751049875
317.207422292487;137.881075634955
317.229044946516;137.733011731726
317.250667600545;137.665398122829
317.272290254574;137.653143287114
317.293912908603;137.687044420961
317.315535562632;137.756203186418
317.337158216661;137.859559105464
317.358780870689;137.99730162176
317.380403524718;138.169616111957
317.402026178747;138.370315101396
317.423648832776;138.593822110409
317.445271486805;138.832818973896
317.466894140834;139.091300708187
317.488516794863;139.368244321292
317.510139448891;139.654022954863
317.53176210292;139.944588658583
317.553384756949;140.217632434658
317.575007410978;140.428721668691
317.596630065007;140.571878203034
317.618252719036;140.653247643436
317.639875373065;140.674592117272
317.661498027093;140.629491388958
317.683120681122;140.508681391768
317.704743335151;140.308460136871
317.72636598918;140.025697044489
317.747988643209;139.68149694995
317.769611297238;139.293714854752
317.791233951267;138.869748554866
317.812856605295;138.427745374665
317.834479259324;138.005077824113
317.856101913353;137.615011503352
317.877724567382;137.24971446514
317.899347221411;136.899697860486
317.92096987544;136.552343673689
317.942592529469;136.239238841842
317.964215183497;135.998979240864
317.985837837526;135.817835387272
318.007460491555;135.67718182237
318.029083145584;135.572885912191
318.050705799613;135.512207347543
318.072328453642;135.489505153402
318.093951107671;135.496209044252
318.115573761699;135.526881736984
318.137196415728;135.572301754211
318.158819069757;135.627807442478
318.180441723786;135.687637881834
318.202064377815;135.756556800991
318.223687031844;135.838073059889
318.245309685873;135.924126237613
318.266932339901;136.012877423582
318.28855499393;136.108198484372
318.310177647959;136.214281385772
318.331800301988;136.329388862908
318.353422956017;136.449977730291
318.375045610046;136.572914498621
318.396668264075;136.687500779065
318.418290918103;136.785015947698
318.439913572132;136.861413194967
318.461536226161;136.91457634977
318.48315888019;136.930997023443
318.504781534219;136.90913183164
318.526404188248;136.856760803476
318.548026842277;136.771933153151
318.569649496305;136.65318956086
318.591272150334;136.497283530548
318.612894804363;136.291984645142
318.634517458392;136.033731626631
318.656140112421;135.734984476099
318.67776276645;135.407729450041
318.699385420479;135.038554539036
318.721008074507;134.604345201507
318.742630728536;134.102890194147
318.764253382565;133.548309934626
318.785876036594;132.928672086859
318.807498690623;132.220749699505
318.829121344652;131.469323839543
318.850743998681;130.757470580732
318.87236665271;130.111394265636
318.893989306738;129.50634354326
318.915611960767;128.92355459388
318.937234614796;128.384087685602
318.958857268825;127.928908621196
318.980479922854;127.553891669944
319.002102576883;127.235416935406
319.023725230912;126.984914846649
319.04534788494;126.806589173476
319.066970538969;126.663213505453
319.088593192998;126.524304586437
319.110215847027;126.369851616705
319.131838501056;126.190138393
319.153461155085;125.985159616295
319.175083809114;125.756039849157
319.196706463142;125.506802377064
319.218329117171;125.248965046803
319.2399517712;125.003505820637
319.261574425229;124.793996785604
319.283197079258;124.644021659298
319.304819733287;124.583801160297
319.326442387316;124.626990916594
319.348065041344;124.770813481689
319.369687695373;124.996357907188
319.391310349402;125.294824021642
319.412933003431;125.662469946614
319.43455565746;126.097447382119
319.456178311489;126.594492030308
319.477800965518;127.107045599882
319.499423619546;127.586938986305
319.521046273575;128.015670323747
319.542668927604;128.368147143332
319.564291581633;128.634424075147
319.585914235662;128.811697118109
319.607536889691;128.894853151428
319.62915954372;128.890171329205
319.650782197748;128.795763506383
319.672404851777;128.62456593126
319.694027505806;128.385375897755
319.715650159835;128.094058622256
319.737272813864;127.763762376159
319.758895467893;127.406780766751
319.780518121922;127.053248864978
319.80214077595;126.725597539915
319.823763429979;126.426024443148
319.845386084008;126.138341967275
319.867008738037;125.85999357096
319.888631392066;125.605757519262
319.910254046095;125.401827434677
319.931876700124;125.247967534905
319.953499354152;125.131332004282
319.975122008181;125.033041271873
319.99674466221;124.939632362449
320.018367316239;124.850866138496
320.039989970268;124.771194782398
320.061612624297;124.703839014839
320.083235278326;124.653597812907
320.104857932354;124.628687587821
320.126480586383;124.63430739513
320.148103240412;124.675242660481
320.169725894441;124.762252459169
320.19134854847;124.902431970622
320.212971202499;125.092472892146
320.234593856528;125.312142120286
320.256216510557;125.547268577571
320.277839164585;125.789408174415
320.299461818614;126.031340273842
320.321084472643;126.269704368551
320.342707126672;126.493487690858
320.364329780701;126.687874959588
320.38595243473;126.841420898025
320.407575088759;126.939576733504
320.429197742787;126.966604656427
320.450820396816;126.918725340656
320.472443050845;126.806018372147
320.494065704874;126.628751447564
320.515688358903;126.393147822388
320.537311012932;126.106161304476
320.558933666961;125.780144773085
320.580556320989;125.405824754335
320.602178975018;124.980705949264
320.623801629047;124.541861906653
320.645424283076;124.121603300337
320.667046937105;123.731187048276
320.688669591134;123.390366812691
320.710292245163;123.114608061246
320.731914899191;122.899067005906
320.75353755322;122.741623111383
320.775160207249;122.654010998217
320.796782861278;122.645156995448
320.818405515307;122.718845556238
320.840028169336;122.838244153472
320.861650823365;122.980558615922
320.883273477393;123.138914239828
320.904896131422;123.30310325472
320.926518785451;123.461453255236
320.94814143948;123.608360350697
320.969764093509;123.747763226646
320.991386747538;123.869213237979
321.013009401567;123.962247252657
321.034632055595;124.024591088467
321.056254709624;124.053048554497
321.077877363653;124.048497127648
321.099500017682;124.011223532264
321.121122671711;123.931145481809
321.14274532574;123.793973566639
321.164367979769;123.593313032706
321.185990633797;123.326816772004
321.207613287826;122.979276535375
321.229235941855;122.559824694872
321.250858595884;122.08018540133
321.272481249913;121.516308670056
321.294103903942;120.868565904118
321.315726557971;120.167291113581
321.337349211999;119.392105790393
321.358971866028;118.55118880826
321.380594520057;117.781328629869
321.402217174086;117.145750243659
321.423839828115;116.611265641508
321.445462482144;116.149106285788
321.467085136173;115.752669774017
321.488707790201;115.453918959111
321.51033044423;115.278675314233
321.531953098259;115.20395199805
321.553575752288;115.204498087411
321.575198406317;115.268383069161
321.596821060346;115.391512133496
321.618443714375;115.562017539349
321.640066368403;115.752192987879
321.661689022432;115.935643082947
321.683311676461;116.10193016555
321.70493433049;116.24316419625
321.726556984519;116.32760581387
321.748179638548;116.338087575564
321.769802292577;116.291705203221
321.791424946606;116.197418257318
321.813047600634;116.041531255137
321.834670254663;115.809495423375
321.856292908692;115.536993758567
321.877915562721;115.244145077653
321.89953821675;114.920685141808
321.921160870779;114.564251592511
321.942783524808;114.214059406854
321.964406178836;113.883077707943
321.986028832865;113.546822030512
322.007651486894;113.17895036405
322.029274140923;112.745978806359
322.050896794952;112.21776295966
322.072519448981;111.60262956877
322.09414210301;110.932711852461
322.115764757038;110.216573273494
322.137387411067;109.474961824589
322.159010065096;108.749054199347
322.180632719125;108.059116269009
322.202255373154;107.413473615662
322.223878027183;106.810631530113
322.245500681212;106.249780037403
322.26712333524;105.741321080212
322.288745989269;105.300152201626
322.310368643298;104.945946932667
322.331991297327;104.680503953998
322.353613951356;104.484329001658
322.375236605385;104.344373663064
322.396859259414;104.256374325798
322.418481913442;104.222772557017
322.440104567471;104.235304389897
322.4617272215;104.28399105031
322.483349875529;104.362371587031
322.504972529558;104.46035387697
322.526595183587;104.581640578193
322.548217837616;104.724147662202
322.569840491644;104.881408098983
322.591463145673;105.048060191253
322.613085799702;105.221031800523
322.634708453731;105.399639545564
322.65633110776;105.587761276632
322.677953761789;105.786577908583
322.699576415818;105.988133580724
322.721199069846;106.196775706166
322.742821723875;106.412284448723
322.764444377904;106.635212555594
322.786067031933;106.873336556311
322.807689685962;107.130607189249
322.829312339991;107.419277047879
322.85093499402;107.751187716646
322.872557648048;108.102224042109
322.894180302077;108.438589192511
322.915802956106;108.770582727004
322.937425610135;109.113889998466
322.959048264164;109.445582299051
322.980670918193;109.728567544987
323.002293572222;109.95183378324
323.02391622625;110.104821840149
323.045538880279;110.191456895368
323.067161534308;110.210736517437
323.088784188337;110.156592401616
323.110406842366;110.018807109202
323.132029496395;109.811837586126
323.153652150424;109.558343947958
323.175274804452;109.265537763187
323.196897458481;108.934562709316
323.21852011251;108.556270005883
323.240142766539;108.097724788833
323.261765420568;107.524913181184
323.283388074597;106.938322065276
323.305010728626;106.444869768521
323.326633382654;106.013641404103
323.348256036683;105.610603388322
323.369878690712;105.251805425118
323.391501344741;104.930224883963
323.41312399877;104.613216271974
323.434746652799;104.283480014415
323.456369306828;103.926937957352
323.477991960857;103.542923849058
323.499614614885;103.132279738514
323.521237268914;102.70636789285
323.542859922943;102.306883644348
323.564482576972;101.930937913721
323.586105231001;101.561071598319
323.60772788503;101.185394592849
323.629350539059;100.78742668988
323.650973193087;100.340144498432
323.672595847116;99.8445072130839
323.694218501145;99.3365188369351
323.715841155174;98.8243401096713
323.737463809203;98.2824281651838
323.759086463232;97.7108957849466
323.780709117261;97.1486923567445
323.802331771289;96.6152501836888
323.823954425318;96.1351027007219
323.845577079347;95.6777591826075
323.867199733376;95.2107457075542
323.888822387405;94.7012909319794
323.910445041434;94.1132927728965
323.932067695463;93.4692158849622
323.953690349491;92.8441259960222
323.97531300352;92.2742782120012
323.996935657549;91.747545228135
324.018558311578;91.2364675280805
324.040180965607;90.7239009242036
324.061803619636;90.226383057319
324.083426273665;89.7602306692617
324.105048927693;89.3249964522665
324.126671581722;88.9166984118612
324.148294235751;88.5289289352313
324.16991688978;88.1581464588697
324.191539543809;87.8196765203852
324.213162197838;87.5240712132773
324.234784851867;87.255317037423
324.256407505895;87.002315875933
324.278030159924;86.7800600410372
324.299652813953;86.607823253241
324.321275467982;86.4787565156916
324.342898122011;86.3816804197304
324.36452077604;86.3238633477691
324.386143430069;86.3237879446789
324.407766084097;86.3740205894193
324.429388738126;86.4661059415791
324.451011392155;86.5894691279071
324.472634046184;86.7442767844542
324.494256700213;86.9273929166912
324.515879354242;87.1287697006778
324.537502008271;87.3350972159539
324.559124662299;87.5420779328788
324.580747316328;87.7556629240099
324.602369970357;87.9677531906235
324.623992624386;88.1536962548708
324.645615278415;88.301983691003
324.667237932444;88.4118938370812
324.688860586473;88.4740334297504
324.710483240501;88.4765482882056
324.73210589453;88.4233898389258
324.753728548559;88.3108700104394
324.775351202588;88.129817028924
